************************************************************
  HS Scan of (1) Internal mercury lamp
************************************************************
Integration time is 0.2294 seconds per sample
dh300119Reading 51.44 .94 2.29pr1000
************************************************************
Dead Time -------------------------  3.4E-08 
Number of Cycles Used -------------  4 
Starting Wavelength (Angstroms) ---  2950 
Final Wavelength (Angstoms) -------  2984 
Wavelength Increment (Angstroms) --  .25 
Filter Wheel #1 Position ---------- (1) Ground quartz diffuser (ND=2.32)
Filter Wheel #2 Position ---------- (1) Neutral Density 0.494



************************************************************
HS scan start time = 05:04:41
Dark Count =  .1 


Time (GMT)  Wavelength (Ang)  Step Number  Raw Counts  Counts/Second

  305.58        2950.00           2144        1621.00      7067.52
  305.77        2950.25           2147        1651.00      7198.36
  305.80        2950.50           2151        1580.00      6888.71
  305.83        2950.75           2155        1636.00      7132.94
  305.86        2951.00           2158        1643.00      7163.47
  305.90        2951.25           2162        1640.00      7150.39
  305.93        2951.50           2165        1649.00      7189.64
  305.96        2951.75           2169        1631.00      7111.14
  305.99        2952.00           2172        1654.00      7211.45
  306.02        2952.25           2176        1635.00      7128.58
  306.05        2952.50           2179        1584.00      6906.16
  306.08        2952.75           2183        1669.00      7276.87
  306.11        2953.00           2186        1672.00      7289.95
  306.14        2953.25           2190        1641.00      7154.75
  306.17        2953.50           2193        1654.00      7211.45
  306.20        2953.75           2197        1679.00      7320.48
  306.23        2954.00           2200        1707.00      7442.60
  306.26        2954.25           2204        1642.00      7159.11
  306.29        2954.50           2208        1692.00      7377.18
  306.32        2954.75           2211        1701.00      7416.43
  306.35        2955.00           2215        1717.00      7486.21
  306.38        2955.25           2218        1714.00      7473.13
  306.42        2955.50           2222        1742.00      7595.25
  306.45        2955.75           2225        1729.00      7538.55
  306.48        2956.00           2229        1724.00      7516.74
  306.51        2956.25           2232        1731.00      7547.27
  306.54        2956.50           2236        1770.00      7717.37
  306.57        2956.75           2239        1731.00      7547.27
  306.61        2957.00           2243        1808.00      7883.11
  306.64        2957.25           2246        1738.00      7577.80
  306.67        2957.50           2250        1828.00      7970.34
  306.70        2957.75           2254        1813.00      7904.91
  306.73        2958.00           2257        1793.00      7817.68
  306.76        2958.25           2261        1834.00      7996.51
  306.79        2958.50           2264        1833.00      7992.15
  306.82        2958.75           2268        1795.00      7826.41
  306.85        2959.00           2271        1868.00      8144.80
  306.88        2959.25           2275        1900.00      8284.37
  306.91        2959.50           2278        1892.00      8249.48
  306.94        2959.75           2282        1915.00      8349.80
  306.97        2960.00           2285        1996.00      8703.10
  307.00        2960.25           2289        1933.00      8428.31
  307.03        2960.50           2293        2012.00      8772.89
  307.06        2960.75           2296        2037.00      8881.93
  307.09        2961.00           2300        2117.00      9230.88
  307.13        2961.25           2303        2465.00     10748.91
  307.16        2961.50           2307        6249.00     27265.46
  307.19        2961.75           2310       14377.00     62805.73
  307.22        2962.00           2314       30007.00    131391.70
  307.25        2962.25           2317       44291.00    194352.80
  307.28        2962.50           2321       62007.00    272819.30
  307.31        2962.75           2324       74844.00    329940.00
  307.34        2963.00           2328       94795.00    419161.00
  307.37        2963.25           2331      111313.00    493444.50
  307.40        2963.50           2335      133507.00    593853.30
  307.43        2963.75           2339      153196.00    683512.60
  307.46        2964.00           2342      167735.00    750076.80
  307.49        2964.25           2346      188425.00    845331.50
  307.52        2964.50           2349      202765.00    911720.90
  307.55        2964.75           2353      222770.00   1004849.00
  307.58        2965.00           2356      238047.00   1076373.00
  307.61        2965.25           2360      257503.00   1167979.00
  307.65        2965.50           2363      272164.00   1237396.00
  307.68        2965.75           2367      288605.00   1315640.00
  307.71        2966.00           2370      302250.00   1380903.00
  307.74        2966.25           2374      319092.00   1461869.00
  307.77        2966.50           2378      329835.00   1513754.00
  307.80        2966.75           2381      333554.00   1531760.00
  307.83        2967.00           2385      334932.00   1538437.00
  307.86        2967.25           2388      335346.00   1540444.00
  307.89        2967.50           2392      334847.00   1538025.00
  307.92        2967.75           2395      334212.00   1534948.00
  307.95        2968.00           2399      328552.00   1507548.00
  307.98        2968.25           2402      319611.00   1464371.00
  308.01        2968.50           2406      303794.00   1388307.00
  308.04        2968.75           2409      289882.00   1321735.00
  308.07        2969.00           2413      271827.00   1235796.00
  308.10        2969.25           2417      254243.00   1152589.00
  308.13        2969.50           2420      240580.00   1088267.00
  308.16        2969.75           2424      222057.00   1001519.00
  308.20        2970.00           2427      207843.00    935303.40
  308.23        2970.25           2431      186595.00    836881.10
  308.26        2970.50           2434      170349.00    762076.90
  308.29        2970.75           2438      149744.00    667752.90
  308.32        2971.00           2441      134736.00    599433.80
  308.35        2971.25           2445      115807.00    513720.20
  308.38        2971.50           2449       97440.00    431030.60
  308.41        2971.75           2452       83069.00    366656.30
  308.44        2972.00           2456       62046.00    272992.50
  308.47        2972.25           2459       47057.00    206576.20
  308.50        2972.50           2463       28970.00    126831.30
  308.53        2972.75           2466       17288.00     75555.23
  308.56        2973.00           2470        5849.00     25518.65
  308.59        2973.25           2473        2990.00     13039.35
  308.62        2973.50           2477        2174.00      9479.51
  308.65        2973.75           2481        2014.00      8781.61
  308.69        2974.00           2484        2008.00      8755.44
  308.72        2974.25           2488        1925.00      8393.42
  308.75        2974.50           2491        1919.00      8367.25
  308.78        2974.75           2495        1904.00      8301.82
  308.81        2975.00           2498        1872.00      8162.25
  308.84        2975.25           2502        1893.00      8253.84
  308.87        2975.50           2505        1826.00      7961.61
  308.90        2975.75           2509        1828.00      7970.34
  308.93        2976.00           2512        1806.00      7874.38
  308.96        2976.25           2516        1777.00      7747.90
  308.99        2976.50           2520        1771.00      7721.73
  309.02        2976.75           2523        1709.00      7451.32
  309.05        2977.00           2527        1680.00      7324.84
  309.08        2977.25           2530        1683.00      7337.93
  309.11        2977.50           2534        1718.00      7490.57
  309.14        2977.75           2537        1698.00      7403.35
  309.17        2978.00           2541        1658.00      7228.89
  309.21        2978.25           2544        1686.00      7351.01
  309.24        2978.50           2548        1634.00      7124.22
  309.27        2978.75           2552        1630.00      7106.77
  309.30        2979.00           2555        1647.00      7180.92
  309.33        2979.25           2559        1628.00      7098.05
  309.36        2979.50           2562        1614.00      7036.99
  309.39        2979.75           2566        1616.00      7045.72
  309.42        2980.00           2569        1570.00      6845.10
  309.45        2980.25           2573        1610.00      7019.55
  309.48        2980.50           2577        1570.00      6845.10
  309.51        2980.75           2580        1589.00      6927.96
  309.54        2981.00           2584        1562.00      6810.21
  309.57        2981.25           2587        1546.00      6740.43
  309.60        2981.50           2591        1549.00      6753.51
  309.63        2981.75           2594        1536.00      6696.82
  309.66        2982.00           2598        1533.00      6683.73
  309.69        2982.25           2601        1525.00      6648.84
  309.72        2982.50           2605        1538.00      6705.54
  309.76        2982.75           2609        1507.00      6570.34
  309.79        2983.00           2612        1511.00      6587.79
  309.82        2983.25           2616        1501.00      6544.18
  309.85        2983.50           2619        1516.00      6609.59
  309.88        2983.75           2623        1499.00      6535.45
  309.91        2984.00           2626        1473.00      6422.07
HS scan finished at 05:10:08
end
************************************************************
  HS Scan of (1) Internal mercury lamp
************************************************************
Integration time is 0.2294 seconds per sample
dh300119Reading 51.44 .94 2.76pr1000
************************************************************
Dead Time -------------------------  3.4E-08 
Number of Cycles Used -------------  4 
Starting Wavelength (Angstroms) ---  2950 
Final Wavelength (Angstoms) -------  2984 
Wavelength Increment (Angstroms) --  .25 
Filter Wheel #1 Position ---------- (1) Ground quartz diffuser (ND=2.32)
Filter Wheel #2 Position ---------- (1) Neutral Density 0.494



************************************************************
HS scan start time = 17:37:28
Dark Count =  .6 


Time (GMT)  Wavelength (Ang)  Step Number  Raw Counts  Counts/Second

 1058.36        2950.00           2144         924.00      4025.83
 1058.55        2950.25           2147         912.00      3973.51
 1058.59        2950.50           2151         915.00      3986.59
 1058.62        2950.75           2155         957.00      4169.73
 1058.65        2951.00           2158         912.00      3973.51
 1058.68        2951.25           2162         935.00      4073.80
 1058.71        2951.50           2165         925.00      4030.20
 1058.74        2951.75           2169         948.00      4130.48
 1058.77        2952.00           2172         919.00      4004.03
 1058.80        2952.25           2176         934.00      4069.44
 1058.83        2952.50           2179         944.00      4113.04
 1058.86        2952.75           2183         923.00      4021.47
 1058.89        2953.00           2186         943.00      4108.68
 1058.92        2953.25           2190         933.00      4065.08
 1058.95        2953.50           2193         947.00      4126.12
 1058.98        2953.75           2197         966.00      4208.97
 1059.01        2954.00           2200         957.00      4169.73
 1059.04        2954.25           2204         944.00      4113.04
 1059.08        2954.50           2208         956.00      4165.37
 1059.11        2954.75           2211         975.00      4248.22
 1059.14        2955.00           2215         973.00      4239.50
 1059.17        2955.25           2218         967.00      4213.33
 1059.20        2955.50           2222         975.00      4248.22
 1059.23        2955.75           2225         975.00      4248.22
 1059.26        2956.00           2229         988.00      4304.90
 1059.29        2956.25           2232         990.00      4313.62
 1059.32        2956.50           2236         985.00      4291.82
 1059.35        2956.75           2239        1014.00      4418.28
 1059.38        2957.00           2243        1030.00      4488.04
 1059.41        2957.25           2246        1036.00      4514.21
 1059.44        2957.50           2250        1022.00      4453.16
 1059.47        2957.75           2254        1029.00      4483.68
 1059.50        2958.00           2257        1034.00      4505.49
 1059.53        2958.25           2261        1051.00      4579.61
 1059.56        2958.50           2264        1087.00      4736.60
 1059.60        2958.75           2268        1072.00      4671.19
 1059.63        2959.00           2271        1107.00      4823.81
 1059.66        2959.25           2275        1067.00      4649.38
 1059.69        2959.50           2278        1101.00      4797.64
 1059.72        2959.75           2282        1131.00      4928.46
 1059.75        2960.00           2285        1124.00      4897.94
 1059.78        2960.25           2289        1128.00      4915.38
 1059.81        2960.50           2293        1125.00      4902.30
 1059.84        2960.75           2296        1171.00      5102.89
 1059.87        2961.00           2300        1199.00      5224.99
 1059.90        2961.25           2303        1320.00      5752.65
 1059.93        2961.50           2307        2506.00     10925.59
 1059.96        2961.75           2310        6766.00     29521.34
 1059.99        2962.00           2314       15853.00     69266.69
 1060.02        2962.25           2317       23355.00    102160.70
 1060.05        2962.50           2321       35512.00    155622.50
 1060.08        2962.75           2324       45734.00    200726.20
 1060.12        2963.00           2328       59795.00    262996.80
 1060.15        2963.25           2331       70178.00    309149.70
 1060.18        2963.50           2335       83720.00    369564.00
 1060.21        2963.75           2339       97056.00    429304.50
 1060.24        2964.00           2342      107740.00    477342.00
 1060.27        2964.25           2346      121650.00    540122.20
 1060.30        2964.50           2349      132449.00    589048.80
 1060.33        2964.75           2353      146701.00    653872.40
 1060.36        2965.00           2356      156343.00    697892.40
 1060.39        2965.25           2360      169021.00    755976.90
 1060.42        2965.50           2363      179213.00    802840.80
 1060.45        2965.75           2367      191664.00    860298.10
 1060.48        2966.00           2370      200651.00    901912.30
 1060.51        2966.25           2374      212280.00    955938.20
 1060.54        2966.50           2378      223427.00   1007915.00
 1060.57        2966.75           2381      227474.00   1026832.00
 1060.60        2967.00           2385      229404.00   1035862.00
 1060.64        2967.25           2388      230068.00   1038970.00
 1060.67        2967.50           2392      229838.00   1037894.00
 1060.70        2967.75           2395      229658.00   1037051.00
 1060.73        2968.00           2399      227596.00   1027403.00
 1060.76        2968.25           2402      221786.00   1000252.00
 1060.79        2968.50           2406      210912.00    949572.20
 1060.82        2968.75           2409      202442.00    910219.80
 1060.85        2969.00           2413      190123.00    853174.50
 1060.88        2969.25           2417      177495.00    794930.60
 1060.91        2969.50           2420      168164.00    752043.10
 1060.94        2969.75           2424      157044.00    701098.00
 1060.97        2970.00           2427      146699.00    653863.20
 1061.00        2970.25           2431      132109.00    587505.80
 1061.03        2970.50           2434      120962.00    537010.60
 1061.06        2970.75           2438      106918.00    473640.50
 1061.10        2971.00           2441       97447.00    431059.70
 1061.13        2971.25           2445       84790.00    374348.20
 1061.16        2971.50           2449       72200.00    318154.50
 1061.19        2971.75           2452       62342.00    274304.90
 1061.22        2972.00           2456       47873.00    210181.90
 1061.25        2972.25           2459       37260.00    163325.50
 1061.28        2972.50           2463       24711.00    108114.20
 1061.31        2972.75           2466       16158.00     70602.58
 1061.34        2973.00           2470        6257.00     27298.21
 1061.38        2973.25           2473        2702.00     11780.66
 1061.41        2973.50           2477        1413.00      6158.22
 1061.44        2973.75           2481        1250.00      5447.39
 1061.47        2974.00           2484        1213.00      5286.04
 1061.50        2974.25           2488        1169.00      5094.17
 1061.53        2974.50           2491        1168.00      5089.81
 1061.56        2974.75           2495        1114.00      4854.33
 1061.59        2975.00           2498        1109.00      4832.53
 1061.62        2975.25           2502        1137.00      4954.63
 1061.65        2975.50           2505        1078.00      4697.35
 1061.68        2975.75           2509        1074.00      4679.91
 1061.71        2976.00           2512        1065.00      4640.66
 1061.74        2976.25           2516        1031.00      4492.40
 1061.77        2976.50           2520        1053.00      4588.34
 1061.80        2976.75           2523        1009.00      4396.47
 1061.83        2977.00           2527        1029.00      4483.68
 1061.86        2977.25           2530         978.00      4261.30
 1061.90        2977.50           2534        1000.00      4357.23
 1061.93        2977.75           2537         972.00      4235.14
 1061.96        2978.00           2541         968.00      4217.69
 1061.99        2978.25           2544         956.00      4165.37
 1062.02        2978.50           2548         983.00      4283.10
 1062.05        2978.75           2552         945.00      4117.40
 1062.08        2979.00           2555         954.00      4156.65
 1062.11        2979.25           2559         930.00      4052.00
 1062.14        2979.50           2562         938.00      4086.88
 1062.17        2979.75           2566         920.00      4008.39
 1062.20        2980.00           2569         956.00      4165.37
 1062.25        2980.25           2573         933.00      4065.08
 1062.28        2980.50           2577         917.00      3995.31
 1062.31        2980.75           2580         926.00      4034.56
 1062.34        2981.00           2584         891.00      3881.94
 1062.37        2981.25           2587         898.00      3912.46
 1062.40        2981.50           2591         882.00      3842.70
 1062.43        2981.75           2594         914.00      3982.23
 1062.46        2982.00           2598         894.00      3895.02
 1062.49        2982.25           2601         915.00      3986.59
 1062.52        2982.50           2605         885.00      3855.78
 1062.56        2982.75           2609         896.00      3903.74
 1062.59        2983.00           2612         888.00      3868.86
 1062.62        2983.25           2616         876.00      3816.54
 1062.65        2983.50           2619         876.00      3816.54
 1062.68        2983.75           2623         859.00      3742.41
 1062.71        2984.00           2626         865.00      3768.57
HS scan finished at 17:42:56
end
