************************************************************
  HS Scan of 
************************************************************
Integration time is 0.2294 seconds per sample
dh030217Reading 51.44 .94 2.74pr1000
************************************************************
Dead Time -------------------------  3.4E-08 
Number of Cycles Used -------------  4 
Starting Wavelength (Angstroms) ---  2950 
Final Wavelength (Angstoms) -------  2984 
Wavelength Increment (Angstroms) --  .25 
Filter Wheel #1 Position ---------- (1) Ground quartz diffuser (ND=2.32)
Filter Wheel #2 Position ---------- (1) Neutral Density 0.494



************************************************************
HS scan start time = 04:55:08
Dark Count =  .6 


Time (GMT)  Wavelength (Ang)  Step Number  Raw Counts  Counts/Second

  296.03        2950.00           2144         743.00      3236.63
  296.23        2950.25           2147         738.00      3214.82
  296.26        2950.50           2151         777.00      3384.87
  296.29        2950.75           2155         765.00      3332.55
  296.32        2951.00           2158         777.00      3384.87
  296.35        2951.25           2162         778.00      3389.23
  296.38        2951.50           2165         755.00      3288.95
  296.41        2951.75           2169         752.00      3275.87
  296.44        2952.00           2172         776.00      3380.51
  296.47        2952.25           2176         759.00      3306.39
  296.50        2952.50           2179         776.00      3380.51
  296.53        2952.75           2183         747.00      3254.07
  296.56        2953.00           2186         755.00      3288.95
  296.59        2953.25           2190         752.00      3275.87
  296.62        2953.50           2193         778.00      3389.23
  296.66        2953.75           2197         772.00      3363.07
  296.69        2954.00           2200         791.00      3445.91
  296.72        2954.25           2204         790.00      3441.55
  296.75        2954.50           2208         777.00      3384.87
  296.78        2954.75           2211         804.00      3502.60
  296.81        2955.00           2215         803.00      3498.24
  296.84        2955.25           2218         783.00      3411.03
  296.87        2955.50           2222         805.00      3506.96
  296.90        2955.75           2225         809.00      3524.40
  296.93        2956.00           2229         807.00      3515.68
  296.96        2956.25           2232         833.00      3629.04
  296.99        2956.50           2236         797.00      3472.08
  297.02        2956.75           2239         835.00      3637.77
  297.05        2957.00           2243         869.00      3786.02
  297.08        2957.25           2246         863.00      3759.85
  297.11        2957.50           2250         866.00      3772.93
  297.14        2957.75           2254         869.00      3786.02
  297.18        2958.00           2257         859.00      3742.41
  297.21        2958.25           2261         869.00      3786.02
  297.24        2958.50           2264         869.00      3786.02
  297.27        2958.75           2268         905.00      3942.99
  297.30        2959.00           2271         894.00      3895.02
  297.33        2959.25           2275         900.00      3921.19
  297.36        2959.50           2278         882.00      3842.70
  297.39        2959.75           2282         923.00      4021.47
  297.42        2960.00           2285         896.00      3903.74
  297.45        2960.25           2289         938.00      4086.88
  297.48        2960.50           2293         953.00      4152.29
  297.51        2960.75           2296         981.00      4274.38
  297.54        2961.00           2300        1017.00      4431.36
  297.57        2961.25           2303        1123.00      4893.58
  297.60        2961.50           2307        2215.00      9656.18
  297.63        2961.75           2310        5918.00     25817.77
  297.66        2962.00           2314       14223.00     62129.37
  297.70        2962.25           2317       22077.00     96551.84
  297.73        2962.50           2321       32884.00    144049.00
  297.76        2962.75           2324       40957.00    179630.80
  297.79        2963.00           2328       51370.00    225654.00
  297.82        2963.25           2331       59538.00    261856.30
  297.85        2963.50           2335       71322.00    314243.70
  297.88        2963.75           2339       82565.00    364401.50
  297.91        2964.00           2342       90776.00    401142.00
  297.94        2964.25           2346      101442.00    449005.70
  297.97        2964.50           2349      109626.00    485838.20
  298.00        2964.75           2353      120239.00    533741.60
  298.03        2965.00           2356      127383.00    566076.00
  298.06        2965.25           2360      137906.00    613835.20
  298.09        2965.50           2363      145997.00    650663.50
  298.12        2965.75           2367      156164.00    697074.00
  298.15        2966.00           2370      163904.00    732505.30
  298.18        2966.25           2374      172903.00    773808.90
  298.22        2966.50           2378      178985.00    801790.80
  298.25        2966.75           2381      181408.00    812953.50
  298.28        2967.00           2385      182337.00    817235.60
  298.31        2967.25           2388      182608.00    818485.10
  298.34        2967.50           2392      182181.00    816516.50
  298.37        2967.75           2395      182347.00    817281.70
  298.40        2968.00           2399      179654.00    804872.00
  298.43        2968.25           2402      175277.00    784724.70
  298.46        2968.50           2406      167022.00    746803.00
  298.49        2968.75           2409      160055.00    714875.00
  298.52        2969.00           2413      149548.00    666856.30
  298.55        2969.25           2417      139125.00    619377.80
  298.58        2969.50           2420      131547.00    584955.80
  298.61        2969.75           2424      121574.00    539778.50
  298.64        2970.00           2427      113449.00    503075.80
  298.67        2970.25           2431      103435.00    457966.70
  298.70        2970.50           2434       95569.00    422631.20
  298.73        2970.75           2438       83263.00    367521.10
  298.77        2971.00           2441       74958.00    330446.00
  298.80        2971.25           2445       63515.00    279515.60
  298.83        2971.50           2449       52950.00    232650.00
  298.86        2971.75           2452       45773.00    200898.50
  298.89        2972.00           2456       36015.00    157838.70
  298.92        2972.25           2459       28452.00    124551.60
  298.95        2972.50           2463       17826.00     77910.56
  298.98        2972.75           2466       10628.00     46400.08
  299.01        2973.00           2470        3752.00     16362.19
  299.04        2973.25           2473        1631.00      7108.95
  299.07        2973.50           2477        1060.00      4618.86
  299.10        2973.75           2481         992.00      4322.34
  299.13        2974.00           2484         988.00      4304.90
  299.16        2974.25           2488         958.00      4174.09
  299.19        2974.50           2491         971.00      4230.77
  299.22        2974.75           2495         906.00      3947.35
  299.25        2975.00           2498         907.00      3951.71
  299.29        2975.25           2502         934.00      4069.44
  299.32        2975.50           2505         915.00      3986.59
  299.35        2975.75           2509         903.00      3934.27
  299.38        2976.00           2512         881.00      3838.34
  299.41        2976.25           2516         921.00      4012.75
  299.44        2976.50           2520         855.00      3724.97
  299.47        2976.75           2523         865.00      3768.57
  299.50        2977.00           2527         846.00      3685.73
  299.53        2977.25           2530         830.00      3615.96
  299.56        2977.50           2534         828.00      3607.24
  299.59        2977.75           2537         837.00      3646.49
  299.62        2978.00           2541         808.00      3520.04
  299.65        2978.25           2544         808.00      3520.04
  299.68        2978.50           2548         842.00      3668.29
  299.71        2978.75           2552         801.00      3489.52
  299.74        2979.00           2555         773.00      3367.43
  299.78        2979.25           2559         778.00      3389.23
  299.81        2979.50           2562         797.00      3472.08
  299.84        2979.75           2566         798.00      3476.44
  299.87        2980.00           2569         801.00      3489.52
  299.90        2980.25           2573         753.00      3280.23
  299.93        2980.50           2577         800.00      3485.16
  299.96        2980.75           2580         764.00      3328.19
  299.99        2981.00           2584         763.00      3323.83
  300.02        2981.25           2587         748.00      3258.43
  300.05        2981.50           2591         758.00      3302.03
  300.08        2981.75           2594         763.00      3323.83
  300.11        2982.00           2598         742.00      3232.26
  300.14        2982.25           2601         728.00      3171.22
  300.17        2982.50           2605         742.00      3232.26
  300.20        2982.75           2609         742.00      3232.26
  300.23        2983.00           2612         747.00      3254.07
  300.26        2983.25           2616         738.00      3214.82
  300.29        2983.50           2619         730.00      3179.94
  300.33        2983.75           2623         733.00      3193.02
  300.36        2984.00           2626         722.00      3145.06
HS scan finished at 05:00:35
end
************************************************************
  HS Scan of 
************************************************************
Integration time is 0.2294 seconds per sample
dh030217Reading 51.44 .94 2.8pr1000
************************************************************
Dead Time -------------------------  3.4E-08 
Number of Cycles Used -------------  4 
Starting Wavelength (Angstroms) ---  2950 
Final Wavelength (Angstoms) -------  2984 
Wavelength Increment (Angstroms) --  .25 
Filter Wheel #1 Position ---------- (1) Ground quartz diffuser (ND=2.32)
Filter Wheel #2 Position ---------- (1) Neutral Density 0.494



************************************************************
HS scan start time = 18:07:21
Dark Count =  .8 


Time (GMT)  Wavelength (Ang)  Step Number  Raw Counts  Counts/Second

 1088.25        2950.00           2144         732.00      3187.79
 1088.44        2950.25           2147         740.00      3222.67
 1088.47        2950.50           2151         780.00      3397.08
 1088.50        2950.75           2155         731.00      3183.43
 1088.53        2951.00           2158         749.00      3261.91
 1088.56        2951.25           2162         726.00      3161.63
 1088.59        2951.50           2165         731.00      3183.43
 1088.63        2951.75           2169         748.00      3257.55
 1088.66        2952.00           2172         740.00      3222.67
 1088.69        2952.25           2176         740.00      3222.67
 1088.72        2952.50           2179         773.00      3366.56
 1088.75        2952.75           2183         743.00      3235.75
 1088.78        2953.00           2186         735.00      3200.87
 1088.81        2953.25           2190         733.00      3192.15
 1088.84        2953.50           2193         738.00      3213.95
 1088.87        2953.75           2197         754.00      3283.71
 1088.90        2954.00           2200         736.00      3205.23
 1088.93        2954.25           2204         735.00      3200.87
 1088.96        2954.50           2208         742.00      3231.39
 1088.99        2954.75           2211         772.00      3362.20
 1089.02        2955.00           2215         742.00      3231.39
 1089.05        2955.25           2218         738.00      3213.95
 1089.08        2955.50           2222         743.00      3235.75
 1089.12        2955.75           2225         759.00      3305.52
 1089.15        2956.00           2229         785.00      3418.88
 1089.18        2956.25           2232         786.00      3423.24
 1089.21        2956.50           2236         770.00      3353.48
 1089.24        2956.75           2239         753.00      3279.35
 1089.27        2957.00           2243         809.00      3523.53
 1089.30        2957.25           2246         782.00      3405.80
 1089.33        2957.50           2250         795.00      3462.48
 1089.36        2957.75           2254         805.00      3506.09
 1089.39        2958.00           2257         791.00      3445.04
 1089.42        2958.25           2261         787.00      3427.60
 1089.45        2958.50           2264         799.00      3479.92
 1089.48        2958.75           2268         824.00      3588.93
 1089.51        2959.00           2271         831.00      3619.45
 1089.54        2959.25           2275         809.00      3523.53
 1089.57        2959.50           2278         855.00      3724.10
 1089.60        2959.75           2282         860.00      3745.90
 1089.64        2960.00           2285         873.00      3802.58
 1089.67        2960.25           2289         871.00      3793.86
 1089.70        2960.50           2293         856.00      3728.46
 1089.73        2960.75           2296         906.00      3946.48
 1089.76        2961.00           2300         928.00      4042.40
 1089.79        2961.25           2303         969.00      4221.18
 1089.82        2961.50           2307        2033.00      8861.43
 1089.85        2961.75           2310        4808.00     20970.48
 1089.88        2962.00           2314       11126.00     48577.12
 1089.91        2962.25           2317       16836.00     73571.78
 1089.94        2962.50           2321       25609.00    112057.30
 1089.97        2962.75           2324       32407.00    141948.50
 1090.00        2963.00           2328       40594.00    178028.10
 1090.03        2963.25           2331       46703.00    205008.10
 1090.06        2963.50           2335       56293.00    247462.20
 1090.09        2963.75           2339       65837.00    289835.10
 1090.12        2964.00           2342       72993.00    321686.70
 1090.16        2964.25           2346       81563.00    359923.50
 1090.19        2964.50           2349       88200.00    389604.70
 1090.22        2964.75           2353       97061.00    429326.10
 1090.25        2965.00           2356      103532.00    458402.20
 1090.28        2965.25           2360      111559.00    494550.60
 1090.31        2965.50           2363      117855.00    522966.50
 1090.34        2965.75           2367      126040.00    559991.10
 1090.37        2966.00           2370      131497.00    584728.10
 1090.40        2966.25           2374      139865.00    622742.60
 1090.43        2966.50           2378      146276.00    651934.20
 1090.46        2966.75           2381      147807.00    658914.10
 1090.49        2967.00           2385      148771.00    663310.70
 1090.52        2967.25           2388      148196.00    660688.10
 1090.55        2967.50           2392      148326.00    661281.00
 1090.58        2967.75           2395      147962.00    659621.00
 1090.61        2968.00           2399      146178.00    651487.60
 1090.64        2968.25           2402      142200.00    633368.00
 1090.68        2968.50           2406      135453.00    602687.20
 1090.71        2968.75           2409      128974.00    573285.90
 1090.74        2969.00           2413      120076.00    533003.80
 1090.77        2969.25           2417      112052.00    496773.60
 1090.80        2969.50           2420      105613.00    467765.00
 1090.83        2969.75           2424       96934.00    428756.00
 1090.86        2970.00           2427       90720.00    400890.20
 1090.89        2970.25           2431       81292.00    358712.80
 1090.92        2970.50           2434       75297.00    331956.70
 1090.95        2970.75           2438       67349.00    296559.40
 1090.98        2971.00           2441       61010.00    268389.20
 1091.01        2971.25           2445       52176.00    229221.50
 1091.04        2971.50           2449       43133.00    189235.40
 1091.07        2971.75           2452       35848.00    157102.00
 1091.10        2972.00           2456       27875.00    122014.30
 1091.13        2972.25           2459       22351.00     97753.30
 1091.16        2972.50           2463       14595.00     63757.07
 1091.19        2972.75           2466        8527.00     37214.45
 1091.23        2973.00           2470        2778.00     12111.35
 1091.26        2973.25           2473        1363.00      5939.30
 1091.29        2973.50           2477         948.00      4129.61
 1091.32        2973.75           2481         929.00      4046.76
 1091.35        2974.00           2484         899.00      3915.95
 1091.39        2974.25           2488         891.00      3881.07
 1091.42        2974.50           2491         866.00      3772.06
 1091.45        2974.75           2495         909.00      3959.56
 1091.48        2975.00           2498         851.00      3706.66
 1091.51        2975.25           2502         807.00      3514.81
 1091.54        2975.50           2505         820.00      3571.49
 1091.57        2975.75           2509         809.00      3523.53
 1091.60        2976.00           2512         819.00      3567.13
 1091.63        2976.25           2516         795.00      3462.48
 1091.66        2976.50           2520         783.00      3410.16
 1091.69        2976.75           2523         810.00      3527.89
 1091.72        2977.00           2527         774.00      3370.92
 1091.75        2977.25           2530         767.00      3340.40
 1091.78        2977.50           2534         773.00      3366.56
 1091.81        2977.75           2537         779.00      3392.72
 1091.84        2978.00           2541         782.00      3405.80
 1091.87        2978.25           2544         733.00      3192.15
 1091.91        2978.50           2548         750.00      3266.27
 1091.94        2978.75           2552         749.00      3261.91
 1091.97        2979.00           2555         736.00      3205.23
 1092.00        2979.25           2559         728.00      3170.35
 1092.03        2979.50           2562         725.00      3157.27
 1092.06        2979.75           2566         732.00      3187.79
 1092.09        2980.00           2569         728.00      3170.35
 1092.12        2980.25           2573         708.00      3083.15
 1092.15        2980.50           2577         690.00      3004.67
 1092.18        2980.75           2580         705.00      3070.07
 1092.21        2981.00           2584         687.00      2991.59
 1092.24        2981.25           2587         696.00      3030.83
 1092.27        2981.50           2591         685.00      2982.87
 1092.30        2981.75           2594         694.00      3022.11
 1092.33        2982.00           2598         700.00      3048.27
 1092.36        2982.25           2601         696.00      3030.83
 1092.39        2982.50           2605         683.00      2974.15
 1092.43        2982.75           2609         693.00      3017.75
 1092.46        2983.00           2612         694.00      3022.11
 1092.49        2983.25           2616         675.00      2939.27
 1092.52        2983.50           2619         660.00      2873.86
 1092.55        2983.75           2623         673.00      2930.55
 1092.58        2984.00           2626         674.00      2934.90
HS scan finished at 18:12:48
end
