************************************************************
  HS Scan of 
************************************************************
Integration time is 0.2294 seconds per sample
dh160217Reading 51.44 .94 2.74pr1000
************************************************************
Dead Time -------------------------  3.4E-08 
Number of Cycles Used -------------  4 
Starting Wavelength (Angstroms) ---  2950 
Final Wavelength (Angstoms) -------  2984 
Wavelength Increment (Angstroms) --  .25 
Filter Wheel #1 Position ---------- (1) Ground quartz diffuser (ND=2.32)
Filter Wheel #2 Position ---------- (1) Neutral Density 0.494



************************************************************
HS scan start time = 04:33:30
Dark Count =  .4 


Time (GMT)  Wavelength (Ang)  Step Number  Raw Counts  Counts/Second

  274.40        2950.00           2144         825.00      3595.03
  274.59        2950.25           2147         782.00      3407.54
  274.62        2950.50           2151         840.00      3660.44
  274.65        2950.75           2155         795.00      3464.23
  274.68        2951.00           2158         801.00      3490.39
  274.72        2951.25           2162         833.00      3629.92
  274.75        2951.50           2165         781.00      3403.18
  274.78        2951.75           2169         833.00      3629.92
  274.81        2952.00           2172         793.00      3455.51
  274.84        2952.25           2176         823.00      3586.31
  274.87        2952.50           2179         822.00      3581.95
  274.90        2952.75           2183         808.00      3520.91
  274.93        2953.00           2186         804.00      3503.47
  274.96        2953.25           2190         831.00      3621.20
  274.99        2953.50           2193         813.00      3542.71
  275.02        2953.75           2197         837.00      3647.36
  275.05        2954.00           2200         836.00      3643.00
  275.08        2954.25           2204         837.00      3647.36
  275.11        2954.50           2208         816.00      3555.79
  275.14        2954.75           2211         831.00      3621.20
  275.17        2955.00           2215         836.00      3643.00
  275.20        2955.25           2218         854.00      3721.48
  275.24        2955.50           2222         858.00      3738.92
  275.27        2955.75           2225         856.00      3730.20
  275.30        2956.00           2229         899.00      3917.70
  275.33        2956.25           2232         887.00      3865.37
  275.36        2956.50           2236         883.00      3847.93
  275.39        2956.75           2239         904.00      3939.50
  275.42        2957.00           2243         885.00      3856.65
  275.45        2957.25           2246         904.00      3939.50
  275.48        2957.50           2250         914.00      3983.10
  275.51        2957.75           2254         917.00      3996.18
  275.54        2958.00           2257         922.00      4017.99
  275.57        2958.25           2261         942.00      4105.19
  275.60        2958.50           2264         970.00      4227.29
  275.63        2958.75           2268         959.00      4179.32
  275.66        2959.00           2271         960.00      4183.68
  275.69        2959.25           2275         958.00      4174.96
  275.72        2959.50           2278         952.00      4148.80
  275.75        2959.75           2282         968.00      4218.57
  275.79        2960.00           2285        1004.00      4375.54
  275.82        2960.25           2289         990.00      4314.50
  275.85        2960.50           2293        1009.00      4397.34
  275.88        2960.75           2296        1070.00      4663.34
  275.91        2961.00           2300        1130.00      4924.97
  275.94        2961.25           2303        1410.00      6146.01
  275.97        2961.50           2307        3904.00     17026.42
  276.00        2961.75           2310        9032.00     39423.34
  276.03        2962.00           2314       18858.00     82434.73
  276.06        2962.25           2317       27312.00    119541.60
  276.09        2962.50           2321       38027.00    166707.70
  276.13        2962.75           2324       46058.00    202159.00
  276.16        2963.00           2328       57491.00    252776.10
  276.19        2963.25           2331       66476.00    292678.30
  276.22        2963.50           2335       78836.00    347747.40
  276.25        2963.75           2339       90503.00    399919.80
  276.28        2964.00           2342       98686.00    436624.00
  276.31        2964.25           2346      110136.00    488137.60
  276.34        2964.50           2349      119009.00    528182.60
  276.37        2964.75           2353      130961.00    582298.30
  276.40        2965.00           2356      139820.00    622539.80
  276.43        2965.25           2360      150202.00    669841.50
  276.47        2965.50           2363      157981.00    705384.80
  276.50        2965.75           2367      168464.00    753421.00
  276.53        2966.00           2370      176702.00    791281.80
  276.56        2966.25           2374      186921.00    838384.80
  276.59        2966.50           2378      195969.00    880218.20
  276.62        2966.75           2381      198818.00    893415.70
  276.65        2967.00           2385      199810.00    898013.80
  276.68        2967.25           2388      199992.00    898857.50
  276.71        2967.50           2392      199669.00    897360.20
  276.74        2967.75           2395      199909.00    898472.80
  276.77        2968.00           2399      197924.00    889273.10
  276.80        2968.25           2402      193619.00    869341.40
  276.83        2968.50           2406      183267.00    821524.50
  276.86        2968.75           2409      175057.00    783713.70
  276.89        2969.00           2413      163658.00    731378.80
  276.92        2969.25           2417      152808.00    681739.00
  276.95        2969.50           2420      144481.00    643756.80
  276.99        2969.75           2424      133230.00    592594.50
  277.02        2970.00           2427      123022.00    546330.00
  277.05        2970.25           2431      109506.00    485298.40
  277.08        2970.50           2434      100890.00    446525.70
  277.11        2970.75           2438       89026.00    393304.60
  277.14        2971.00           2441       79341.00    350001.80
  277.17        2971.25           2445       67993.00    299426.10
  277.20        2971.50           2449       57243.00    251676.20
  277.23        2971.75           2452       48139.00    211359.10
  277.26        2972.00           2456       35683.00    156376.80
  277.29        2972.25           2459       27091.00    118570.30
  277.32        2972.50           2463       16025.00     70020.91
  277.35        2972.75           2466        8625.00     37644.49
  277.38        2973.00           2470        2980.00     12994.41
  277.41        2973.25           2473        1538.00      6704.23
  277.44        2973.50           2477        1138.00      4959.86
  277.47        2973.75           2481        1086.00      4733.11
  277.50        2974.00           2484        1033.00      4502.00
  277.54        2974.25           2488        1014.00      4419.15
  277.57        2974.50           2491         987.00      4301.41
  277.60        2974.75           2495        1010.00      4401.71
  277.63        2975.00           2498         969.00      4222.93
  277.66        2975.25           2502         968.00      4218.57
  277.69        2975.50           2505         949.00      4135.72
  277.72        2975.75           2509         932.00      4061.59
  277.75        2976.00           2512         931.00      4057.23
  277.78        2976.25           2516         938.00      4087.75
  277.81        2976.50           2520         947.00      4127.00
  277.84        2976.75           2523         918.00      4000.54
  277.87        2977.00           2527         903.00      3935.14
  277.90        2977.25           2530         894.00      3895.90
  277.93        2977.50           2534         894.00      3895.90
  277.96        2977.75           2537         888.00      3869.73
  277.99        2978.00           2541         877.00      3821.77
  278.02        2978.25           2544         869.00      3786.89
  278.06        2978.50           2548         863.00      3760.73
  278.09        2978.75           2552         855.00      3725.84
  278.12        2979.00           2555         836.00      3643.00
  278.15        2979.25           2559         829.00      3612.48
  278.18        2979.50           2562         849.00      3699.68
  278.21        2979.75           2566         812.00      3538.35
  278.24        2980.00           2569         854.00      3721.48
  278.27        2980.25           2573         856.00      3730.20
  278.30        2980.50           2577         828.00      3608.11
  278.33        2980.75           2580         793.00      3455.51
  278.36        2981.00           2584         809.00      3525.27
  278.39        2981.25           2587         801.00      3490.39
  278.42        2981.50           2591         836.00      3643.00
  278.45        2981.75           2594         814.00      3547.07
  278.48        2982.00           2598         791.00      3446.79
  278.51        2982.25           2601         780.00      3398.82
  278.54        2982.50           2605         790.00      3442.43
  278.58        2982.75           2609         784.00      3416.26
  278.61        2983.00           2612         779.00      3394.46
  278.64        2983.25           2616         782.00      3407.54
  278.67        2983.50           2619         811.00      3533.99
  278.70        2983.75           2623         762.00      3320.34
  278.73        2984.00           2626         766.00      3337.78
HS scan finished at 04:38:57
end
************************************************************
  HS Scan of 
************************************************************
Integration time is 0.2294 seconds per sample
dh160217Reading 51.44 .94 3.15pr1000
************************************************************
Dead Time -------------------------  3.4E-08 
Number of Cycles Used -------------  4 
Starting Wavelength (Angstroms) ---  2950 
Final Wavelength (Angstoms) -------  2984 
Wavelength Increment (Angstroms) --  .25 
Filter Wheel #1 Position ---------- (1) Ground quartz diffuser (ND=2.32)
Filter Wheel #2 Position ---------- (1) Neutral Density 0.494



************************************************************
HS scan start time = 18:07:24
Dark Count =  1.4 


Time (GMT)  Wavelength (Ang)  Step Number  Raw Counts  Counts/Second

 1088.29        2950.00           2144         619.00      2692.49
 1088.49        2950.25           2147         617.00      2683.77
 1088.52        2950.50           2151         644.00      2801.49
 1088.55        2950.75           2155         593.00      2579.13
 1088.58        2951.00           2158         633.00      2753.53
 1088.61        2951.25           2162         627.00      2727.37
 1088.64        2951.50           2165         622.00      2705.57
 1088.67        2951.75           2169         631.00      2744.81
 1088.70        2952.00           2172         619.00      2692.49
 1088.73        2952.25           2176         688.00      2993.33
 1088.76        2952.50           2179         629.00      2736.09
 1088.79        2952.75           2183         640.00      2784.05
 1088.82        2953.00           2186         613.00      2666.33
 1088.85        2953.25           2190         647.00      2814.57
 1088.89        2953.50           2193         643.00      2797.13
 1088.92        2953.75           2197         643.00      2797.13
 1088.95        2954.00           2200         621.00      2701.21
 1088.98        2954.25           2204         640.00      2784.05
 1089.01        2954.50           2208         656.00      2853.81
 1089.04        2954.75           2211         648.00      2818.93
 1089.07        2955.00           2215         646.00      2810.21
 1089.10        2955.25           2218         668.00      2906.13
 1089.13        2955.50           2222         678.00      2949.73
 1089.16        2955.75           2225         637.00      2770.97
 1089.19        2956.00           2229         664.00      2888.69
 1089.22        2956.25           2232         662.00      2879.97
 1089.25        2956.50           2236         696.00      3028.21
 1089.28        2956.75           2239         682.00      2967.17
 1089.31        2957.00           2243         677.00      2945.37
 1089.34        2957.25           2246         690.00      3002.05
 1089.37        2957.50           2250         684.00      2975.89
 1089.41        2957.75           2254         739.00      3215.70
 1089.44        2958.00           2257         705.00      3067.45
 1089.47        2958.25           2261         717.00      3119.77
 1089.50        2958.50           2264         746.00      3246.22
 1089.53        2958.75           2268         722.00      3141.57
 1089.56        2959.00           2271         720.00      3132.85
 1089.59        2959.25           2275         724.00      3150.29
 1089.62        2959.50           2278         739.00      3215.70
 1089.65        2959.75           2282         732.00      3185.18
 1089.68        2960.00           2285         770.00      3350.86
 1089.71        2960.25           2289         777.00      3381.38
 1089.74        2960.50           2293         839.00      3651.72
 1089.77        2960.75           2296         811.00      3529.63
 1089.80        2961.00           2300         850.00      3699.68
 1089.83        2961.25           2303         939.00      4087.75
 1089.86        2961.50           2307        2128.00      9273.19
 1089.89        2961.75           2310        5556.00     24233.56
 1089.93        2962.00           2314       13156.00     57455.64
 1089.96        2962.25           2317       18730.00     81869.25
 1089.99        2962.50           2321       27001.00    118170.40
 1090.02        2962.75           2324       33512.00    146810.30
 1090.05        2963.00           2328       42377.00    185894.90
 1090.08        2963.25           2331       49562.00    217649.20
 1090.11        2963.50           2335       59409.00    261280.30
 1090.14        2963.75           2339       68033.00    299599.60
 1090.17        2964.00           2342       74368.00    327812.10
 1090.20        2964.25           2346       82863.00    365729.80
 1090.23        2964.50           2349       90447.00    399664.40
 1090.26        2964.75           2353       99348.00    439592.90
 1090.29        2965.00           2356      105830.00    468739.00
 1090.32        2965.25           2360      114602.00    508274.90
 1090.35        2965.50           2363      120634.00    535523.90
 1090.38        2965.75           2367      127546.00    566810.90
 1090.41        2966.00           2370      133558.00    594078.90
 1090.45        2966.25           2374      142364.00    634111.80
 1090.48        2966.50           2378      149431.00    666318.90
 1090.51        2966.75           2381      152146.00    678711.20
 1090.54        2967.00           2385      153016.00    682684.50
 1090.57        2967.25           2388      153542.00    685087.20
 1090.60        2967.50           2392      153277.00    683876.60
 1090.63        2967.75           2395      153138.00    683241.60
 1090.66        2968.00           2399      152191.00    678916.60
 1090.69        2968.25           2402      148946.00    664106.30
 1090.72        2968.50           2406      141127.00    628481.60
 1090.75        2968.75           2409      134786.00    599654.90
 1090.78        2969.00           2413      126732.00    563122.90
 1090.81        2969.25           2417      118290.00    524929.00
 1090.84        2969.50           2420      112196.00    497420.30
 1090.87        2969.75           2424      103432.00    457949.70
 1090.90        2970.00           2427       96337.00    426073.80
 1090.93        2970.25           2431       85864.00    379148.40
 1090.96        2970.50           2434       79206.00    349394.60
 1091.00        2970.75           2438       69739.00    307191.80
 1091.03        2971.00           2441       63416.00    279072.30
 1091.06        2971.25           2445       54297.00    238613.30
 1091.09        2971.50           2449       45078.00    197823.90
 1091.12        2971.75           2452       37363.00    163776.10
 1091.16        2972.00           2456       28378.00    124222.80
 1091.19        2972.25           2459       21939.00     95942.81
 1091.22        2972.50           2463       13684.00     59766.49
 1091.25        2972.75           2466        7886.00     34410.77
 1091.28        2973.00           2470        2795.00     12182.90
 1091.31        2973.25           2473        1395.00      6076.23
 1091.34        2973.50           2477         880.00      3830.49
 1091.37        2973.75           2481         809.00      3520.91
 1091.40        2974.00           2484         809.00      3520.91
 1091.43        2974.25           2488         793.00      3451.15
 1091.46        2974.50           2491         793.00      3451.15
 1091.49        2974.75           2495         756.00      3289.82
 1091.52        2975.00           2498         763.00      3320.34
 1091.55        2975.25           2502         752.00      3272.38
 1091.58        2975.50           2505         723.00      3145.93
 1091.61        2975.75           2509         739.00      3215.70
 1091.64        2976.00           2512         716.00      3115.41
 1091.68        2976.25           2516         691.00      3006.41
 1091.71        2976.50           2520         674.00      2932.29
 1091.74        2976.75           2523         723.00      3145.93
 1091.77        2977.00           2527         687.00      2988.97
 1091.80        2977.25           2530         686.00      2984.61
 1091.83        2977.50           2534         659.00      2866.89
 1091.86        2977.75           2537         699.00      3041.29
 1091.89        2978.00           2541         658.00      2862.53
 1091.92        2978.25           2544         686.00      2984.61
 1091.95        2978.50           2548         653.00      2840.73
 1091.98        2978.75           2552         680.00      2958.45
 1092.01        2979.00           2555         651.00      2832.01
 1092.04        2979.25           2559         630.00      2740.45
 1092.07        2979.50           2562         642.00      2792.77
 1092.10        2979.75           2566         648.00      2818.93
 1092.13        2980.00           2569         640.00      2784.05
 1092.16        2980.25           2573         630.00      2740.45
 1092.20        2980.50           2577         647.00      2814.57
 1092.23        2980.75           2580         619.00      2692.49
 1092.26        2981.00           2584         602.00      2618.37
 1092.29        2981.25           2587         625.00      2718.65
 1092.32        2981.50           2591         600.00      2609.65
 1092.35        2981.75           2594         584.00      2539.89
 1092.38        2982.00           2598         609.00      2648.89
 1092.41        2982.25           2601         617.00      2683.77
 1092.44        2982.50           2605         588.00      2557.33
 1092.47        2982.75           2609         618.00      2688.13
 1092.50        2983.00           2612         619.00      2692.49
 1092.53        2983.25           2616         608.00      2644.53
 1092.56        2983.50           2619         583.00      2535.53
 1092.59        2983.75           2623         602.00      2618.37
 1092.62        2984.00           2626         616.00      2679.41
HS scan finished at 18:12:51
end
