************************************************************
  HS Scan of (1) Internal mercury lamp
************************************************************
Integration time is 0.2294 seconds per sample
dh110219Reading 51.44 .94 2.7pr1000
************************************************************
Dead Time -------------------------  3.4E-08 
Number of Cycles Used -------------  4 
Starting Wavelength (Angstroms) ---  2950 
Final Wavelength (Angstoms) -------  2984 
Wavelength Increment (Angstroms) --  .25 
Filter Wheel #1 Position ---------- (1) Ground quartz diffuser (ND=2.32)
Filter Wheel #2 Position ---------- (1) Neutral Density 0.494



************************************************************
HS scan start time = 04:43:30
Dark Count =  .4 


Time (GMT)  Wavelength (Ang)  Step Number  Raw Counts  Counts/Second

  284.40        2950.00           2144        1597.00      6961.54
  284.60        2950.25           2147        1624.00      7079.30
  284.63        2950.50           2151        1578.00      6878.68
  284.66        2950.75           2155        1611.00      7022.60
  284.69        2951.00           2158        1596.00      6957.18
  284.72        2951.25           2162        1590.00      6931.01
  284.75        2951.50           2165        1606.00      7000.79
  284.78        2951.75           2169        1595.00      6952.82
  284.81        2952.00           2172        1634.00      7122.91
  284.84        2952.25           2176        1659.00      7231.94
  284.87        2952.50           2179        1600.00      6974.63
  284.90        2952.75           2183        1626.00      7088.02
  284.93        2953.00           2186        1660.00      7236.30
  284.96        2953.25           2190        1630.00      7105.47
  284.99        2953.50           2193        1657.00      7223.22
  285.02        2953.75           2197        1667.00      7266.84
  285.05        2954.00           2200        1664.00      7253.75
  285.09        2954.25           2204        1687.00      7354.06
  285.12        2954.50           2208        1654.00      7210.14
  285.15        2954.75           2211        1709.00      7450.01
  285.18        2955.00           2215        1687.00      7354.06
  285.21        2955.25           2218        1708.00      7445.65
  285.24        2955.50           2222        1712.00      7463.10
  285.27        2955.75           2225        1742.00      7593.94
  285.30        2956.00           2229        1708.00      7445.65
  285.33        2956.25           2232        1713.00      7467.46
  285.36        2956.50           2236        1729.00      7537.24
  285.39        2956.75           2239        1741.00      7589.58
  285.42        2957.00           2243        1762.00      7681.17
  285.45        2957.25           2246        1810.00      7890.52
  285.48        2957.50           2250        1783.00      7772.76
  285.51        2957.75           2254        1828.00      7969.03
  285.54        2958.00           2257        1814.00      7907.97
  285.57        2958.25           2261        1835.00      7999.56
  285.61        2958.50           2264        1796.00      7829.46
  285.64        2958.75           2268        1895.00      8261.26
  285.67        2959.00           2271        1886.00      8222.00
  285.70        2959.25           2275        1891.00      8243.81
  285.73        2959.50           2278        1917.00      8357.21
  285.76        2959.75           2282        1965.00      8566.58
  285.79        2960.00           2285        1954.00      8518.60
  285.82        2960.25           2289        1977.00      8618.92
  285.85        2960.50           2293        2051.00      8941.69
  285.88        2960.75           2296        2058.00      8972.22
  285.91        2961.00           2300        2118.00      9233.94
  285.94        2961.25           2303        2367.00     10320.10
  285.97        2961.50           2307        5897.00     25726.94
  286.00        2961.75           2310       14431.00     63040.82
  286.03        2962.00           2314       31514.00    138020.20
  286.06        2962.25           2317       44799.00    196595.70
  286.09        2962.50           2321       63967.00    281525.00
  286.13        2962.75           2324       78937.00    348198.20
  286.16        2963.00           2328      101968.00    451371.20
  286.19        2963.25           2331      120340.00    534199.10
  286.22        2963.50           2335      145181.00    646945.90
  286.25        2963.75           2339      167123.00    747267.30
  286.28        2964.00           2342      183713.00    823581.50
  286.31        2964.25           2346      205917.00    926352.90
  286.34        2964.50           2349      223654.00   1008977.00
  286.37        2964.75           2353      245362.00   1110745.00
  286.40        2965.00           2356      260706.00   1183115.00
  286.43        2965.25           2360      281715.00   1282797.00
  286.46        2965.50           2363      297071.00   1356096.00
  286.49        2965.75           2367      317704.00   1455177.00
  286.52        2966.00           2370      332650.00   1527379.00
  286.55        2966.25           2374      351247.00   1617730.00
  286.58        2966.50           2378      369502.00   1706979.00
  286.61        2966.75           2381      377425.00   1745889.00
  286.65        2967.00           2385      380438.00   1760714.00
  286.68        2967.25           2388      380313.00   1760098.00
  286.71        2967.50           2392      380708.00   1762043.00
  286.74        2967.75           2395      380363.00   1760345.00
  286.77        2968.00           2399      378278.00   1750085.00
  286.80        2968.25           2402      370675.00   1712733.00
  286.83        2968.50           2406      352844.00   1625516.00
  286.86        2968.75           2409      338053.00   1553570.00
  286.89        2969.00           2413      318299.00   1458045.00
  286.92        2969.25           2417      296846.00   1355019.00
  286.95        2969.50           2420      280181.00   1275495.00
  286.98        2969.75           2424      257588.00   1168379.00
  287.01        2970.00           2427      242759.00   1098504.00
  287.04        2970.25           2431      220421.00    993881.00
  287.07        2970.50           2434      201549.00    906077.90
  287.10        2970.75           2438      176754.00    791521.10
  287.13        2971.00           2441      158767.00    708980.90
  287.17        2971.25           2445      135563.00    603188.60
  287.20        2971.50           2449      113114.00    501565.40
  287.24        2971.75           2452       94704.00    418751.50
  287.27        2972.00           2456       70419.00    310223.50
  287.30        2972.25           2459       53365.00    234489.00
  287.33        2972.50           2463       32979.00    144468.10
  287.36        2972.75           2466       20118.00     87959.27
  287.39        2973.00           2470        7309.00     31894.20
  287.42        2973.25           2473        3511.00     15311.37
  287.46        2973.50           2477        2282.00      9949.31
  287.49        2973.75           2481        2132.00      9295.00
  287.52        2974.00           2484        2067.00      9011.48
  287.55        2974.25           2488        2026.00      8832.64
  287.58        2974.50           2491        1946.00      8483.70
  287.61        2974.75           2495        1921.00      8374.66
  287.64        2975.00           2498        1901.00      8287.43
  287.67        2975.25           2502        1908.00      8317.96
  287.70        2975.50           2505        1865.00      8130.41
  287.73        2975.75           2509        1837.00      8008.28
  287.76        2976.00           2512        1845.00      8043.18
  287.79        2976.25           2516        1803.00      7859.99
  287.82        2976.50           2520        1783.00      7772.76
  287.85        2976.75           2523        1766.00      7698.61
  287.88        2977.00           2527        1762.00      7681.17
  287.91        2977.25           2530        1737.00      7572.13
  287.94        2977.50           2534        1729.00      7537.24
  287.98        2977.75           2537        1699.00      7406.40
  288.01        2978.00           2541        1699.00      7406.40
  288.04        2978.25           2544        1661.00      7240.67
  288.07        2978.50           2548        1665.00      7258.11
  288.10        2978.75           2552        1654.00      7210.14
  288.13        2979.00           2555        1617.00      7048.77
  288.16        2979.25           2559        1644.00      7166.52
  288.19        2979.50           2562        1603.00      6987.71
  288.22        2979.75           2566        1647.00      7179.61
  288.25        2980.00           2569        1574.00      6861.23
  288.28        2980.25           2573        1610.00      7018.24
  288.31        2980.50           2577        1569.00      6839.43
  288.34        2980.75           2580        1541.00      6717.31
  288.37        2981.00           2584        1562.00      6808.90
  288.40        2981.25           2587        1545.00      6734.76
  288.43        2981.50           2591        1569.00      6839.43
  288.47        2981.75           2594        1518.00      6617.01
  288.50        2982.00           2598        1591.00      6935.38
  288.53        2982.25           2601        1529.00      6664.98
  288.56        2982.50           2605        1527.00      6656.26
  288.59        2982.75           2609        1528.00      6660.62
  288.62        2983.00           2612        1536.00      6695.51
  288.65        2983.25           2616        1494.00      6512.34
  288.68        2983.50           2619        1469.00      6403.31
  288.71        2983.75           2623        1477.00      6438.20
  288.74        2984.00           2626        1483.00      6464.37
HS scan finished at 04:48:58
end
************************************************************
  HS Scan of (1) Internal mercury lamp
************************************************************
Integration time is 0.2294 seconds per sample
dh110219Reading 51.44 .94 3.07pr1000
************************************************************
Dead Time -------------------------  3.4E-08 
Number of Cycles Used -------------  4 
Starting Wavelength (Angstroms) ---  2950 
Final Wavelength (Angstoms) -------  2984 
Wavelength Increment (Angstroms) --  .25 
Filter Wheel #1 Position ---------- (1) Ground quartz diffuser (ND=2.32)
Filter Wheel #2 Position ---------- (1) Neutral Density 0.494



************************************************************
HS scan start time = 18:07:27
Dark Count =  .9 


Time (GMT)  Wavelength (Ang)  Step Number  Raw Counts  Counts/Second

 1088.35        2950.00           2144        1545.00      6732.58
 1088.54        2950.25           2147        1533.00      6680.24
 1088.58        2950.50           2151        1522.00      6632.27
 1088.61        2950.75           2155        1496.00      6518.88
 1088.64        2951.00           2158        1542.00      6719.50
 1088.67        2951.25           2162        1532.00      6675.88
 1088.70        2951.50           2165        1497.00      6523.24
 1088.73        2951.75           2169        1571.00      6845.97
 1088.76        2952.00           2172        1527.00      6654.08
 1088.79        2952.25           2176        1549.00      6750.02
 1088.82        2952.50           2179        1536.00      6693.33
 1088.85        2952.75           2183        1532.00      6675.88
 1088.88        2953.00           2186        1588.00      6920.11
 1088.91        2953.25           2190        1585.00      6907.03
 1088.94        2953.50           2193        1590.00      6928.83
 1088.97        2953.75           2197        1560.00      6798.00
 1089.00        2954.00           2200        1601.00      6976.81
 1089.03        2954.25           2204        1596.00      6955.00
 1089.06        2954.50           2208        1597.00      6959.36
 1089.10        2954.75           2211        1617.00      7046.59
 1089.13        2955.00           2215        1599.00      6968.09
 1089.16        2955.25           2218        1618.00      7050.95
 1089.19        2955.50           2222        1612.00      7024.78
 1089.22        2955.75           2225        1623.00      7072.76
 1089.25        2956.00           2229        1648.00      7181.79
 1089.28        2956.25           2232        1640.00      7146.90
 1089.31        2956.50           2236        1644.00      7164.34
 1089.34        2956.75           2239        1677.00      7308.27
 1089.37        2957.00           2243        1687.00      7351.88
 1089.40        2957.25           2246        1713.00      7465.28
 1089.43        2957.50           2250        1695.00      7386.77
 1089.46        2957.75           2254        1716.00      7478.36
 1089.49        2958.00           2257        1764.00      7687.71
 1089.52        2958.25           2261        1741.00      7587.40
 1089.55        2958.50           2264        1783.00      7770.58
 1089.58        2958.75           2268        1831.00      7979.93
 1089.62        2959.00           2271        1811.00      7892.70
 1089.65        2959.25           2275        1880.00      8193.65
 1089.68        2959.50           2278        1849.00      8058.44
 1089.71        2959.75           2282        1870.00      8150.04
 1089.74        2960.00           2285        1880.00      8193.65
 1089.77        2960.25           2289        1883.00      8206.74
 1089.80        2960.50           2293        1958.00      8533.86
 1089.83        2960.75           2296        2013.00      8773.76
 1089.86        2961.00           2300        2072.00      9031.11
 1089.89        2961.25           2303        2395.00     10440.06
 1089.93        2961.50           2307        5940.00     25912.53
 1089.96        2961.75           2310       15475.00     67609.90
 1089.99        2962.00           2314       33944.00    148714.80
 1090.02        2962.25           2317       49525.00    217487.70
 1090.05        2962.50           2321       70910.00    312407.60
 1090.08        2962.75           2324       87631.00    387057.30
 1090.11        2963.00           2328      109640.00    485900.00
 1090.14        2963.25           2331      126129.00    560393.70
 1090.17        2963.50           2335      148702.00    662995.50
 1090.20        2963.75           2339      173296.00    775614.00
 1090.23        2964.00           2342      192395.00    863677.10
 1090.26        2964.25           2346      217792.00    981615.10
 1090.29        2964.50           2349      236638.00   1069758.00
 1090.32        2964.75           2353      259860.00   1179113.00
 1090.35        2965.00           2356      276096.00   1256066.00
 1090.38        2965.25           2360      297044.00   1355964.00
 1090.42        2965.50           2363      312804.00   1431583.00
 1090.45        2965.75           2367      337219.00   1549522.00
 1090.48        2966.00           2370      353668.00   1629532.00
 1090.51        2966.25           2374      372741.00   1722871.00
 1090.54        2966.50           2378      389628.00   1806024.00
 1090.57        2966.75           2381      396122.00   1838131.00
 1090.60        2967.00           2385      399243.00   1853587.00
 1090.63        2967.25           2388      400185.00   1858256.00
 1090.66        2967.50           2392      400073.00   1857700.00
 1090.69        2967.75           2395      398594.00   1850372.00
 1090.72        2968.00           2399      394202.00   1828631.00
 1090.75        2968.25           2402      383941.00   1777966.00
 1090.78        2968.50           2406      366048.00   1690047.00
 1090.81        2968.75           2409      351840.00   1620618.00
 1090.84        2969.00           2413      330431.00   1516634.00
 1090.87        2969.25           2417      308345.00   1410147.00
 1090.90        2969.50           2420      290167.00   1323092.00
 1090.93        2969.75           2424      266500.00   1210534.00
 1090.97        2970.00           2427      248622.00   1126088.00
 1091.00        2970.25           2431      224838.00   1014506.00
 1091.03        2970.50           2434      207145.00    932055.80
 1091.06        2970.75           2438      183089.00    820701.50
 1091.09        2971.00           2441      163646.00    731321.50
 1091.12        2971.25           2445      139254.00    619963.10
 1091.15        2971.50           2449      115115.00    510592.70
 1091.18        2971.75           2452       97379.00    430753.10
 1091.21        2972.00           2456       75031.00    330770.10
 1091.24        2972.25           2459       57703.00    253714.10
 1091.27        2972.50           2463       36378.00    159436.90
 1091.30        2972.75           2466       21088.00     92211.49
 1091.33        2973.00           2470        6894.00     30079.13
 1091.36        2973.25           2473        3211.00     14000.12
 1091.39        2973.50           2477        2256.00      9833.72
 1091.42        2973.75           2481        2046.00      8917.70
 1091.45        2974.00           2484        2011.00      8765.04
 1091.49        2974.25           2488        2019.00      8799.93
 1091.52        2974.50           2491        1992.00      8682.16
 1091.55        2974.75           2495        1931.00      8416.10
 1091.58        2975.00           2498        1881.00      8198.01
 1091.61        2975.25           2502        1839.00      8014.83
 1091.64        2975.50           2505        1803.00      7857.81
 1091.67        2975.75           2509        1787.00      7788.03
 1091.70        2976.00           2512        1773.00      7726.96
 1091.73        2976.25           2516        1779.00      7753.13
 1091.76        2976.50           2520        1746.00      7609.21
 1091.79        2976.75           2523        1712.00      7460.92
 1091.82        2977.00           2527        1650.00      7190.51
 1091.85        2977.25           2530        1727.00      7526.34
 1091.88        2977.50           2534        1674.00      7295.18
 1091.91        2977.75           2537        1658.00      7225.40
 1091.94        2978.00           2541        1616.00      7042.23
 1091.98        2978.25           2544        1635.00      7125.09
 1092.01        2978.50           2548        1640.00      7146.90
 1092.04        2978.75           2552        1604.00      6989.89
 1092.07        2979.00           2555        1597.00      6959.36
 1092.10        2979.25           2559        1594.00      6946.28
 1092.13        2979.50           2562        1542.00      6719.50
 1092.16        2979.75           2566        1528.00      6658.44
 1092.19        2980.00           2569        1515.00      6601.74
 1092.22        2980.25           2573        1518.00      6614.83
 1092.25        2980.50           2577        1528.00      6658.44
 1092.28        2980.75           2580        1503.00      6549.41
 1092.31        2981.00           2584        1530.00      6667.16
 1092.34        2981.25           2587        1482.00      6457.83
 1092.37        2981.50           2591        1533.00      6680.24
 1092.40        2981.75           2594        1518.00      6614.83
 1092.43        2982.00           2598        1501.00      6540.69
 1092.46        2982.25           2601        1537.00      6697.69
 1092.49        2982.50           2605        1512.00      6588.66
 1092.53        2982.75           2609        1497.00      6523.24
 1092.56        2983.00           2612        1494.00      6510.16
 1092.59        2983.25           2616        1466.00      6388.05
 1092.62        2983.50           2619        1438.00      6265.94
 1092.65        2983.75           2623        1480.00      6449.10
 1092.68        2984.00           2626        1447.00      6305.19
HS scan finished at 18:12:54
end
