************************************************************
  HS Scan of (1) Internal mercury lamp
************************************************************
Integration time is 0.2294 seconds per sample
dh130219Reading 51.44 .94 2.92pr1000
************************************************************
Dead Time -------------------------  3.4E-08 
Number of Cycles Used -------------  4 
Starting Wavelength (Angstroms) ---  2950 
Final Wavelength (Angstoms) -------  2984 
Wavelength Increment (Angstroms) --  .25 
Filter Wheel #1 Position ---------- (1) Ground quartz diffuser (ND=2.32)
Filter Wheel #2 Position ---------- (1) Neutral Density 0.494



************************************************************
HS scan start time = 04:39:59
Dark Count =  .8 


Time (GMT)  Wavelength (Ang)  Step Number  Raw Counts  Counts/Second

  280.88        2950.00           2144        1587.00      6916.19
  281.08        2950.25           2147        1602.00      6981.60
  281.11        2950.50           2151        1602.00      6981.60
  281.14        2950.75           2155        1551.00      6759.18
  281.17        2951.00           2158        1538.00      6702.49
  281.20        2951.25           2162        1560.00      6798.43
  281.23        2951.50           2165        1583.00      6898.74
  281.26        2951.75           2169        1605.00      6994.69
  281.29        2952.00           2172        1597.00      6959.80
  281.32        2952.25           2176        1588.00      6920.55
  281.35        2952.50           2179        1605.00      6994.69
  281.38        2952.75           2183        1583.00      6898.74
  281.41        2953.00           2186        1612.00      7025.22
  281.44        2953.25           2190        1623.00      7073.19
  281.47        2953.50           2193        1632.00      7112.44
  281.50        2953.75           2197        1592.00      6937.99
  281.53        2954.00           2200        1656.00      7217.12
  281.56        2954.25           2204        1657.00      7221.48
  281.60        2954.50           2208        1655.00      7212.75
  281.63        2954.75           2211        1643.00      7160.42
  281.66        2955.00           2215        1659.00      7230.20
  281.69        2955.25           2218        1677.00      7308.70
  281.72        2955.50           2222        1674.00      7295.62
  281.75        2955.75           2225        1714.00      7470.07
  281.78        2956.00           2229        1719.00      7491.88
  281.81        2956.25           2232        1676.00      7304.34
  281.84        2956.50           2236        1736.00      7566.03
  281.87        2956.75           2239        1708.00      7443.91
  281.90        2957.00           2243        1765.00      7692.51
  281.93        2957.25           2246        1807.00      7875.69
  281.96        2957.50           2250        1797.00      7832.08
  281.99        2957.75           2254        1796.00      7827.72
  282.02        2958.00           2257        1802.00      7853.88
  282.05        2958.25           2261        1820.00      7932.39
  282.08        2958.50           2264        1820.00      7932.39
  282.12        2958.75           2268        1809.00      7884.42
  282.15        2959.00           2271        1855.00      8085.05
  282.18        2959.25           2275        1887.00      8224.62
  282.21        2959.50           2278        1932.00      8420.89
  282.24        2959.75           2282        1957.00      8529.94
  282.27        2960.00           2285        1977.00      8617.17
  282.30        2960.25           2289        1984.00      8647.70
  282.33        2960.50           2293        2041.00      8896.33
  282.36        2960.75           2296        2028.00      8839.62
  282.39        2961.00           2300        2131.00      9288.90
  282.42        2961.25           2303        2521.00     10990.16
  282.45        2961.50           2307        5425.00     23664.19
  282.48        2961.75           2310       12062.00     52671.40
  282.51        2962.00           2314       29626.00    129712.90
  282.54        2962.25           2317       47089.00    206714.50
  282.57        2962.50           2321       70518.00    310662.50
  282.60        2962.75           2324       87216.00    385200.40
  282.64        2963.00           2328      109789.00    486571.90
  282.67        2963.25           2331      125981.00    559723.80
  282.70        2963.50           2335      150591.00    671615.00
  282.73        2963.75           2339      176313.00    789490.00
  282.76        2964.00           2342      194018.00    871185.80
  282.79        2964.25           2346      216484.00    975518.10
  282.82        2964.50           2349      235285.00   1063412.00
  282.85        2964.75           2353      260665.00   1182919.00
  282.88        2965.00           2356      279239.00   1271011.00
  282.91        2965.25           2360      301977.00   1379591.00
  282.94        2965.50           2363      318881.00   1460848.00
  282.97        2965.75           2367      340767.00   1566743.00
  283.00        2966.00           2370      358176.00   1651539.00
  283.03        2966.25           2374      381665.00   1766753.00
  283.06        2966.50           2378      396657.00   1840780.00
  283.09        2966.75           2381      401472.00   1864637.00
  283.12        2967.00           2385      403768.00   1876027.00
  283.16        2967.25           2388      403700.00   1875689.00
  283.19        2967.50           2392      404564.00   1879978.00
  283.22        2967.75           2395      402848.00   1871462.00
  283.25        2968.00           2399      397286.00   1843894.00
  283.28        2968.25           2402      385623.00   1786259.00
  283.31        2968.50           2406      366626.00   1692879.00
  283.34        2968.75           2409      351867.00   1620750.00
  283.37        2969.00           2413      331512.00   1521867.00
  283.40        2969.25           2417      310632.00   1421138.00
  283.43        2969.50           2420      294594.00   1344245.00
  283.46        2969.75           2424      271457.00   1234037.00
  283.49        2970.00           2427      251496.00   1139631.00
  283.52        2970.25           2431      224282.00   1011909.00
  283.55        2970.50           2434      205148.00    922779.60
  283.58        2970.75           2438      181305.00    812477.80
  283.61        2971.00           2441      164218.00    733943.60
  283.64        2971.25           2445      140394.00    625149.10
  283.68        2971.50           2449      115681.00    513148.20
  283.71        2971.75           2452       95845.00    423868.70
  283.74        2972.00           2456       72135.00    317864.10
  283.77        2972.25           2459       54671.00    240273.10
  283.80        2972.50           2463       32511.00    142406.20
  283.83        2972.75           2466       17862.00     78067.45
  283.86        2973.00           2470        6899.00     30101.42
  283.89        2973.25           2473        3531.00     15396.90
  283.92        2973.50           2477        2223.00      9690.20
  283.95        2973.75           2481        2151.00      9376.14
  283.98        2974.00           2484        2060.00      8979.20
  284.01        2974.25           2488        2018.00      8796.00
  284.04        2974.50           2491        1990.00      8673.87
  284.07        2974.75           2495        1936.00      8438.34
  284.11        2975.00           2498        1926.00      8394.72
  284.14        2975.25           2502        1869.00      8146.11
  284.17        2975.50           2505        1886.00      8220.26
  284.20        2975.75           2509        1882.00      8202.81
  284.23        2976.00           2512        1835.00      7997.82
  284.26        2976.25           2516        1816.00      7914.95
  284.29        2976.50           2520        1783.00      7771.02
  284.32        2976.75           2523        1807.00      7875.69
  284.35        2977.00           2527        1756.00      7653.26
  284.38        2977.25           2530        1781.00      7762.29
  284.42        2977.50           2534        1683.00      7334.87
  284.45        2977.75           2537        1667.00      7265.09
  284.48        2978.00           2541        1690.00      7365.40
  284.51        2978.25           2544        1682.00      7330.51
  284.54        2978.50           2548        1680.00      7321.79
  284.57        2978.75           2552        1643.00      7160.42
  284.60        2979.00           2555        1652.00      7199.67
  284.63        2979.25           2559        1612.00      7025.22
  284.66        2979.50           2562        1602.00      6981.60
  284.69        2979.75           2566        1619.00      7055.75
  284.72        2980.00           2569        1569.00      6837.68
  284.75        2980.25           2573        1609.00      7012.13
  284.78        2980.50           2577        1599.00      6968.52
  284.81        2980.75           2580        1578.00      6876.94
  284.84        2981.00           2584        1526.00      6650.15
  284.87        2981.25           2587        1561.00      6802.79
  284.91        2981.50           2591        1546.00      6737.38
  284.94        2981.75           2594        1559.00      6794.07
  284.97        2982.00           2598        1521.00      6628.35
  285.00        2982.25           2601        1510.00      6580.37
  285.03        2982.50           2605        1538.00      6702.49
  285.06        2982.75           2609        1479.00      6445.18
  285.09        2983.00           2612        1496.00      6519.32
  285.12        2983.25           2616        1530.00      6667.60
  285.15        2983.50           2619        1501.00      6541.12
  285.18        2983.75           2623        1496.00      6519.32
  285.21        2984.00           2626        1470.00      6405.93
HS scan finished at 04:45:26
end
************************************************************
  HS Scan of (1) Internal mercury lamp
************************************************************
Integration time is 0.2294 seconds per sample
dh130219Reading 51.44 .94 3.01pr1000
************************************************************
Dead Time -------------------------  3.4E-08 
Number of Cycles Used -------------  4 
Starting Wavelength (Angstroms) ---  2950 
Final Wavelength (Angstoms) -------  2984 
Wavelength Increment (Angstroms) --  .25 
Filter Wheel #1 Position ---------- (1) Ground quartz diffuser (ND=2.32)
Filter Wheel #2 Position ---------- (1) Neutral Density 0.494



************************************************************
HS scan start time = 18:07:28
Dark Count =  1.1 


Time (GMT)  Wavelength (Ang)  Step Number  Raw Counts  Counts/Second

 1088.36        2950.00           2144        1496.00      6518.01
 1088.56        2950.25           2147        1512.00      6587.79
 1088.59        2950.50           2151        1544.00      6727.35
 1088.62        2950.75           2155        1528.00      6657.57
 1088.65        2951.00           2158        1494.00      6509.29
 1088.68        2951.25           2162        1552.00      6762.24
 1088.71        2951.50           2165        1513.00      6592.15
 1088.74        2951.75           2169        1494.00      6509.29
 1088.77        2952.00           2172        1556.00      6779.68
 1088.80        2952.25           2176        1550.00      6753.51
 1088.83        2952.50           2179        1558.00      6788.40
 1088.86        2952.75           2183        1541.00      6714.26
 1088.89        2953.00           2186        1569.00      6836.38
 1088.92        2953.25           2190        1570.00      6840.74
 1088.96        2953.50           2193        1589.00      6923.60
 1088.99        2953.75           2197        1588.00      6919.24
 1089.02        2954.00           2200        1569.00      6836.38
 1089.05        2954.25           2204        1605.00      6993.38
 1089.08        2954.50           2208        1612.00      7023.91
 1089.11        2954.75           2211        1617.00      7045.72
 1089.14        2955.00           2215        1561.00      6801.49
 1089.17        2955.25           2218        1632.00      7111.14
 1089.20        2955.50           2222        1624.00      7076.24
 1089.23        2955.75           2225        1671.00      7281.23
 1089.26        2956.00           2229        1645.00      7167.83
 1089.29        2956.25           2232        1664.00      7250.70
 1089.32        2956.50           2236        1630.00      7102.41
 1089.36        2956.75           2239        1613.00      7028.27
 1089.39        2957.00           2243        1644.00      7163.47
 1089.42        2957.25           2246        1728.00      7529.83
 1089.45        2957.50           2250        1755.00      7647.59
 1089.48        2957.75           2254        1722.00      7503.66
 1089.51        2958.00           2257        1715.00      7473.13
 1089.54        2958.25           2261        1773.00      7726.09
 1089.57        2958.50           2264        1742.00      7590.89
 1089.60        2958.75           2268        1770.00      7713.01
 1089.63        2959.00           2271        1763.00      7682.48
 1089.66        2959.25           2275        1770.00      7713.01
 1089.69        2959.50           2278        1798.00      7835.13
 1089.72        2959.75           2282        1854.00      8079.38
 1089.75        2960.00           2285        1806.00      7870.02
 1089.78        2960.25           2289        1906.00      8306.18
 1089.81        2960.50           2293        1979.00      8624.59
 1089.84        2960.75           2296        1975.00      8607.14
 1089.88        2961.00           2300        2018.00      8794.70
 1089.91        2961.25           2303        2200.00      9588.57
 1089.94        2961.50           2307        3825.00     16678.59
 1089.97        2961.75           2310        9964.00     43494.53
 1090.00        2962.00           2314       26340.00    115267.40
 1090.03        2962.25           2317       41132.00    180400.90
 1090.06        2962.50           2321       61634.00    271158.40
 1090.09        2962.75           2324       78895.00    348007.60
 1090.12        2963.00           2328      101891.00    451021.80
 1090.15        2963.25           2331      118239.00    524700.00
 1090.18        2963.50           2335      143079.00    637368.50
 1090.21        2963.75           2339      169878.00    759909.30
 1090.24        2964.00           2342      189494.00    850265.60
 1090.27        2964.25           2346      213191.00    960176.80
 1090.30        2964.50           2349      230955.00   1043121.00
 1090.33        2964.75           2353      253835.00   1150660.00
 1090.36        2965.00           2356      269745.00   1225914.00
 1090.40        2965.25           2360      291075.00   1327427.00
 1090.43        2965.50           2363      307746.00   1407269.00
 1090.46        2965.75           2367      329645.00   1512830.00
 1090.49        2966.00           2370      346429.00   1594265.00
 1090.52        2966.25           2374      366075.00   1690178.00
 1090.55        2966.50           2378      380724.00   1762118.00
 1090.58        2966.75           2381      386035.00   1788290.00
 1090.61        2967.00           2385      388530.00   1800602.00
 1090.64        2967.25           2388      389058.00   1803209.00
 1090.67        2967.50           2392      388750.00   1801688.00
 1090.70        2967.75           2395      388174.00   1798844.00
 1090.73        2968.00           2399      383477.00   1775679.00
 1090.76        2968.25           2402      374238.00   1730221.00
 1090.79        2968.50           2406      356767.00   1644656.00
 1090.82        2968.75           2409      341725.00   1571394.00
 1090.85        2969.00           2413      319475.00   1463710.00
 1090.88        2969.25           2417      297882.00   1359974.00
 1090.92        2969.50           2420      280951.00   1279156.00
 1090.95        2969.75           2424      258891.00   1174532.00
 1090.98        2970.00           2427      242830.00   1098835.00
 1091.01        2970.25           2431      220326.00    993434.60
 1091.04        2970.50           2434      202914.00    912407.60
 1091.07        2970.75           2438      179065.00    802156.90
 1091.10        2971.00           2441      160568.00    717221.20
 1091.13        2971.25           2445      136264.00    606370.30
 1091.16        2971.50           2449      111531.00    494422.90
 1091.19        2971.75           2452       94446.00    417591.10
 1091.22        2972.00           2456       73947.00    325936.90
 1091.25        2972.25           2459       58283.00    256285.80
 1091.28        2972.50           2463       36390.00    159488.90
 1091.31        2972.75           2466       21093.00     92232.55
 1091.34        2973.00           2470        6864.00     29947.22
 1091.38        2973.25           2473        3458.00     15077.04
 1091.41        2973.50           2477        2264.00      9867.74
 1091.44        2973.75           2481        2067.00      9008.43
 1091.47        2974.00           2484        2009.00      8755.44
 1091.50        2974.25           2488        1984.00      8646.39
 1091.53        2974.50           2491        1912.00      8332.35
 1091.56        2974.75           2495        1866.00      8131.72
 1091.59        2975.00           2498        1843.00      8031.40
 1091.62        2975.25           2502        1822.00      7939.81
 1091.66        2975.50           2505        1812.00      7896.19
 1091.69        2975.75           2509        1782.00      7765.35
 1091.72        2976.00           2512        1753.00      7638.86
 1091.75        2976.25           2516        1793.00      7813.32
 1091.78        2976.50           2520        1704.00      7425.15
 1091.81        2976.75           2523        1741.00      7586.53
 1091.84        2977.00           2527        1714.00      7468.77
 1091.87        2977.25           2530        1677.00      7307.40
 1091.90        2977.50           2534        1639.00      7141.66
 1091.93        2977.75           2537        1660.00      7233.25
 1091.96        2978.00           2541        1618.00      7050.08
 1091.99        2978.25           2544        1595.00      6949.77
 1092.02        2978.50           2548        1615.00      7036.99
 1092.05        2978.75           2552        1573.00      6853.82
 1092.08        2979.00           2555        1587.00      6914.88
 1092.11        2979.25           2559        1539.00      6705.54
 1092.14        2979.50           2562        1550.00      6753.51
 1092.18        2979.75           2566        1546.00      6736.07
 1092.21        2980.00           2569        1561.00      6801.49
 1092.24        2980.25           2573        1520.00      6622.68
 1092.27        2980.50           2577        1485.00      6470.04
 1092.30        2980.75           2580        1505.00      6557.26
 1092.33        2981.00           2584        1497.00      6522.37
 1092.36        2981.25           2587        1485.00      6470.04
 1092.39        2981.50           2591        1522.00      6631.40
 1092.42        2981.75           2594        1481.00      6452.59
 1092.45        2982.00           2598        1488.00      6483.12
 1092.48        2982.25           2601        1466.00      6387.18
 1092.51        2982.50           2605        1496.00      6518.01
 1092.54        2982.75           2609        1461.00      6365.37
 1092.57        2983.00           2612        1435.00      6251.98
 1092.60        2983.25           2616        1432.00      6238.90
 1092.63        2983.50           2619        1421.00      6190.93
 1092.66        2983.75           2623        1447.00      6304.32
 1092.70        2984.00           2626        1445.00      6295.59
HS scan finished at 18:12:55
end
