************************************************************
  HS Scan of 
************************************************************
Integration time is 0.2294 seconds per sample
dh110217Reading 51.44 .94 2.41pr1000
************************************************************
Dead Time -------------------------  3.4E-08 
Number of Cycles Used -------------  4 
Starting Wavelength (Angstroms) ---  2950 
Final Wavelength (Angstoms) -------  2984 
Wavelength Increment (Angstroms) --  .25 
Filter Wheel #1 Position ---------- (1) Ground quartz diffuser (ND=2.32)
Filter Wheel #2 Position ---------- (1) Neutral Density 0.494



************************************************************
HS scan start time = 04:45:40
Dark Count =  .3 


Time (GMT)  Wavelength (Ang)  Step Number  Raw Counts  Counts/Second

  286.56        2950.00           2144         819.00      3569.31
  286.75        2950.25           2147         819.00      3569.31
  286.78        2950.50           2151         851.00      3708.84
  286.81        2950.75           2155         815.00      3551.87
  286.85        2951.00           2158         852.00      3713.20
  286.88        2951.25           2162         813.00      3543.15
  286.91        2951.50           2165         843.00      3673.96
  286.94        2951.75           2169         868.00      3782.96
  286.97        2952.00           2172         835.00      3639.07
  287.00        2952.25           2176         852.00      3713.20
  287.03        2952.50           2179         819.00      3569.31
  287.06        2952.75           2183         832.00      3625.99
  287.09        2953.00           2186         840.00      3660.87
  287.12        2953.25           2190         862.00      3756.80
  287.15        2953.50           2193         873.00      3804.76
  287.18        2953.75           2197         855.00      3726.28
  287.21        2954.00           2200         837.00      3647.79
  287.24        2954.25           2204         854.00      3721.92
  287.27        2954.50           2208         878.00      3826.57
  287.30        2954.75           2211         869.00      3787.32
  287.33        2955.00           2215         866.00      3774.24
  287.36        2955.25           2218         870.00      3791.68
  287.40        2955.50           2222         889.00      3874.53
  287.43        2955.75           2225         879.00      3830.93
  287.46        2956.00           2229         897.00      3909.41
  287.49        2956.25           2232         902.00      3931.21
  287.52        2956.50           2236         884.00      3852.73
  287.55        2956.75           2239         905.00      3944.30
  287.58        2957.00           2243         860.00      3748.08
  287.61        2957.25           2246         923.00      4022.78
  287.64        2957.50           2250         950.00      4140.51
  287.67        2957.75           2254         959.00      4179.76
  287.70        2958.00           2257         957.00      4171.04
  287.73        2958.25           2261         931.00      4057.67
  287.76        2958.50           2264         929.00      4048.94
  287.79        2958.75           2268         940.00      4096.91
  287.82        2959.00           2271         986.00      4297.49
  287.85        2959.25           2275         964.00      4201.56
  287.88        2959.50           2278         950.00      4140.51
  287.92        2959.75           2282         977.00      4258.25
  287.95        2960.00           2285        1027.00      4476.27
  287.98        2960.25           2289        1005.00      4380.34
  288.01        2960.50           2293        1012.00      4410.86
  288.04        2960.75           2296        1035.00      4511.15
  288.07        2961.00           2300        1084.00      4724.82
  288.10        2961.25           2303        1236.00      5387.65
  288.13        2961.50           2307        3389.00     14779.44
  288.16        2961.75           2310        8082.00     35272.01
  288.19        2962.00           2314       16335.00     71379.22
  288.22        2962.25           2317       23310.00    101964.50
  288.25        2962.50           2321       33008.00    144596.20
  288.28        2962.75           2324       40060.00    175674.30
  288.31        2963.00           2328       49603.00    217835.40
  288.34        2963.25           2331       57675.00    253592.60
  288.37        2963.50           2335       68483.00    301606.70
  288.40        2963.75           2339       79009.00    348520.10
  288.44        2964.00           2342       86799.00    383336.50
  288.47        2964.25           2346       96801.00    428161.20
  288.50        2964.50           2349      104132.00    461103.30
  288.53        2964.75           2353      114268.00    506772.60
  288.56        2965.00           2356      121976.00    541598.20
  288.59        2965.25           2360      131769.00    585964.40
  288.62        2965.50           2363      138479.00    616441.60
  288.65        2965.75           2367      146894.00    654753.60
  288.68        2966.00           2370      154462.00    689295.70
  288.71        2966.25           2374      164092.00    733368.30
  288.74        2966.50           2378      171486.00    767298.70
  288.77        2966.75           2381      173750.00    777703.90
  288.80        2967.00           2385      174564.00    781446.80
  288.83        2967.25           2388      174156.00    779570.60
  288.86        2967.50           2392      174970.00    783314.00
  288.89        2967.75           2395      174264.00    780067.30
  288.92        2968.00           2399      172475.00    771843.10
  288.96        2968.25           2402      168765.00    754803.10
  288.99        2968.50           2406      160605.00    717394.30
  289.02        2968.75           2409      153471.00    684767.90
  289.05        2969.00           2413      142574.00    635072.80
  289.08        2969.25           2417      132110.00    587511.80
  289.11        2969.50           2420      125476.00    557439.10
  289.14        2969.75           2424      115728.00    513362.70
  289.17        2970.00           2427      107759.00    477428.90
  289.20        2970.25           2431       95523.00    422426.20
  289.23        2970.50           2434       87509.00    386513.90
  289.26        2970.75           2438       77749.00    342896.50
  289.29        2971.00           2441       70725.00    311586.50
  289.32        2971.25           2445       60493.00    266096.20
  289.35        2971.50           2449       49744.00    218459.30
  289.38        2971.75           2452       41747.00    183118.70
  289.41        2972.00           2456       31129.00    136326.60
  289.44        2972.25           2459       23467.00    102653.70
  289.48        2972.50           2463       14006.00     61180.76
  289.51        2972.75           2466        7486.00     32667.91
  289.54        2973.00           2470        2592.00     11302.08
  289.57        2973.25           2473        1440.00      6277.28
  289.60        2973.50           2477        1104.00      4812.03
  289.63        2973.75           2481        1040.00      4532.96
  289.66        2974.00           2484        1060.00      4620.17
  289.69        2974.25           2488        1024.00      4463.19
  289.72        2974.50           2491        1008.00      4393.42
  289.75        2974.75           2495        1001.00      4362.90
  289.78        2975.00           2498         969.00      4223.36
  289.81        2975.25           2502         966.00      4210.28
  289.84        2975.50           2505         943.00      4109.99
  289.87        2975.75           2509         971.00      4232.08
  289.90        2976.00           2512         954.00      4157.96
  289.93        2976.25           2516         928.00      4044.58
  289.96        2976.50           2520         932.00      4062.03
  290.00        2976.75           2523         912.00      3974.82
  290.03        2977.00           2527         905.00      3944.30
  290.06        2977.25           2530         906.00      3948.66
  290.09        2977.50           2534         879.00      3830.93
  290.12        2977.75           2537         880.00      3835.29
  290.15        2978.00           2541         874.00      3809.12
  290.18        2978.25           2544         856.00      3730.64
  290.21        2978.50           2548         854.00      3721.92
  290.24        2978.75           2552         849.00      3700.12
  290.27        2979.00           2555         889.00      3874.53
  290.30        2979.25           2559         857.00      3735.00
  290.33        2979.50           2562         832.00      3625.99
  290.36        2979.75           2566         819.00      3569.31
  290.39        2980.00           2569         850.00      3704.48
  290.42        2980.25           2573         823.00      3586.75
  290.45        2980.50           2577         804.00      3503.90
  290.48        2980.75           2580         837.00      3647.79
  290.52        2981.00           2584         817.00      3560.59
  290.55        2981.25           2587         794.00      3460.30
  290.58        2981.50           2591         810.00      3530.07
  290.61        2981.75           2594         809.00      3525.71
  290.64        2982.00           2598         807.00      3516.99
  290.67        2982.25           2601         787.00      3429.78
  290.70        2982.50           2605         789.00      3438.50
  290.73        2982.75           2609         800.00      3486.46
  290.76        2983.00           2612         792.00      3451.58
  290.79        2983.25           2616         783.00      3412.34
  290.82        2983.50           2619         787.00      3429.78
  290.85        2983.75           2623         797.00      3473.38
  290.88        2984.00           2626         790.00      3442.86
HS scan finished at 04:51:06
end
************************************************************
  HS Scan of 
************************************************************
Integration time is 0.2294 seconds per sample
dh110217Reading 51.44 .94 2.64pr1000
************************************************************
Dead Time -------------------------  3.4E-08 
Number of Cycles Used -------------  4 
Starting Wavelength (Angstroms) ---  2950 
Final Wavelength (Angstoms) -------  2984 
Wavelength Increment (Angstroms) --  .25 
Filter Wheel #1 Position ---------- (1) Ground quartz diffuser (ND=2.32)
Filter Wheel #2 Position ---------- (1) Neutral Density 0.494



************************************************************
HS scan start time = 18:07:24
Dark Count =  .4 


Time (GMT)  Wavelength (Ang)  Step Number  Raw Counts  Counts/Second

 1088.30        2950.00           2144         763.00      3324.70
 1088.50        2950.25           2147         794.00      3459.87
 1088.53        2950.50           2151         754.00      3285.46
 1088.56        2950.75           2155         756.00      3294.18
 1088.59        2951.00           2158         729.00      3176.45
 1088.62        2951.25           2162         799.00      3481.67
 1088.65        2951.50           2165         758.00      3302.90
 1088.68        2951.75           2169         771.00      3359.58
 1088.71        2952.00           2172         785.00      3420.62
 1088.74        2952.25           2176         774.00      3372.66
 1088.77        2952.50           2179         754.00      3285.46
 1088.80        2952.75           2183         776.00      3381.38
 1088.83        2953.00           2186         737.00      3211.34
 1088.86        2953.25           2190         774.00      3372.66
 1088.89        2953.50           2193         786.00      3424.98
 1088.92        2953.75           2197         768.00      3346.50
 1088.95        2954.00           2200         751.00      3272.38
 1088.98        2954.25           2204         792.00      3451.15
 1089.02        2954.50           2208         780.00      3398.82
 1089.05        2954.75           2211         774.00      3372.66
 1089.08        2955.00           2215         773.00      3368.30
 1089.11        2955.25           2218         789.00      3438.07
 1089.14        2955.50           2222         795.00      3464.23
 1089.17        2955.75           2225         812.00      3538.35
 1089.20        2956.00           2229         812.00      3538.35
 1089.23        2956.25           2232         795.00      3464.23
 1089.26        2956.50           2236         817.00      3560.15
 1089.29        2956.75           2239         792.00      3451.15
 1089.32        2957.00           2243         810.00      3529.63
 1089.36        2957.25           2246         816.00      3555.79
 1089.39        2957.50           2250         814.00      3547.07
 1089.42        2957.75           2254         842.00      3669.16
 1089.45        2958.00           2257         833.00      3629.92
 1089.48        2958.25           2261         831.00      3621.20
 1089.51        2958.50           2264         860.00      3747.64
 1089.54        2958.75           2268         870.00      3791.25
 1089.57        2959.00           2271         858.00      3738.92
 1089.60        2959.25           2275         881.00      3839.21
 1089.63        2959.50           2278         861.00      3752.00
 1089.66        2959.75           2282         911.00      3970.02
 1089.70        2960.00           2285         924.00      4026.71
 1089.73        2960.25           2289         895.00      3900.26
 1089.76        2960.50           2293         898.00      3913.34
 1089.79        2960.75           2296         900.00      3922.06
 1089.82        2961.00           2300         981.00      4275.25
 1089.85        2961.25           2303         987.00      4301.41
 1089.88        2961.50           2307        1751.00      7633.19
 1089.91        2961.75           2310        4604.00     20081.71
 1089.94        2962.00           2314       11565.00     50499.01
 1089.97        2962.25           2317       17997.00     78660.84
 1090.00        2962.50           2321       26984.00    118100.10
 1090.03        2962.75           2324       33167.00    145295.80
 1090.06        2963.00           2328       40903.00    179393.40
 1090.09        2963.25           2331       47056.00    206570.40
 1090.12        2963.50           2335       56524.00    248488.10
 1090.15        2963.75           2339       65865.00    289961.50
 1090.18        2964.00           2342       72831.00    320966.60
 1090.22        2964.25           2346       81087.00    357798.90
 1090.25        2964.50           2349       87554.00    386714.90
 1090.28        2964.75           2353       96517.00    426886.10
 1090.31        2965.00           2356      103172.00    456784.80
 1090.34        2965.25           2360      111646.00    494944.60
 1090.37        2965.50           2363      117983.00    523546.50
 1090.40        2965.75           2367      126294.00    561143.30
 1090.43        2966.00           2370      132544.00    589480.80
 1090.46        2966.25           2374      139798.00    622439.60
 1090.49        2966.50           2378      145795.00    649743.80
 1090.52        2966.75           2381      147505.00    657538.80
 1090.55        2967.00           2385      147997.00    659782.30
 1090.58        2967.25           2388      148416.00    661693.20
 1090.61        2967.50           2392      148354.00    661410.50
 1090.64        2967.75           2395      147759.00    658697.00
 1090.67        2968.00           2399      146252.00    651826.70
 1090.70        2968.25           2402      142814.00    636165.00
 1090.74        2968.50           2406      135877.00    604615.20
 1090.77        2968.75           2409      130282.00    579218.50
 1090.80        2969.00           2413      122161.00    542434.60
 1090.83        2969.25           2417      113728.00    504335.50
 1090.86        2969.50           2420      107633.00    476861.00
 1090.89        2969.75           2424       99489.00    440230.80
 1090.93        2970.00           2427       93858.00    414957.20
 1090.96        2970.25           2431       85550.00    377748.20
 1090.99        2970.50           2434       78200.00    344908.60
 1091.02        2970.75           2438       68310.00    300836.50
 1091.05        2971.00           2441       61775.00    271787.70
 1091.08        2971.25           2445       52899.00    232425.00
 1091.11        2971.50           2449       44042.00    193251.70
 1091.14        2971.75           2452       37577.00    164723.80
 1091.17        2972.00           2456       29106.00    127428.00
 1091.20        2972.25           2459       23404.00    102376.70
 1091.23        2972.50           2463       15482.00     67642.75
 1091.26        2972.75           2466        9657.00     42155.41
 1091.29        2973.00           2470        3533.00     15407.37
 1091.32        2973.25           2473        1595.00      6952.82
 1091.35        2973.50           2477        1012.00      4410.43
 1091.38        2973.75           2481         927.00      4039.79
 1091.41        2974.00           2484         923.00      4022.35
 1091.45        2974.25           2488         898.00      3913.34
 1091.48        2974.50           2491         901.00      3926.42
 1091.51        2974.75           2495         867.00      3778.17
 1091.54        2975.00           2498         862.00      3756.36
 1091.57        2975.25           2502         848.00      3695.32
 1091.60        2975.50           2505         833.00      3629.92
 1091.63        2975.75           2509         851.00      3708.40
 1091.66        2976.00           2512         844.00      3677.88
 1091.69        2976.25           2516         839.00      3656.08
 1091.72        2976.50           2520         822.00      3581.95
 1091.75        2976.75           2523         804.00      3503.47
 1091.78        2977.00           2527         826.00      3599.39
 1091.81        2977.25           2530         804.00      3503.47
 1091.84        2977.50           2534         777.00      3385.74
 1091.87        2977.75           2537         775.00      3377.02
 1091.90        2978.00           2541         787.00      3429.34
 1091.93        2978.25           2544         766.00      3337.78
 1091.97        2978.50           2548         766.00      3337.78
 1092.00        2978.75           2552         774.00      3372.66
 1092.03        2979.00           2555         760.00      3311.62
 1092.06        2979.25           2559         781.00      3403.18
 1092.09        2979.50           2562         772.00      3363.94
 1092.12        2979.75           2566         755.00      3289.82
 1092.15        2980.00           2569         753.00      3281.10
 1092.18        2980.25           2573         735.00      3202.62
 1092.21        2980.50           2577         730.00      3180.81
 1092.24        2980.75           2580         736.00      3206.98
 1092.27        2981.00           2584         766.00      3337.78
 1092.30        2981.25           2587         713.00      3106.69
 1092.33        2981.50           2591         702.00      3058.73
 1092.36        2981.75           2594         734.00      3198.26
 1092.39        2982.00           2598         691.00      3010.77
 1092.42        2982.25           2601         722.00      3145.93
 1092.45        2982.50           2605         696.00      3032.57
 1092.48        2982.75           2609         741.00      3228.78
 1092.52        2983.00           2612         723.00      3150.29
 1092.55        2983.25           2616         737.00      3211.34
 1092.58        2983.50           2619         701.00      3054.37
 1092.61        2983.75           2623         706.00      3076.17
 1092.64        2984.00           2626         703.00      3063.09
HS scan finished at 18:12:52
end
