************************************************************
  HS Scan of 
************************************************************
Integration time is 0.2294 seconds per sample
dh090217Reading 51.44 .94 2.62pr1000
************************************************************
Dead Time -------------------------  3.4E-08 
Number of Cycles Used -------------  4 
Starting Wavelength (Angstroms) ---  2950 
Final Wavelength (Angstoms) -------  2984 
Wavelength Increment (Angstroms) --  .25 
Filter Wheel #1 Position ---------- (1) Ground quartz diffuser (ND=2.32)
Filter Wheel #2 Position ---------- (1) Neutral Density 0.494



************************************************************
HS scan start time = 04:46:04
Dark Count =  .3 


Time (GMT)  Wavelength (Ang)  Step Number  Raw Counts  Counts/Second

  286.97        2950.00           2144         771.00      3360.02
  287.17        2950.25           2147         796.00      3469.02
  287.20        2950.50           2151         805.00      3508.27
  287.23        2950.75           2155         799.00      3482.10
  287.26        2951.00           2158         790.00      3442.86
  287.29        2951.25           2162         795.00      3464.66
  287.32        2951.50           2165         795.00      3464.66
  287.35        2951.75           2169         782.00      3407.98
  287.38        2952.00           2172         807.00      3516.99
  287.41        2952.25           2176         815.00      3551.87
  287.44        2952.50           2179         800.00      3486.46
  287.47        2952.75           2183         788.00      3434.14
  287.50        2953.00           2186         789.00      3438.50
  287.53        2953.25           2190         808.00      3521.35
  287.56        2953.50           2193         830.00      3617.27
  287.59        2953.75           2197         811.00      3534.43
  287.62        2954.00           2200         806.00      3512.63
  287.65        2954.25           2204         815.00      3551.87
  287.69        2954.50           2208         836.00      3643.43
  287.72        2954.75           2211         837.00      3647.79
  287.75        2955.00           2215         867.00      3778.60
  287.78        2955.25           2218         856.00      3730.64
  287.81        2955.50           2222         837.00      3647.79
  287.84        2955.75           2225         841.00      3665.23
  287.87        2956.00           2229         864.00      3765.52
  287.90        2956.25           2232         850.00      3704.48
  287.93        2956.50           2236         884.00      3852.73
  287.96        2956.75           2239         863.00      3761.16
  287.99        2957.00           2243         880.00      3835.29
  288.02        2957.25           2246         903.00      3935.58
  288.05        2957.50           2250         899.00      3918.13
  288.08        2957.75           2254         896.00      3905.05
  288.11        2958.00           2257         900.00      3922.49
  288.14        2958.25           2261         903.00      3935.58
  288.17        2958.50           2264         948.00      4131.79
  288.21        2958.75           2268         939.00      4092.55
  288.24        2959.00           2271         944.00      4114.35
  288.27        2959.25           2275         930.00      4053.30
  288.30        2959.50           2278         929.00      4048.94
  288.33        2959.75           2282         966.00      4210.28
  288.36        2960.00           2285         967.00      4214.64
  288.39        2960.25           2289         982.00      4280.05
  288.42        2960.50           2293         977.00      4258.25
  288.45        2960.75           2296        1031.00      4493.71
  288.48        2961.00           2300        1057.00      4607.09
  288.51        2961.25           2303        1214.00      5291.71
  288.54        2961.50           2307        2975.00     12973.03
  288.57        2961.75           2310        7622.00     33262.10
  288.60        2962.00           2314       17321.00     75698.94
  288.63        2962.25           2317       25594.00    111993.60
  288.66        2962.50           2321       35342.00    154874.90
  288.69        2962.75           2324       42379.00    185908.50
  288.72        2963.00           2328       52841.00    232168.50
  288.76        2963.25           2331       61483.00    270491.50
  288.79        2963.50           2335       73757.00    325093.60
  288.82        2963.75           2339       85100.00    375736.00
  288.85        2964.00           2342       93188.00    411953.50
  288.88        2964.25           2346      103825.00    459722.30
  288.91        2964.50           2349      112089.00    496942.70
  288.94        2964.75           2353      123289.00    547538.80
  288.97        2965.00           2356      131187.00    583323.90
  289.00        2965.25           2360      142097.00    632901.40
  289.03        2965.50           2363      150046.00    669130.10
  289.06        2965.75           2367      159837.00    713878.40
  289.09        2966.00           2370      166872.00    746116.20
  289.12        2966.25           2374      175724.00    786782.40
  289.15        2966.50           2378      182163.00    816435.00
  289.18        2966.75           2381      184223.00    825934.30
  289.21        2967.00           2385      184714.00    828199.40
  289.25        2967.25           2388      185091.00    829938.80
  289.28        2967.50           2392      184531.00    827355.10
  289.31        2967.75           2395      183986.00    824841.10
  289.34        2968.00           2399      181019.00    811162.20
  289.37        2968.25           2402      176593.00    790780.60
  289.40        2968.50           2406      167835.00    750534.70
  289.43        2968.75           2409      159447.00    712093.40
  289.46        2969.00           2413      148966.00    664202.50
  289.49        2969.25           2417      139509.00    621125.60
  289.52        2969.50           2420      132412.00    588882.10
  289.55        2969.75           2424      121601.00    539902.00
  289.58        2970.00           2427      113365.00    502698.20
  289.61        2970.25           2431      102209.00    452455.10
  289.64        2970.50           2434       94059.00    415859.10
  289.67        2970.75           2438       82216.00    362843.30
  289.70        2971.00           2441       73760.00    325107.00
  289.74        2971.25           2445       63448.00    279219.30
  289.77        2971.50           2449       52823.00    232088.80
  289.80        2971.75           2452       45742.00    200762.90
  289.83        2972.00           2456       35375.00    155020.20
  289.86        2972.25           2459       27437.00    120091.40
  289.89        2972.50           2463       16940.00     74029.60
  289.92        2972.75           2466        9369.00     40896.85
  289.96        2973.00           2470        2958.00     12898.86
  289.99        2973.25           2473        1488.00      6486.61
  290.02        2973.50           2477        1122.00      4890.53
  290.05        2973.75           2481        1016.00      4428.30
  290.08        2974.00           2484        1014.00      4419.58
  290.11        2974.25           2488         999.00      4354.18
  290.14        2974.50           2491        1007.00      4389.06
  290.17        2974.75           2495         985.00      4293.13
  290.20        2975.00           2498         940.00      4096.91
  290.23        2975.25           2502         950.00      4140.51
  290.26        2975.50           2505         944.00      4114.35
  290.29        2975.75           2509         908.00      3957.38
  290.32        2976.00           2512         905.00      3944.30
  290.35        2976.25           2516         879.00      3830.93
  290.38        2976.50           2520         880.00      3835.29
  290.41        2976.75           2523         912.00      3974.82
  290.44        2977.00           2527         870.00      3791.68
  290.48        2977.25           2530         849.00      3700.12
  290.51        2977.50           2534         876.00      3817.85
  290.54        2977.75           2537         865.00      3769.88
  290.57        2978.00           2541         846.00      3687.04
  290.60        2978.25           2544         845.00      3682.68
  290.63        2978.50           2548         841.00      3665.23
  290.66        2978.75           2552         825.00      3595.47
  290.69        2979.00           2555         811.00      3534.43
  290.72        2979.25           2559         832.00      3625.99
  290.75        2979.50           2562         817.00      3560.59
  290.78        2979.75           2566         806.00      3512.63
  290.81        2980.00           2569         815.00      3551.87
  290.84        2980.25           2573         798.00      3477.74
  290.87        2980.50           2577         810.00      3530.07
  290.90        2980.75           2580         796.00      3469.02
  290.93        2981.00           2584         799.00      3482.10
  290.96        2981.25           2587         814.00      3547.51
  291.00        2981.50           2591         795.00      3464.66
  291.03        2981.75           2594         800.00      3486.46
  291.06        2982.00           2598         779.00      3394.90
  291.09        2982.25           2601         780.00      3399.26
  291.12        2982.50           2605         772.00      3364.38
  291.15        2982.75           2609         781.00      3403.62
  291.18        2983.00           2612         785.00      3421.06
  291.21        2983.25           2616         740.00      3224.85
  291.24        2983.50           2619         750.00      3268.45
  291.27        2983.75           2623         757.00      3298.98
  291.30        2984.00           2626         748.00      3259.73
HS scan finished at 04:51:31
end
************************************************************
  HS Scan of 
************************************************************
Integration time is 0.2294 seconds per sample
dh090217Reading 51.44 .94 2.76pr1000
************************************************************
Dead Time -------------------------  3.4E-08 
Number of Cycles Used -------------  4 
Starting Wavelength (Angstroms) ---  2950 
Final Wavelength (Angstoms) -------  2984 
Wavelength Increment (Angstroms) --  .25 
Filter Wheel #1 Position ---------- (1) Ground quartz diffuser (ND=2.32)
Filter Wheel #2 Position ---------- (1) Neutral Density 0.494



************************************************************
HS scan start time = 18:07:19
Dark Count =  .5 


Time (GMT)  Wavelength (Ang)  Step Number  Raw Counts  Counts/Second

 1088.21        2950.00           2144         731.00      3184.74
 1088.40        2950.25           2147         774.00      3372.23
 1088.43        2950.50           2151         761.00      3315.54
 1088.46        2950.75           2155         767.00      3341.70
 1088.49        2951.00           2158         803.00      3498.67
 1088.52        2951.25           2162         749.00      3263.22
 1088.55        2951.50           2165         764.00      3328.62
 1088.59        2951.75           2169         749.00      3263.22
 1088.62        2952.00           2172         750.00      3267.58
 1088.65        2952.25           2176         763.00      3324.26
 1088.68        2952.50           2179         756.00      3293.74
 1088.71        2952.75           2183         776.00      3380.95
 1088.74        2953.00           2186         756.00      3293.74
 1088.77        2953.25           2190         757.00      3298.10
 1088.80        2953.50           2193         775.00      3376.59
 1088.83        2953.75           2197         765.00      3332.98
 1088.86        2954.00           2200         774.00      3372.23
 1088.89        2954.25           2204         764.00      3328.62
 1088.92        2954.50           2208         798.00      3476.87
 1088.95        2954.75           2211         772.00      3363.51
 1088.98        2955.00           2215         738.00      3215.26
 1089.01        2955.25           2218         806.00      3511.75
 1089.04        2955.50           2222         781.00      3402.75
 1089.07        2955.75           2225         780.00      3398.39
 1089.11        2956.00           2229         775.00      3376.59
 1089.14        2956.25           2232         803.00      3498.67
 1089.17        2956.50           2236         779.00      3394.03
 1089.20        2956.75           2239         775.00      3376.59
 1089.23        2957.00           2243         812.00      3537.91
 1089.26        2957.25           2246         775.00      3376.59
 1089.29        2957.50           2250         813.00      3542.28
 1089.32        2957.75           2254         817.00      3559.72
 1089.35        2958.00           2257         815.00      3551.00
 1089.38        2958.25           2261         824.00      3590.24
 1089.41        2958.50           2264         820.00      3572.80
 1089.44        2958.75           2268         838.00      3651.28
 1089.47        2959.00           2271         819.00      3568.44
 1089.50        2959.25           2275         865.00      3769.01
 1089.53        2959.50           2278         833.00      3629.48
 1089.56        2959.75           2282         873.00      3803.89
 1089.59        2960.00           2285         865.00      3769.01
 1089.63        2960.25           2289         866.00      3773.37
 1089.66        2960.50           2293         902.00      3930.34
 1089.69        2960.75           2296         895.00      3899.82
 1089.72        2961.00           2300         939.00      4091.68
 1089.75        2961.25           2303        1114.00      4854.77
 1089.78        2961.50           2307        2765.00     12055.94
 1089.81        2961.75           2310        6382.00     27844.57
 1089.84        2962.00           2314       13088.00     57161.99
 1089.87        2962.25           2317       18588.00     81250.75
 1089.90        2962.50           2321       27058.00    118424.90
 1089.93        2962.75           2324       33889.00    148474.30
 1089.96        2963.00           2328       42757.00    187576.50
 1089.99        2963.25           2331       49446.00    217139.90
 1090.02        2963.50           2335       58115.00    255543.30
 1090.05        2963.75           2339       66508.00    292820.20
 1090.08        2964.00           2342       73254.00    322851.00
 1090.11        2964.25           2346       82229.00    362900.50
 1090.14        2964.50           2349       89093.00    393604.20
 1090.18        2964.75           2353       98491.00    435747.80
 1090.21        2965.00           2356      104830.00    464242.80
 1090.24        2965.25           2360      112989.00    501001.10
 1090.27        2965.50           2363      118609.00    526374.50
 1090.30        2965.75           2367      126395.00    561600.30
 1090.33        2966.00           2370      132036.00    587175.00
 1090.36        2966.25           2374      139847.00    622662.10
 1090.39        2966.50           2378      146107.00    651165.30
 1090.42        2966.75           2381      147850.00    659111.50
 1090.45        2967.00           2385      148418.00    661702.00
 1090.48        2967.25           2388      147870.00    659202.80
 1090.51        2967.50           2392      148032.00    659941.50
 1090.54        2967.75           2395      148045.00    660000.90
 1090.57        2968.00           2399      145408.00    647979.80
 1090.60        2968.25           2402      140944.00    627653.00
 1090.63        2968.50           2406      133269.00    592771.10
 1090.66        2968.75           2409      127218.00    565328.80
 1090.70        2969.00           2413      118591.00    526293.10
 1090.73        2969.25           2417      111225.00    493046.00
 1090.76        2969.50           2420      105995.00    469485.70
 1090.79        2969.75           2424       96723.00    427810.30
 1090.82        2970.00           2427       89312.00    394584.90
 1090.85        2970.25           2431       80360.00    354551.30
 1090.88        2970.50           2434       74042.00    326363.00
 1090.91        2970.75           2438       65878.00    290018.80
 1090.94        2971.00           2441       59744.00    262771.00
 1090.97        2971.25           2445       50951.00    223799.80
 1091.00        2971.50           2449       42461.00    186269.70
 1091.03        2971.75           2452       36254.00    158892.30
 1091.06        2972.00           2456       27833.00    121831.00
 1091.09        2972.25           2459       21685.00     94832.31
 1091.12        2972.50           2463       13209.00     57691.52
 1091.15        2972.75           2466        7388.00     32238.90
 1091.19        2973.00           2470        2650.00     11554.23
 1091.22        2973.25           2473        1397.00      6088.88
 1091.25        2973.50           2477         998.00      4348.94
 1091.28        2973.75           2481         949.00      4135.28
 1091.31        2974.00           2484         898.00      3912.90
 1091.34        2974.25           2488         869.00      3786.45
 1091.37        2974.50           2491         868.00      3782.09
 1091.40        2974.75           2495         864.00      3764.65
 1091.43        2975.00           2498         839.00      3655.64
 1091.46        2975.25           2502         842.00      3668.72
 1091.49        2975.50           2505         845.00      3681.80
 1091.52        2975.75           2509         814.00      3546.64
 1091.55        2976.00           2512         826.00      3598.96
 1091.58        2976.25           2516         780.00      3398.39
 1091.61        2976.50           2520         799.00      3481.23
 1091.64        2976.75           2523         772.00      3363.51
 1091.67        2977.00           2527         755.00      3289.38
 1091.70        2977.25           2530         792.00      3450.71
 1091.74        2977.50           2534         813.00      3542.28
 1091.77        2977.75           2537         799.00      3481.23
 1091.80        2978.00           2541         789.00      3437.63
 1091.83        2978.25           2544         773.00      3367.87
 1091.86        2978.50           2548         763.00      3324.26
 1091.89        2978.75           2552         731.00      3184.74
 1091.92        2979.00           2555         751.00      3271.94
 1091.95        2979.25           2559         758.00      3302.46
 1091.98        2979.50           2562         721.00      3141.14
 1092.01        2979.75           2566         725.00      3158.58
 1092.04        2980.00           2569         745.00      3245.78
 1092.07        2980.25           2573         742.00      3232.70
 1092.10        2980.50           2577         702.00      3058.30
 1092.13        2980.75           2580         759.00      3306.82
 1092.16        2981.00           2584         703.00      3062.66
 1092.19        2981.25           2587         706.00      3075.74
 1092.22        2981.50           2591         710.00      3093.18
 1092.26        2981.75           2594         693.00      3019.05
 1092.29        2982.00           2598         724.00      3154.22
 1092.32        2982.25           2601         722.00      3145.50
 1092.35        2982.50           2605         702.00      3058.30
 1092.38        2982.75           2609         693.00      3019.05
 1092.41        2983.00           2612         694.00      3023.41
 1092.44        2983.25           2616         683.00      2975.45
 1092.47        2983.50           2619         702.00      3058.30
 1092.50        2983.75           2623         706.00      3075.74
 1092.53        2984.00           2626         680.00      2962.37
HS scan finished at 18:12:45
end
