************************************************************
  HS Scan of (1) Internal mercury lamp
************************************************************
Integration time is 0.2294 seconds per sample
dh100219Reading 51.44 .94 2.74pr1000
************************************************************
Dead Time -------------------------  3.4E-08 
Number of Cycles Used -------------  4 
Starting Wavelength (Angstroms) ---  2950 
Final Wavelength (Angstoms) -------  2984 
Wavelength Increment (Angstroms) --  .25 
Filter Wheel #1 Position ---------- (1) Ground quartz diffuser (ND=2.32)
Filter Wheel #2 Position ---------- (1) Neutral Density 0.494



************************************************************
HS scan start time = 04:45:15
Dark Count =  .4 


Time (GMT)  Wavelength (Ang)  Step Number  Raw Counts  Counts/Second

  286.15        2950.00           2144        1603.00      6987.71
  286.34        2950.25           2147        1624.00      7079.30
  286.37        2950.50           2151        1618.00      7053.13
  286.40        2950.75           2155        1624.00      7079.30
  286.43        2951.00           2158        1573.00      6856.87
  286.46        2951.25           2162        1620.00      7061.85
  286.49        2951.50           2165        1612.00      7026.96
  286.53        2951.75           2169        1630.00      7105.47
  286.56        2952.00           2172        1647.00      7179.61
  286.59        2952.25           2176        1592.00      6939.74
  286.62        2952.50           2179        1643.00      7162.16
  286.65        2952.75           2183        1631.00      7109.83
  286.68        2953.00           2186        1664.00      7253.75
  286.71        2953.25           2190        1671.00      7284.28
  286.74        2953.50           2193        1645.00      7170.88
  286.77        2953.75           2197        1668.00      7271.20
  286.80        2954.00           2200        1675.00      7301.73
  286.83        2954.25           2204        1714.00      7471.82
  286.86        2954.50           2208        1707.00      7441.29
  286.89        2954.75           2211        1707.00      7441.29
  286.92        2955.00           2215        1698.00      7402.04
  286.95        2955.25           2218        1764.00      7689.89
  286.98        2955.50           2222        1724.00      7515.43
  287.01        2955.75           2225        1721.00      7502.35
  287.05        2956.00           2229        1742.00      7593.94
  287.08        2956.25           2232        1730.00      7541.60
  287.11        2956.50           2236        1726.00      7524.16
  287.14        2956.75           2239        1772.00      7724.78
  287.17        2957.00           2243        1771.00      7720.42
  287.20        2957.25           2246        1743.00      7598.30
  287.23        2957.50           2250        1806.00      7873.08
  287.26        2957.75           2254        1814.00      7907.97
  287.29        2958.00           2257        1838.00      8012.65
  287.32        2958.25           2261        1830.00      7977.75
  287.35        2958.50           2264        1857.00      8095.51
  287.38        2958.75           2268        1858.00      8099.88
  287.41        2959.00           2271        1880.00      8195.83
  287.44        2959.25           2275        1924.00      8387.75
  287.47        2959.50           2278        1903.00      8296.15
  287.50        2959.75           2282        1979.00      8627.64
  287.53        2960.00           2285        2057.00      8967.86
  287.57        2960.25           2289        2008.00      8754.13
  287.60        2960.50           2293        2060.00      8980.95
  287.63        2960.75           2296        2138.00      9321.18
  287.66        2961.00           2300        2277.00      9927.50
  287.69        2961.25           2303        2890.00     12601.74
  287.72        2961.50           2307        7933.00     34620.50
  287.75        2961.75           2310       18216.00     79620.66
  287.78        2962.00           2314       37389.00    163895.10
  287.81        2962.25           2317       52820.00    232075.10
  287.84        2962.50           2321       72508.00    319527.50
  287.87        2962.75           2324       88449.00    390721.20
  287.90        2963.00           2328      112401.00    498349.30
  287.93        2963.25           2331      132005.00    587034.80
  287.96        2963.50           2335      157343.00    702466.30
  287.99        2963.75           2339      179116.00    802394.80
  288.02        2964.00           2342      195877.00    879792.40
  288.05        2964.25           2346      219450.00    989350.40
  288.09        2964.50           2349      235886.00   1066233.00
  288.12        2964.75           2353      260669.00   1182940.00
  288.15        2965.00           2356      277678.00   1263588.00
  288.18        2965.25           2360      298225.00   1361619.00
  288.21        2965.50           2363      312725.00   1431205.00
  288.24        2965.75           2367      333632.00   1532136.00
  288.27        2966.00           2370      349812.00   1610738.00
  288.30        2966.25           2374      367607.00   1697688.00
  288.33        2966.50           2378      384625.00   1781341.00
  288.36        2966.75           2381      388881.00   1802338.00
  288.39        2967.00           2385      390912.00   1812369.00
  288.42        2967.25           2388      391752.00   1816520.00
  288.45        2967.50           2392      391382.00   1814691.00
  288.48        2967.75           2395      391267.00   1814123.00
  288.51        2968.00           2399      386624.00   1791199.00
  288.54        2968.25           2402      377629.00   1746892.00
  288.57        2968.50           2406      358656.00   1653886.00
  288.61        2968.75           2409      342164.00   1573531.00
  288.64        2969.00           2413      320277.00   1467581.00
  288.67        2969.25           2417      300363.00   1371859.00
  288.70        2969.50           2420      284533.00   1296220.00
  288.73        2969.75           2424      260590.00   1182566.00
  288.76        2970.00           2427      240692.00   1088791.00
  288.79        2970.25           2431      216397.00    975114.40
  288.82        2970.50           2434      198570.00    892266.40
  288.85        2970.75           2438      173860.00    778209.10
  288.88        2971.00           2441      155600.00    694496.40
  288.91        2971.25           2445      130679.00    581019.10
  288.94        2971.50           2449      107937.00    478230.10
  288.97        2971.75           2452       90783.00    401174.20
  289.00        2972.00           2456       67964.00    299297.00
  289.03        2972.25           2459       50860.00    223397.50
  289.06        2972.50           2463       28470.00    124631.60
  289.09        2972.75           2466       15303.00     66858.88
  289.12        2973.00           2470        5578.00     24333.99
  289.16        2973.25           2473        3063.00     13356.54
  289.19        2973.50           2477        2203.00      9604.71
  289.22        2973.75           2481        2122.00      9251.38
  289.25        2974.00           2484        2087.00      9098.72
  289.28        2974.25           2488        1966.00      8570.94
  289.31        2974.50           2491        1985.00      8653.81
  289.34        2974.75           2495        1968.00      8579.66
  289.37        2975.00           2498        1951.00      8505.51
  289.40        2975.25           2502        1861.00      8112.96
  289.43        2975.50           2505        1862.00      8117.32
  289.46        2975.75           2509        1834.00      7995.20
  289.49        2976.00           2512        1829.00      7973.39
  289.52        2976.25           2516        1797.00      7833.82
  289.55        2976.50           2520        1769.00      7711.70
  289.58        2976.75           2523        1768.00      7707.34
  289.61        2977.00           2527        1784.00      7777.12
  289.64        2977.25           2530        1711.00      7458.74
  289.68        2977.50           2534        1719.00      7493.63
  289.71        2977.75           2537        1747.00      7615.75
  289.74        2978.00           2541        1728.00      7532.88
  289.77        2978.25           2544        1715.00      7476.18
  289.80        2978.50           2548        1674.00      7297.36
  289.83        2978.75           2552        1652.00      7201.41
  289.86        2979.00           2555        1692.00      7375.87
  289.89        2979.25           2559        1625.00      7083.66
  289.92        2979.50           2562        1627.00      7092.38
  289.95        2979.75           2566        1639.00      7144.72
  289.98        2980.00           2569        1660.00      7236.30
  290.01        2980.25           2573        1621.00      7066.21
  290.04        2980.50           2577        1591.00      6935.38
  290.07        2980.75           2580        1605.00      6996.43
  290.10        2981.00           2584        1594.00      6948.46
  290.13        2981.25           2587        1606.00      7000.79
  290.16        2981.50           2591        1553.00      6769.65
  290.20        2981.75           2594        1572.00      6852.51
  290.23        2982.00           2598        1550.00      6756.57
  290.26        2982.25           2601        1552.00      6765.29
  290.29        2982.50           2605        1524.00      6643.17
  290.32        2982.75           2609        1535.00      6691.15
  290.35        2983.00           2612        1563.00      6813.26
  290.38        2983.25           2616        1525.00      6647.54
  290.41        2983.50           2619        1501.00      6542.87
  290.44        2983.75           2623        1526.00      6651.90
  290.47        2984.00           2626        1527.00      6656.26
HS scan finished at 04:50:42
end
************************************************************
  HS Scan of (1) Internal mercury lamp
************************************************************
Integration time is 0.2294 seconds per sample
dh100219Reading 51.44 .94 2.68pr1000
************************************************************
Dead Time -------------------------  3.4E-08 
Number of Cycles Used -------------  4 
Starting Wavelength (Angstroms) ---  2950 
Final Wavelength (Angstoms) -------  2984 
Wavelength Increment (Angstroms) --  .25 
Filter Wheel #1 Position ---------- (1) Ground quartz diffuser (ND=2.32)
Filter Wheel #2 Position ---------- (1) Neutral Density 0.494



************************************************************
HS scan start time = 18:07:27
Dark Count =  .5 


Time (GMT)  Wavelength (Ang)  Step Number  Raw Counts  Counts/Second

 1088.35        2950.00           2144        1252.00      5456.55
 1088.55        2950.25           2147        1234.00      5378.05
 1088.58        2950.50           2151        1250.00      5447.83
 1088.61        2950.75           2155        1258.00      5482.71
 1088.64        2951.00           2158        1257.00      5478.35
 1088.67        2951.25           2162        1243.00      5417.30
 1088.70        2951.50           2165        1228.00      5351.89
 1088.73        2951.75           2169        1248.00      5439.11
 1088.76        2952.00           2172        1272.00      5543.76
 1088.79        2952.25           2176        1218.00      5308.28
 1088.82        2952.50           2179        1245.00      5426.02
 1088.85        2952.75           2183        1256.00      5473.99
 1088.88        2953.00           2186        1286.00      5604.82
 1088.91        2953.25           2190        1247.00      5434.74
 1088.94        2953.50           2193        1278.00      5569.93
 1088.98        2953.75           2197        1292.00      5630.98
 1089.01        2954.00           2200        1294.00      5639.70
 1089.04        2954.25           2204        1330.00      5796.70
 1089.07        2954.50           2208        1344.00      5857.75
 1089.10        2954.75           2211        1313.00      5722.56
 1089.13        2955.00           2215        1322.00      5761.81
 1089.16        2955.25           2218        1300.00      5665.87
 1089.19        2955.50           2222        1291.00      5626.62
 1089.22        2955.75           2225        1302.00      5674.59
 1089.25        2956.00           2229        1318.00      5744.37
 1089.28        2956.25           2232        1361.00      5931.89
 1089.31        2956.50           2236        1303.00      5678.95
 1089.34        2956.75           2239        1360.00      5927.52
 1089.37        2957.00           2243        1347.00      5870.83
 1089.40        2957.25           2246        1329.00      5792.34
 1089.43        2957.50           2250        1387.00      6045.27
 1089.46        2957.75           2254        1384.00      6032.19
 1089.50        2958.00           2257        1404.00      6119.41
 1089.53        2958.25           2261        1417.00      6176.10
 1089.56        2958.50           2264        1393.00      6071.44
 1089.59        2958.75           2268        1435.00      6254.60
 1089.62        2959.00           2271        1412.00      6154.30
 1089.65        2959.25           2275        1482.00      6459.57
 1089.68        2959.50           2278        1478.00      6442.13
 1089.71        2959.75           2282        1533.00      6681.99
 1089.74        2960.00           2285        1536.00      6695.07
 1089.77        2960.25           2289        1490.00      6494.46
 1089.80        2960.50           2293        1547.00      6743.05
 1089.83        2960.75           2296        1569.00      6838.99
 1089.86        2961.00           2300        1620.00      7061.42
 1089.89        2961.25           2303        1804.00      7863.92
 1089.92        2961.50           2307        3662.00     15969.87
 1089.95        2961.75           2310        9115.00     39785.69
 1089.98        2962.00           2314       21528.00     94143.49
 1090.02        2962.25           2317       32015.00    140224.50
 1090.05        2962.50           2321       48000.00    210744.00
 1090.08        2962.75           2324       59947.00    263671.90
 1090.11        2963.00           2328       76470.00    337189.30
 1090.14        2963.25           2331       90488.00    399852.20
 1090.17        2963.50           2335      107919.00    478148.60
 1090.20        2963.75           2339      124369.00    552426.10
 1090.23        2964.00           2342      136991.00    609676.60
 1090.26        2964.25           2346      155261.00    692946.40
 1090.29        2964.50           2349      169343.00    757455.60
 1090.32        2964.75           2353      186877.00    838181.20
 1090.35        2965.00           2356      198091.00    890046.50
 1090.38        2965.25           2360      214802.00    967682.10
 1090.41        2965.50           2363      226725.00   1023330.00
 1090.44        2965.75           2367      241964.00   1094767.00
 1090.47        2966.00           2370      254139.00   1152097.00
 1090.50        2966.25           2374      269904.00   1226671.00
 1090.54        2966.50           2378      282247.00   1285329.00
 1090.57        2966.75           2381      287161.00   1308749.00
 1090.60        2967.00           2385      289789.00   1321289.00
 1090.63        2967.25           2388      289994.00   1322268.00
 1090.66        2967.50           2392      290265.00   1323562.00
 1090.69        2967.75           2395      290197.00   1323237.00
 1090.72        2968.00           2399      287988.00   1312694.00
 1090.75        2968.25           2402      283653.00   1292026.00
 1090.78        2968.50           2406      270736.00   1230618.00
 1090.81        2968.75           2409      259689.00   1178306.00
 1090.84        2969.00           2413      243800.00   1103398.00
 1090.87        2969.25           2417      227788.00   1028301.00
 1090.90        2969.50           2420      216515.00    975663.90
 1090.93        2969.75           2424      199419.00    896200.90
 1090.96        2970.00           2427      185418.00    831446.90
 1090.99        2970.25           2431      167728.00    750042.80
 1091.02        2970.50           2434      154930.00    691433.50
 1091.06        2970.75           2438      137630.00    612581.00
 1091.09        2971.00           2441      124941.00    555015.60
 1091.12        2971.25           2445      107725.00    477274.80
 1091.15        2971.50           2449       88788.00    392238.50
 1091.18        2971.75           2452       75043.00    330825.40
 1091.21        2972.00           2456       57248.00    251698.00
 1091.24        2972.25           2459       44252.00    194178.80
 1091.27        2972.50           2463       27735.00    121400.20
 1091.30        2972.75           2466       16883.00     73779.00
 1091.33        2973.00           2470        6485.00     28294.43
 1091.36        2973.25           2473        2954.00     12880.53
 1091.39        2973.50           2477        1819.00      7929.34
 1091.42        2973.75           2481        1610.00      7017.80
 1091.45        2974.00           2484        1595.00      6952.38
 1091.48        2974.25           2488        1501.00      6542.43
 1091.51        2974.50           2491        1520.00      6625.29
 1091.54        2974.75           2495        1475.00      6429.04
 1091.57        2975.00           2498        1459.00      6359.27
 1091.61        2975.25           2502        1473.00      6420.32
 1091.64        2975.50           2505        1467.00      6394.15
 1091.67        2975.75           2509        1427.00      6219.71
 1091.70        2976.00           2512        1380.00      6014.74
 1091.73        2976.25           2516        1394.00      6075.80
 1091.76        2976.50           2520        1383.00      6027.83
 1091.79        2976.75           2523        1364.00      5944.97
 1091.82        2977.00           2527        1333.00      5809.78
 1091.85        2977.25           2530        1337.00      5827.22
 1091.88        2977.50           2534        1337.00      5827.22
 1091.91        2977.75           2537        1339.00      5835.95
 1091.94        2978.00           2541        1295.00      5644.07
 1091.97        2978.25           2544        1313.00      5722.56
 1092.00        2978.50           2548        1275.00      5556.85
 1092.03        2978.75           2552        1309.00      5705.12
 1092.06        2979.00           2555        1284.00      5596.10
 1092.09        2979.25           2559        1275.00      5556.85
 1092.13        2979.50           2562        1259.00      5487.07
 1092.16        2979.75           2566        1228.00      5351.89
 1092.19        2980.00           2569        1246.00      5430.38
 1092.22        2980.25           2573        1254.00      5465.27
 1092.25        2980.50           2577        1244.00      5421.66
 1092.28        2980.75           2580        1227.00      5347.53
 1092.31        2981.00           2584        1220.00      5317.00
 1092.34        2981.25           2587        1198.00      5221.07
 1092.37        2981.50           2591        1221.00      5321.36
 1092.40        2981.75           2594        1205.00      5251.59
 1092.43        2982.00           2598        1165.00      5077.16
 1092.46        2982.25           2601        1194.00      5203.62
 1092.49        2982.50           2605        1157.00      5042.28
 1092.52        2982.75           2609        1163.00      5068.44
 1092.55        2983.00           2612        1186.00      5168.74
 1092.58        2983.25           2616        1157.00      5042.28
 1092.61        2983.50           2619        1171.00      5103.33
 1092.65        2983.75           2623        1188.00      5177.46
 1092.68        2984.00           2626        1173.00      5112.05
HS scan finished at 18:12:54
end
