************************************************************
  HS Scan of (1) Internal mercury lamp
************************************************************
Integration time is 0.2294 seconds per sample
dh170219Reading 51.44 .94 2.72pr1000
************************************************************
Dead Time -------------------------  3.4E-08 
Number of Cycles Used -------------  4 
Starting Wavelength (Angstroms) ---  2950 
Final Wavelength (Angstoms) -------  2984 
Wavelength Increment (Angstroms) --  .25 
Filter Wheel #1 Position ---------- (1) Ground quartz diffuser (ND=2.32)
Filter Wheel #2 Position ---------- (1) Neutral Density 0.494



************************************************************
HS scan start time = 04:32:32
Dark Count =  .7 


Time (GMT)  Wavelength (Ang)  Step Number  Raw Counts  Counts/Second

  273.44        2950.00           2144        1631.00      7108.52
  273.63        2950.25           2147        1614.00      7034.38
  273.66        2950.50           2151        1597.00      6960.23
  273.69        2950.75           2155        1599.00      6968.96
  273.72        2951.00           2158        1580.00      6886.09
  273.75        2951.25           2162        1619.00      7056.18
  273.78        2951.50           2165        1604.00      6990.76
  273.81        2951.75           2169        1598.00      6964.60
  273.84        2952.00           2172        1665.00      7256.80
  273.88        2952.25           2176        1623.00      7073.63
  273.91        2952.50           2179        1600.00      6973.32
  273.94        2952.75           2183        1651.00      7195.75
  273.97        2953.00           2186        1669.00      7274.25
  274.00        2953.25           2190        1626.00      7086.71
  274.03        2953.50           2193        1644.00      7165.22
  274.06        2953.75           2197        1622.00      7069.27
  274.09        2954.00           2200        1681.00      7326.59
  274.12        2954.25           2204        1697.00      7396.37
  274.15        2954.50           2208        1712.00      7461.79
  274.18        2954.75           2211        1669.00      7274.25
  274.21        2955.00           2215        1690.00      7365.84
  274.24        2955.25           2218        1717.00      7483.60
  274.27        2955.50           2222        1743.00      7596.99
  274.30        2955.75           2225        1715.00      7474.87
  274.33        2956.00           2229        1701.00      7413.81
  274.36        2956.25           2232        1735.00      7562.10
  274.40        2956.50           2236        1729.00      7535.93
  274.43        2956.75           2239        1744.00      7601.35
  274.46        2957.00           2243        1750.00      7627.52
  274.49        2957.25           2246        1789.00      7797.62
  274.52        2957.50           2250        1765.00      7692.94
  274.55        2957.75           2254        1843.00      8033.14
  274.58        2958.00           2257        1815.00      7911.02
  274.61        2958.25           2261        1803.00      7858.68
  274.64        2958.50           2264        1874.00      8168.35
  274.67        2958.75           2268        1842.00      8028.78
  274.70        2959.00           2271        1845.00      8041.87
  274.73        2959.25           2275        1888.00      8229.42
  274.76        2959.50           2278        1866.00      8133.46
  274.79        2959.75           2282        1912.00      8334.10
  274.82        2960.00           2285        1970.00      8587.08
  274.85        2960.25           2289        1986.00      8656.86
  274.88        2960.50           2293        2009.00      8757.18
  274.92        2960.75           2296        2091.00      9114.86
  274.95        2961.00           2300        2188.00      9537.97
  274.98        2961.25           2303        2555.00     11138.92
  275.01        2961.50           2307        6626.00     28909.40
  275.04        2961.75           2310       15228.00     66529.13
  275.07        2962.00           2314       31933.00    139862.70
  275.10        2962.25           2317       46653.00    204787.60
  275.13        2962.50           2321       68018.00    299536.00
  275.16        2962.75           2324       84424.00    372711.10
  275.19        2963.00           2328      106031.00    469646.80
  275.22        2963.25           2331      121219.00    538172.40
  275.25        2963.50           2335      144521.00    643937.60
  275.28        2963.75           2339      167312.00    748133.00
  275.31        2964.00           2342      185714.00    832811.90
  275.34        2964.25           2346      208822.00    939851.40
  275.37        2964.50           2349      224937.00   1014970.00
  275.40        2964.75           2353      246729.00   1117177.00
  275.44        2965.00           2356      263619.00   1196893.00
  275.47        2965.25           2360      284085.00   1294084.00
  275.50        2965.50           2363      300597.00   1372978.00
  275.53        2965.75           2367      322177.00   1476746.00
  275.56        2966.00           2370      336072.00   1543960.00
  275.59        2966.25           2374      354893.00   1635510.00
  275.62        2966.50           2378      373514.00   1726667.00
  275.65        2966.75           2381      380244.00   1759757.00
  275.68        2967.00           2385      383533.00   1775957.00
  275.71        2967.25           2388      383976.00   1778140.00
  275.74        2967.50           2392      383252.00   1774572.00
  275.77        2967.75           2395      383297.00   1774794.00
  275.80        2968.00           2399      380326.00   1760161.00
  275.83        2968.25           2402      373015.00   1724217.00
  275.86        2968.50           2406      355849.00   1640176.00
  275.89        2968.75           2409      340848.00   1567136.00
  275.92        2969.00           2413      318550.00   1459253.00
  275.96        2969.25           2417      294200.00   1342362.00
  275.99        2969.50           2420      278482.00   1267410.00
  276.02        2969.75           2424      256956.00   1165393.00
  276.05        2970.00           2427      240976.00   1090124.00
  276.08        2970.25           2431      217448.00    980012.20
  276.11        2970.50           2434      197697.00    888220.10
  276.14        2970.75           2438      173786.00    777867.50
  276.17        2971.00           2441      156763.00    699812.50
  276.20        2971.25           2445      133829.00    595312.50
  276.23        2971.50           2449      112466.00    498641.10
  276.26        2971.75           2452       95911.00    424165.20
  276.29        2972.00           2456       73256.00    322859.10
  276.32        2972.25           2459       54795.00    240823.00
  276.35        2972.50           2463       32461.00    142186.60
  276.38        2972.75           2466       17963.00     78510.52
  276.41        2973.00           2470        6400.00     27922.31
  276.45        2973.25           2473        3292.00     14354.43
  276.48        2973.50           2477        2237.00      9751.71
  276.51        2973.75           2481        2106.00      9180.29
  276.54        2974.00           2484        2069.00      9018.90
  276.57        2974.25           2488        2000.00      8717.93
  276.60        2974.50           2491        2008.00      8752.82
  276.63        2974.75           2495        1941.00      8460.59
  276.66        2975.00           2498        1920.00      8368.99
  276.69        2975.25           2502        1906.00      8307.93
  276.72        2975.50           2505        1866.00      8133.46
  276.75        2975.75           2509        1881.00      8198.89
  276.78        2976.00           2512        1811.00      7893.58
  276.81        2976.25           2516        1838.00      8011.34
  276.84        2976.50           2520        1806.00      7871.77
  276.87        2976.75           2523        1798.00      7836.87
  276.90        2977.00           2527        1764.00      7688.58
  276.93        2977.25           2530        1740.00      7583.91
  276.96        2977.50           2534        1722.00      7505.40
  277.00        2977.75           2537        1724.00      7514.13
  277.03        2978.00           2541        1693.00      7378.92
  277.06        2978.25           2544        1668.00      7269.89
  277.09        2978.50           2548        1674.00      7296.06
  277.12        2978.75           2552        1687.00      7352.75
  277.15        2979.00           2555        1647.00      7178.30
  277.18        2979.25           2559        1608.00      7008.21
  277.21        2979.50           2562        1605.00      6995.12
  277.24        2979.75           2566        1639.00      7143.41
  277.27        2980.00           2569        1628.00      7095.43
  277.30        2980.25           2573        1588.00      6920.98
  277.33        2980.50           2577        1554.00      6772.70
  277.36        2980.75           2580        1565.00      6820.68
  277.39        2981.00           2584        1551.00      6759.62
  277.42        2981.25           2587        1585.00      6907.90
  277.45        2981.50           2591        1552.00      6763.98
  277.48        2981.75           2594        1538.00      6702.92
  277.52        2982.00           2598        1527.00      6654.95
  277.55        2982.25           2601        1535.00      6689.84
  277.58        2982.50           2605        1521.00      6628.78
  277.61        2982.75           2609        1517.00      6611.34
  277.64        2983.00           2612        1490.00      6493.59
  277.67        2983.25           2616        1527.00      6654.95
  277.70        2983.50           2619        1536.00      6694.20
  277.73        2983.75           2623        1530.00      6668.03
  277.76        2984.00           2626        1534.00      6685.48
HS scan finished at 04:37:59
end
************************************************************
  HS Scan of (1) Internal mercury lamp
************************************************************
Integration time is 0.2294 seconds per sample
dh170219Reading 51.44 .94 3.09pr1000
************************************************************
Dead Time -------------------------  3.4E-08 
Number of Cycles Used -------------  4 
Starting Wavelength (Angstroms) ---  2950 
Final Wavelength (Angstoms) -------  2984 
Wavelength Increment (Angstroms) --  .25 
Filter Wheel #1 Position ---------- (1) Ground quartz diffuser (ND=2.32)
Filter Wheel #2 Position ---------- (1) Neutral Density 0.494



************************************************************
HS scan start time = 18:07:27
Dark Count =  1.1 


Time (GMT)  Wavelength (Ang)  Step Number  Raw Counts  Counts/Second

 1088.35        2950.00           2144        1555.00      6775.32
 1088.55        2950.25           2147        1536.00      6692.46
 1088.58        2950.50           2151        1496.00      6518.01
 1088.61        2950.75           2155        1549.00      6749.15
 1088.64        2951.00           2158        1533.00      6679.37
 1088.67        2951.25           2162        1522.00      6631.40
 1088.70        2951.50           2165        1552.00      6762.24
 1088.73        2951.75           2169        1517.00      6609.59
 1088.76        2952.00           2172        1539.00      6705.54
 1088.79        2952.25           2176        1536.00      6692.46
 1088.82        2952.50           2179        1556.00      6779.68
 1088.85        2952.75           2183        1556.00      6779.68
 1088.88        2953.00           2186        1560.00      6797.12
 1088.91        2953.25           2190        1574.00      6858.18
 1088.94        2953.50           2193        1549.00      6749.15
 1088.97        2953.75           2197        1526.00      6648.84
 1089.00        2954.00           2200        1599.00      6967.21
 1089.04        2954.25           2204        1593.00      6941.05
 1089.07        2954.50           2208        1617.00      7045.72
 1089.10        2954.75           2211        1607.00      7002.10
 1089.13        2955.00           2215        1630.00      7102.41
 1089.16        2955.25           2218        1600.00      6971.57
 1089.19        2955.50           2222        1622.00      7067.52
 1089.22        2955.75           2225        1637.00      7132.94
 1089.25        2956.00           2229        1656.00      7215.81
 1089.28        2956.25           2232        1659.00      7228.89
 1089.31        2956.50           2236        1733.00      7551.63
 1089.34        2956.75           2239        1674.00      7294.31
 1089.37        2957.00           2243        1614.00      7032.63
 1089.40        2957.25           2246        1696.00      7390.26
 1089.43        2957.50           2250        1706.00      7433.88
 1089.46        2957.75           2254        1738.00      7573.44
 1089.49        2958.00           2257        1760.00      7669.39
 1089.52        2958.25           2261        1760.00      7669.39
 1089.56        2958.50           2264        1774.00      7730.45
 1089.59        2958.75           2268        1747.00      7612.70
 1089.62        2959.00           2271        1869.00      8144.80
 1089.65        2959.25           2275        1819.00      7926.72
 1089.68        2959.50           2278        1823.00      7944.17
 1089.71        2959.75           2282        1878.00      8184.06
 1089.74        2960.00           2285        1848.00      8053.21
 1089.77        2960.25           2289        1986.00      8655.12
 1089.80        2960.50           2293        1991.00      8676.93
 1089.83        2960.75           2296        2011.00      8764.16
 1089.86        2961.00           2300        2076.00      9047.68
 1089.89        2961.25           2303        2339.00     10194.90
 1089.92        2961.50           2307        5334.00     23265.56
 1089.95        2961.75           2310       12320.00     53798.85
 1089.98        2962.00           2314       29001.00    126963.20
 1090.01        2962.25           2317       44712.00    196208.20
 1090.04        2962.50           2321       66977.00    294903.40
 1090.08        2962.75           2324       84154.00    371502.10
 1090.11        2963.00           2328      105357.00    466611.50
 1090.14        2963.25           2331      121901.00    541255.30
 1090.17        2963.50           2335      146046.00    650884.60
 1090.20        2963.75           2339      170537.00    762935.80
 1090.23        2964.00           2342      190065.00    852904.10
 1090.26        2964.25           2346      215468.00    970782.10
 1090.29        2964.50           2349      233059.00   1052977.00
 1090.32        2964.75           2353      255986.00   1160811.00
 1090.35        2965.00           2356      273433.00   1243415.00
 1090.38        2965.25           2360      296381.00   1352791.00
 1090.41        2965.50           2363      314566.00   1440061.00
 1090.44        2965.75           2367      335917.00   1543207.00
 1090.47        2966.00           2370      351429.00   1618614.00
 1090.50        2966.25           2374      372646.00   1722403.00
 1090.53        2966.50           2378      389175.00   1803786.00
 1090.56        2966.75           2381      397359.00   1844254.00
 1090.60        2967.00           2385      400017.00   1857422.00
 1090.63        2967.25           2388      400866.00   1861630.00
 1090.66        2967.50           2392      400747.00   1861041.00
 1090.69        2967.75           2395      400715.00   1860882.00
 1090.72        2968.00           2399      398285.00   1848840.00
 1090.75        2968.25           2402      390742.00   1811526.00
 1090.78        2968.50           2406      373262.00   1725428.00
 1090.81        2968.75           2409      358844.00   1654801.00
 1090.84        2969.00           2413      335339.00   1540405.00
 1090.87        2969.25           2417      311277.00   1424238.00
 1090.90        2969.50           2420      293975.00   1341284.00
 1090.93        2969.75           2424      271289.00   1233238.00
 1090.96        2970.00           2427      252595.00   1144811.00
 1090.99        2970.25           2431      227551.00   1027190.00
 1091.02        2970.50           2434      209257.00    941872.40
 1091.05        2970.75           2438      185814.00    833271.60
 1091.08        2971.00           2441      168967.00    755726.70
 1091.11        2971.25           2445      145531.00    648537.60
 1091.15        2971.50           2449      120908.00    536764.20
 1091.18        2971.75           2452      101933.00    451210.60
 1091.21        2972.00           2456       78127.00    344579.70
 1091.24        2972.25           2459       61402.00    270128.30
 1091.27        2972.50           2463       38864.00    170395.40
 1091.30        2972.75           2466       22165.00     96935.78
 1091.33        2973.00           2470        7588.00     33110.06
 1091.36        2973.25           2473        3596.00     15679.24
 1091.39        2973.50           2477        2260.00      9850.29
 1091.42        2973.75           2481        2087.00      9095.66
 1091.45        2974.00           2484        2016.00      8785.97
 1091.48        2974.25           2488        1986.00      8655.12
 1091.51        2974.50           2491        1945.00      8476.29
 1091.54        2974.75           2495        1894.00      8253.84
 1091.57        2975.00           2498        1882.00      8201.50
 1091.60        2975.25           2502        1873.00      8162.25
 1091.63        2975.50           2505        1803.00      7856.94
 1091.67        2975.75           2509        1816.00      7913.64
 1091.70        2976.00           2512        1781.00      7760.98
 1091.73        2976.25           2516        1733.00      7551.63
 1091.76        2976.50           2520        1745.00      7603.97
 1091.79        2976.75           2523        1710.00      7451.32
 1091.82        2977.00           2527        1676.00      7303.03
 1091.85        2977.25           2530        1692.00      7372.82
 1091.88        2977.50           2534        1670.00      7276.87
 1091.91        2977.75           2537        1700.00      7407.71
 1091.94        2978.00           2541        1624.00      7076.24
 1091.97        2978.25           2544        1608.00      7006.47
 1092.00        2978.50           2548        1624.00      7076.24
 1092.03        2978.75           2552        1587.00      6914.88
 1092.06        2979.00           2555        1573.00      6853.82
 1092.09        2979.25           2559        1582.00      6893.07
 1092.12        2979.50           2562        1612.00      7023.91
 1092.15        2979.75           2566        1564.00      6814.57
 1092.19        2980.00           2569        1535.00      6688.09
 1092.22        2980.25           2573        1536.00      6692.46
 1092.25        2980.50           2577        1547.00      6740.43
 1092.28        2980.75           2580        1487.00      6478.76
 1092.31        2981.00           2584        1514.00      6596.51
 1092.34        2981.25           2587        1519.00      6618.32
 1092.37        2981.50           2591        1496.00      6518.01
 1092.40        2981.75           2594        1517.00      6609.59
 1092.43        2982.00           2598        1488.00      6483.12
 1092.46        2982.25           2601        1481.00      6452.59
 1092.49        2982.50           2605        1495.00      6513.65
 1092.52        2982.75           2609        1477.00      6435.15
 1092.55        2983.00           2612        1474.00      6422.07
 1092.58        2983.25           2616        1481.00      6452.59
 1092.61        2983.50           2619        1436.00      6256.34
 1092.64        2983.75           2623        1439.00      6269.43
 1092.67        2984.00           2626        1437.00      6260.71
HS scan finished at 18:12:54
end
