************************************************************
  HS Scan of (1) Internal mercury lamp
************************************************************
Integration time is 0.2294 seconds per sample
dh180219Reading 51.44 .94 2.8pr1000
************************************************************
Dead Time -------------------------  3.4E-08 
Number of Cycles Used -------------  4 
Starting Wavelength (Angstroms) ---  2950 
Final Wavelength (Angstoms) -------  2984 
Wavelength Increment (Angstroms) --  .25 
Filter Wheel #1 Position ---------- (1) Ground quartz diffuser (ND=2.32)
Filter Wheel #2 Position ---------- (1) Neutral Density 0.494



************************************************************
HS scan start time = 04:30:31
Dark Count =  .3 


Time (GMT)  Wavelength (Ang)  Step Number  Raw Counts  Counts/Second

  271.42        2950.00           2144        1592.00      6940.17
  271.61        2950.25           2147        1594.00      6948.90
  271.64        2950.50           2151        1571.00      6848.59
  271.67        2950.75           2155        1594.00      6948.90
  271.70        2951.00           2158        1622.00      7071.01
  271.73        2951.25           2162        1646.00      7175.68
  271.76        2951.50           2165        1620.00      7062.29
  271.80        2951.75           2169        1635.00      7127.71
  271.83        2952.00           2172        1668.00      7271.63
  271.86        2952.25           2176        1666.00      7262.91
  271.89        2952.50           2179        1616.00      7044.84
  271.92        2952.75           2183        1655.00      7214.93
  271.95        2953.00           2186        1653.00      7206.21
  271.98        2953.25           2190        1648.00      7184.41
  272.01        2953.50           2193        1652.00      7201.85
  272.04        2953.75           2197        1673.00      7293.44
  272.07        2954.00           2200        1627.00      7092.82
  272.10        2954.25           2204        1718.00      7489.70
  272.13        2954.50           2208        1712.00      7463.53
  272.16        2954.75           2211        1674.00      7297.80
  272.19        2955.00           2215        1703.00      7424.28
  272.22        2955.25           2218        1691.00      7371.94
  272.25        2955.50           2222        1712.00      7463.53
  272.28        2955.75           2225        1731.00      7546.40
  272.32        2956.00           2229        1764.00      7690.33
  272.35        2956.25           2232        1781.00      7764.47
  272.38        2956.50           2236        1748.00      7620.55
  272.41        2956.75           2239        1740.00      7585.65
  272.44        2957.00           2243        1784.00      7777.56
  272.47        2957.25           2246        1756.00      7655.44
  272.50        2957.50           2250        1752.00      7637.99
  272.53        2957.75           2254        1794.00      7821.17
  272.56        2958.00           2257        1820.00      7934.57
  272.59        2958.25           2261        1852.00      8074.14
  272.62        2958.50           2264        1839.00      8017.44
  272.65        2958.75           2268        1866.00      8135.21
  272.68        2959.00           2271        1880.00      8196.27
  272.71        2959.25           2275        1943.00      8471.05
  272.74        2959.50           2278        1971.00      8593.18
  272.77        2959.75           2282        1954.00      8519.03
  272.80        2960.00           2285        1973.00      8601.91
  272.84        2960.25           2289        2030.00      8850.53
  272.87        2960.50           2293        2023.00      8819.99
  272.90        2960.75           2296        2111.00      9203.84
  272.93        2961.00           2300        2164.00      9435.02
  272.96        2961.25           2303        2462.00     10734.95
  272.99        2961.50           2307        5580.00     24343.16
  273.02        2961.75           2310       14042.00     61338.34
  273.05        2962.00           2314       31394.00    137492.60
  273.08        2962.25           2317       46491.00    204073.20
  273.11        2962.50           2321       68176.00    300240.70
  273.14        2962.75           2324       84398.00    372596.70
  273.17        2963.00           2328      107147.00    474672.90
  273.20        2963.25           2331      123257.00    547394.00
  273.23        2963.50           2335      146902.00    654790.10
  273.26        2963.75           2339      172229.00    770712.60
  273.29        2964.00           2342      192163.00    862606.90
  273.32        2964.25           2346      216285.00    974592.90
  273.35        2964.50           2349      233688.00   1055928.00
  273.39        2964.75           2353      255289.00   1157525.00
  273.42        2965.00           2356      271187.00   1232758.00
  273.45        2965.25           2360      294139.00   1342072.00
  273.48        2965.50           2363      312309.00   1429204.00
  273.51        2965.75           2367      333718.00   1532553.00
  273.54        2966.00           2370      350041.00   1611854.00
  273.57        2966.25           2374      370033.00   1709584.00
  273.60        2966.50           2378      387089.00   1793494.00
  273.63        2966.75           2381      392849.00   1821943.00
  273.66        2967.00           2385      396621.00   1840604.00
  273.69        2967.25           2388      397791.00   1846397.00
  273.72        2967.50           2392      397595.00   1845427.00
  273.75        2967.75           2395      397128.00   1843114.00
  273.78        2968.00           2399      393204.00   1823698.00
  273.81        2968.25           2402      383909.00   1777812.00
  273.84        2968.50           2406      366065.00   1690133.00
  273.87        2968.75           2409      351151.00   1617263.00
  273.91        2969.00           2413      328667.00   1508103.00
  273.94        2969.25           2417      305592.00   1396932.00
  273.97        2969.50           2420      289551.00   1320154.00
  274.00        2969.75           2424      264091.00   1199129.00
  274.03        2970.00           2427      245603.00   1111880.00
  274.06        2970.25           2431      223363.00   1007618.00
  274.09        2970.50           2434      207209.00    932355.90
  274.12        2970.75           2438      183491.00    822558.00
  274.15        2971.00           2441      165332.00    739053.00
  274.18        2971.25           2445      140133.00    623964.10
  274.21        2971.50           2449      116866.00    518501.30
  274.24        2971.75           2452       99560.00    440550.20
  274.27        2972.00           2456       78141.00    344645.80
  274.30        2972.25           2459       59508.00    261724.50
  274.33        2972.50           2463       33891.00    148484.00
  274.36        2972.75           2466       18090.00     79068.86
  274.39        2973.00           2470        6123.00     26714.32
  274.43        2973.25           2473        3284.00     14321.27
  274.46        2973.50           2477        2288.00      9975.92
  274.49        2973.75           2481        2098.00      9147.13
  274.52        2974.00           2484        2063.00      8994.47
  274.55        2974.25           2488        1993.00      8689.14
  274.58        2974.50           2491        1991.00      8680.42
  274.61        2974.75           2495        2003.00      8732.76
  274.64        2975.00           2498        1911.00      8331.48
  274.67        2975.25           2502        1927.00      8401.27
  274.70        2975.50           2505        1919.00      8366.37
  274.73        2975.75           2509        1926.00      8396.90
  274.76        2976.00           2512        1852.00      8074.14
  274.79        2976.25           2516        1850.00      8065.42
  274.82        2976.50           2520        1783.00      7773.20
  274.85        2976.75           2523        1795.00      7825.53
  274.88        2977.00           2527        1743.00      7598.74
  274.91        2977.25           2530        1737.00      7572.57
  274.95        2977.50           2534        1748.00      7620.55
  274.98        2977.75           2537        1736.00      7568.21
  275.01        2978.00           2541        1743.00      7598.74
  275.04        2978.25           2544        1712.00      7463.53
  275.07        2978.50           2548        1695.00      7389.39
  275.10        2978.75           2552        1653.00      7206.21
  275.13        2979.00           2555        1654.00      7210.57
  275.16        2979.25           2559        1635.00      7127.71
  275.19        2979.50           2562        1716.00      7480.98
  275.22        2979.75           2566        1627.00      7092.82
  275.25        2980.00           2569        1635.00      7127.71
  275.28        2980.25           2573        1583.00      6900.92
  275.31        2980.50           2577        1610.00      7018.68
  275.34        2980.75           2580        1583.00      6900.92
  275.37        2981.00           2584        1571.00      6848.59
  275.40        2981.25           2587        1536.00      6695.95
  275.43        2981.50           2591        1573.00      6857.31
  275.47        2981.75           2594        1603.00      6988.15
  275.50        2982.00           2598        1576.00      6870.39
  275.53        2982.25           2601        1532.00      6678.50
  275.56        2982.50           2605        1548.00      6748.28
  275.59        2982.75           2609        1550.00      6757.00
  275.62        2983.00           2612        1552.00      6765.72
  275.65        2983.25           2616        1522.00      6634.89
  275.68        2983.50           2619        1498.00      6530.22
  275.71        2983.75           2623        1527.00      6656.69
  275.74        2984.00           2626        1556.00      6783.17
HS scan finished at 04:35:58
end
************************************************************
  HS Scan of (1) Internal mercury lamp
************************************************************
Integration time is 0.2294 seconds per sample
dh180219Reading 51.44 .94 2.92pr1000
************************************************************
Dead Time -------------------------  3.4E-08 
Number of Cycles Used -------------  4 
Starting Wavelength (Angstroms) ---  2950 
Final Wavelength (Angstoms) -------  2984 
Wavelength Increment (Angstroms) --  .25 
Filter Wheel #1 Position ---------- (1) Ground quartz diffuser (ND=2.32)
Filter Wheel #2 Position ---------- (1) Neutral Density 0.494



************************************************************
HS scan start time = 18:07:25
Dark Count =  .5 


Time (GMT)  Wavelength (Ang)  Step Number  Raw Counts  Counts/Second

 1088.32        2950.00           2144        1545.00      6734.32
 1088.51        2950.25           2147        1527.00      6655.82
 1088.55        2950.50           2151        1611.00      7022.16
 1088.58        2950.75           2155        1570.00      6843.35
 1088.61        2951.00           2158        1588.00      6921.86
 1088.64        2951.25           2162        1573.00      6856.44
 1088.67        2951.50           2165        1568.00      6834.63
 1088.70        2951.75           2169        1567.00      6830.27
 1088.73        2952.00           2172        1577.00      6873.88
 1088.76        2952.25           2176        1584.00      6904.41
 1088.79        2952.50           2179        1569.00      6838.99
 1088.82        2952.75           2183        1605.00      6996.00
 1088.85        2953.00           2186        1587.00      6917.49
 1088.88        2953.25           2190        1603.00      6987.27
 1088.91        2953.50           2193        1613.00      7030.89
 1088.94        2953.75           2197        1629.00      7100.67
 1088.97        2954.00           2200        1611.00      7022.16
 1089.00        2954.25           2204        1617.00      7048.33
 1089.03        2954.50           2208        1597.00      6961.11
 1089.07        2954.75           2211        1651.00      7196.62
 1089.10        2955.00           2215        1663.00      7248.95
 1089.13        2955.25           2218        1675.00      7301.29
 1089.16        2955.50           2222        1658.00      7227.15
 1089.19        2955.75           2225        1679.00      7318.74
 1089.22        2956.00           2229        1662.00      7244.59
 1089.25        2956.25           2232        1707.00      7440.85
 1089.28        2956.50           2236        1668.00      7270.76
 1089.31        2956.75           2239        1658.00      7227.15
 1089.34        2957.00           2243        1701.00      7414.69
 1089.37        2957.25           2246        1715.00      7475.74
 1089.40        2957.50           2250        1687.00      7353.63
 1089.43        2957.75           2254        1737.00      7571.70
 1089.46        2958.00           2257        1785.00      7781.05
 1089.49        2958.25           2261        1776.00      7741.79
 1089.52        2958.50           2264        1775.00      7737.43
 1089.55        2958.75           2268        1841.00      8025.29
 1089.59        2959.00           2271        1831.00      7981.68
 1089.62        2959.25           2275        1854.00      8081.99
 1089.65        2959.50           2278        1890.00      8239.01
 1089.68        2959.75           2282        1921.00      8374.22
 1089.71        2960.00           2285        1924.00      8387.31
 1089.74        2960.25           2289        1926.00      8396.03
 1089.77        2960.50           2293        2018.00      8797.31
 1089.80        2960.75           2296        1972.00      8596.67
 1089.83        2961.00           2300        2092.00      9120.09
 1089.86        2961.25           2303        2222.00      9687.15
 1089.89        2961.50           2307        3563.00     15537.85
 1089.92        2961.75           2310        7870.00     34344.79
 1089.95        2962.00           2314       21460.00     93845.18
 1089.98        2962.25           2317       36803.00    161311.70
 1090.01        2962.50           2321       57396.00    252354.30
 1090.04        2962.75           2324       73801.00    325288.80
 1090.08        2963.00           2328       95390.00    421828.50
 1090.11        2963.25           2331      111976.00    496432.20
 1090.14        2963.50           2335      135132.00    601230.40
 1090.17        2963.75           2339      157305.00    702292.10
 1090.20        2964.00           2342      173369.00    775951.30
 1090.23        2964.25           2346      196255.00    881542.20
 1090.26        2964.50           2349      214822.00    967775.20
 1090.29        2964.75           2353      240157.00   1086278.00
 1090.32        2965.00           2356      258195.00   1171246.00
 1090.35        2965.25           2360      280310.00   1276108.00
 1090.38        2965.50           2363      295982.00   1350885.00
 1090.41        2965.75           2367      317098.00   1452257.00
 1090.44        2966.00           2370      334008.00   1533957.00
 1090.47        2966.25           2374      357669.00   1649064.00
 1090.50        2966.50           2378      374938.00   1733663.00
 1090.53        2966.75           2381      380896.00   1762968.00
 1090.56        2967.00           2385      383652.00   1776544.00
 1090.60        2967.25           2388      383852.00   1777530.00
 1090.63        2967.50           2392      384288.00   1779679.00
 1090.66        2967.75           2395      384631.00   1781370.00
 1090.69        2968.00           2399      381048.00   1763717.00
 1090.72        2968.25           2402      372022.00   1719343.00
 1090.75        2968.50           2406      352269.00   1622712.00
 1090.78        2968.75           2409      340049.00   1563258.00
 1090.81        2969.00           2413      321101.00   1471555.00
 1090.84        2969.25           2417      300997.00   1374896.00
 1090.87        2969.50           2420      285226.00   1299522.00
 1090.90        2969.75           2424      263421.00   1195957.00
 1090.93        2970.00           2427      244117.00   1104889.00
 1090.96        2970.25           2431      220031.00    992060.70
 1090.99        2970.50           2434      202837.00    912053.00
 1091.02        2970.75           2438      181488.00    813322.60
 1091.05        2971.00           2441      163984.00    732872.40
 1091.08        2971.25           2445      140665.00    626383.50
 1091.11        2971.50           2449      115709.00    513276.00
 1091.15        2971.75           2452       99114.00    438545.80
 1091.18        2972.00           2456       75720.00    333844.20
 1091.21        2972.25           2459       58075.00    255365.90
 1091.24        2972.50           2463       36782.00    161219.10
 1091.27        2972.75           2466       22937.00    100326.40
 1091.30        2973.00           2470        8459.00     36918.59
 1091.33        2973.25           2473        3668.00     15996.06
 1091.36        2973.50           2477        2256.00      9835.46
 1091.39        2973.75           2481        2033.00      8862.74
 1091.42        2974.00           2484        2037.00      8880.19
 1091.45        2974.25           2488        1973.00      8601.03
 1091.48        2974.50           2491        1929.00      8409.12
 1091.51        2974.75           2495        1886.00      8221.57
 1091.54        2975.00           2498        1917.00      8356.78
 1091.57        2975.25           2502        1867.00      8138.70
 1091.60        2975.50           2505        1833.00      7990.40
 1091.63        2975.75           2509        1807.00      7877.00
 1091.67        2976.00           2512        1786.00      7785.41
 1091.70        2976.25           2516        1751.00      7632.76
 1091.73        2976.50           2520        1803.00      7859.55
 1091.76        2976.75           2523        1741.00      7589.14
 1091.79        2977.00           2527        1702.00      7419.05
 1091.82        2977.25           2530        1685.00      7344.90
 1091.85        2977.50           2534        1654.00      7209.70
 1091.88        2977.75           2537        1712.00      7462.66
 1091.91        2978.00           2541        1702.00      7419.05
 1091.94        2978.25           2544        1667.00      7266.40
 1091.97        2978.50           2548        1651.00      7196.62
 1092.00        2978.75           2552        1640.00      7148.64
 1092.03        2979.00           2555        1593.00      6943.66
 1092.06        2979.25           2559        1597.00      6961.11
 1092.09        2979.50           2562        1592.00      6939.30
 1092.12        2979.75           2566        1596.00      6956.75
 1092.15        2980.00           2569        1580.00      6886.97
 1092.19        2980.25           2573        1580.00      6886.97
 1092.22        2980.50           2577        1521.00      6629.66
 1092.25        2980.75           2580        1546.00      6738.68
 1092.28        2981.00           2584        1507.00      6568.60
 1092.31        2981.25           2587        1547.00      6743.05
 1092.34        2981.50           2591        1492.00      6503.18
 1092.37        2981.75           2594        1508.00      6572.96
 1092.40        2982.00           2598        1486.00      6477.02
 1092.43        2982.25           2601        1521.00      6629.66
 1092.46        2982.50           2605        1514.00      6599.13
 1092.49        2982.75           2609        1520.00      6625.29
 1092.52        2983.00           2612        1489.00      6490.10
 1092.55        2983.25           2616        1466.00      6389.79
 1092.58        2983.50           2619        1471.00      6411.60
 1092.61        2983.75           2623        1468.00      6398.51
 1092.64        2984.00           2626        1479.00      6446.49
HS scan finished at 18:12:52
end
