************************************************************
  HS Scan of (1) Internal mercury lamp
************************************************************
Integration time is 0.2294 seconds per sample
dh140218Reading 51.44 .94 2.33pr1000
************************************************************
Dead Time -------------------------  3.4E-08 
Number of Cycles Used -------------  4 
Starting Wavelength (Angstroms) ---  2950 
Final Wavelength (Angstoms) -------  2984 
Wavelength Increment (Angstroms) --  .25 
Filter Wheel #1 Position ---------- (1) Ground quartz diffuser (ND=2.32)
Filter Wheel #2 Position ---------- (1) Neutral Density 0.494



************************************************************
HS scan start time = 04:40:46
Dark Count =  .3 


Time (GMT)  Wavelength (Ang)  Step Number  Raw Counts  Counts/Second

  281.67        2950.00           2144          86.00       373.59
  281.86        2950.25           2147          89.00       386.67
  281.89        2950.50           2151          92.00       399.74
  281.92        2950.75           2155          82.00       356.15
  281.95        2951.00           2158          88.00       382.31
  281.98        2951.25           2162          86.00       373.59
  282.01        2951.50           2165          87.00       377.95
  282.04        2951.75           2169         106.00       460.77
  282.07        2952.00           2172         101.00       438.98
  282.11        2952.25           2176          92.00       399.74
  282.14        2952.50           2179          96.00       417.18
  282.17        2952.75           2183          96.00       417.18
  282.20        2953.00           2186          92.00       399.74
  282.23        2953.25           2190          93.00       404.10
  282.26        2953.50           2193          99.00       430.26
  282.29        2953.75           2197          92.00       399.74
  282.32        2954.00           2200         100.00       434.62
  282.35        2954.25           2204          92.00       399.74
  282.38        2954.50           2208         114.00       495.65
  282.41        2954.75           2211          95.00       412.82
  282.44        2955.00           2215          97.00       421.54
  282.47        2955.25           2218          93.00       404.10
  282.50        2955.50           2222         100.00       434.62
  282.53        2955.75           2225          89.00       386.67
  282.56        2956.00           2229          92.00       399.74
  282.59        2956.25           2232          91.00       395.38
  282.62        2956.50           2236          97.00       421.54
  282.65        2956.75           2239          87.00       377.95
  282.69        2957.00           2243          85.00       369.23
  282.72        2957.25           2246         101.00       438.98
  282.75        2957.50           2250          94.00       408.46
  282.78        2957.75           2254          93.00       404.10
  282.81        2958.00           2257          99.00       430.26
  282.84        2958.25           2261         103.00       447.70
  282.87        2958.50           2264         117.00       508.73
  282.90        2958.75           2268          91.00       395.38
  282.93        2959.00           2271         156.00       678.74
  282.96        2959.25           2275         113.00       491.29
  282.99        2959.50           2278         105.00       456.42
  283.02        2959.75           2282         125.00       543.60
  283.05        2960.00           2285         130.00       565.40
  283.08        2960.25           2289         127.00       552.32
  283.11        2960.50           2293         131.00       569.76
  283.14        2960.75           2296         149.00       648.23
  283.17        2961.00           2300         153.00       665.66
  283.21        2961.25           2303         256.00      1114.69
  283.24        2961.50           2307         841.00      3665.23
  283.27        2961.75           2310        1533.00      6682.86
  283.30        2962.00           2314        2604.00     11354.43
  283.33        2962.25           2317        3435.00     14980.17
  283.36        2962.50           2321        4636.00     20221.84
  283.39        2962.75           2324        5579.00     24338.79
  283.42        2963.00           2328        6952.00     30335.11
  283.46        2963.25           2331        7877.00     34376.25
  283.50        2963.50           2335        9044.00     39476.23
  283.53        2963.75           2339       10083.00     44018.32
  283.56        2964.00           2342       11123.00     48566.18
  283.59        2964.25           2346       12718.00     55543.77
  283.62        2964.50           2349       13812.00     60331.57
  283.65        2964.75           2353       15041.00     65712.04
  283.68        2965.00           2356       15896.00     69456.34
  283.71        2965.25           2360       16932.00     73994.56
  283.74        2965.50           2363       18128.00     79235.41
  283.77        2965.75           2367       19633.00     85832.94
  283.80        2966.00           2370       20504.00     89652.55
  283.83        2966.25           2374       21478.00     93925.01
  283.86        2966.50           2378       22172.00     96970.02
  283.89        2966.75           2381       22220.00     97180.64
  283.92        2967.00           2385       22221.00     97185.02
  283.95        2967.25           2388       22262.00     97364.94
  283.98        2967.50           2392       22011.00     96263.56
  284.02        2967.75           2395       21927.00     95894.97
  284.05        2968.00           2399       21033.00     91972.86
  284.08        2968.25           2402       21241.00     92885.30
  284.11        2968.50           2406       19922.00     87100.19
  284.14        2968.75           2409       18754.00     81979.27
  284.17        2969.00           2413       17394.00     76018.81
  284.20        2969.25           2417       16099.00     70345.47
  284.23        2969.50           2420       15076.00     65865.30
  284.26        2969.75           2424       13686.00     59780.06
  284.29        2970.00           2427       12532.00     54729.91
  284.32        2970.25           2431       11062.00     48299.39
  284.35        2970.50           2434       10085.00     44027.06
  284.38        2970.75           2438        9062.00     39554.91
  284.41        2971.00           2441        7919.00     34559.77
  284.44        2971.25           2445        6581.00     28714.60
  284.47        2971.50           2449        5202.00     22692.74
  284.51        2971.75           2452        4172.00     18196.52
  284.54        2972.00           2456        2993.00     13051.56
  284.57        2972.25           2459        2118.00      9234.37
  284.60        2972.50           2463        1122.00      4890.53
  284.63        2972.75           2466         551.00      2400.81
  284.66        2973.00           2470         194.00       844.40
  284.69        2973.25           2473         134.00       582.84
  284.72        2973.50           2477         115.00       500.01
  284.75        2973.75           2481         110.00       478.21
  284.78        2974.00           2484         147.00       639.51
  284.81        2974.25           2488         111.00       482.57
  284.84        2974.50           2491         104.00       452.06
  284.87        2974.75           2495         104.00       452.06
  284.90        2975.00           2498         107.00       465.13
  284.93        2975.25           2502         119.00       517.45
  284.96        2975.50           2505         117.00       508.73
  284.99        2975.75           2509         103.00       447.70
  285.03        2976.00           2512         101.00       438.98
  285.06        2976.25           2516          91.00       395.38
  285.09        2976.50           2520          93.00       404.10
  285.12        2976.75           2523         101.00       438.98
  285.15        2977.00           2527          95.00       412.82
  285.18        2977.25           2530         111.00       482.57
  285.21        2977.50           2534          97.00       421.54
  285.24        2977.75           2537          98.00       425.90
  285.27        2978.00           2541          97.00       421.54
  285.30        2978.25           2544          89.00       386.67
  285.33        2978.50           2548          94.00       408.46
  285.36        2978.75           2552          89.00       386.67
  285.39        2979.00           2555          81.00       351.79
  285.42        2979.25           2559          84.00       364.87
  285.45        2979.50           2562          84.00       364.87
  285.48        2979.75           2566          89.00       386.67
  285.51        2980.00           2569          90.00       391.03
  285.54        2980.25           2573          84.00       364.87
  285.58        2980.50           2577          86.00       373.59
  285.61        2980.75           2580          87.00       377.95
  285.64        2981.00           2584          86.00       373.59
  285.67        2981.25           2587          95.00       412.82
  285.70        2981.50           2591          83.00       360.51
  285.73        2981.75           2594          74.00       321.28
  285.76        2982.00           2598          83.00       360.51
  285.79        2982.25           2601          91.00       395.38
  285.82        2982.50           2605          90.00       391.03
  285.85        2982.75           2609          78.00       338.71
  285.88        2983.00           2612          81.00       351.79
  285.91        2983.25           2616          88.00       382.31
  285.94        2983.50           2619          88.00       382.31
  285.97        2983.75           2623          77.00       334.35
  286.00        2984.00           2626          84.00       364.87
HS scan finished at 04:46:14
end
************************************************************
  HS Scan of (1) Internal mercury lamp
************************************************************
Integration time is 0.2294 seconds per sample
dh140218Reading 51.44 .94 2.7pr1000
************************************************************
Dead Time -------------------------  3.4E-08 
Number of Cycles Used -------------  4 
Starting Wavelength (Angstroms) ---  2950 
Final Wavelength (Angstoms) -------  2984 
Wavelength Increment (Angstroms) --  .25 
Filter Wheel #1 Position ---------- (1) Ground quartz diffuser (ND=2.32)
Filter Wheel #2 Position ---------- (1) Neutral Density 0.494



************************************************************
HS scan start time = 18:07:29
Dark Count =  .4 


Time (GMT)  Wavelength (Ang)  Step Number  Raw Counts  Counts/Second

 1088.38        2950.00           2144          72.00       312.12
 1088.57        2950.25           2147          83.00       360.07
 1088.60        2950.50           2151          75.00       325.20
 1088.63        2950.75           2155          83.00       360.07
 1088.66        2951.00           2158          87.00       377.51
 1088.69        2951.25           2162          84.00       364.43
 1088.72        2951.50           2165          87.00       377.51
 1088.75        2951.75           2169          81.00       351.36
 1088.78        2952.00           2172          84.00       364.43
 1088.81        2952.25           2176         109.00       473.42
 1088.84        2952.50           2179          80.00       347.00
 1088.87        2952.75           2183          88.00       381.87
 1088.90        2953.00           2186          84.00       364.43
 1088.94        2953.25           2190          87.00       377.51
 1088.97        2953.50           2193          78.00       338.28
 1089.00        2953.75           2197          87.00       377.51
 1089.03        2954.00           2200          77.00       333.92
 1089.06        2954.25           2204          83.00       360.07
 1089.09        2954.50           2208          79.00       342.64
 1089.12        2954.75           2211          81.00       351.36
 1089.15        2955.00           2215          82.00       355.71
 1089.18        2955.25           2218          81.00       351.36
 1089.21        2955.50           2222          87.00       377.51
 1089.24        2955.75           2225          83.00       360.07
 1089.27        2956.00           2229          99.00       429.82
 1089.30        2956.25           2232          85.00       368.79
 1089.33        2956.50           2236          90.00       390.59
 1089.36        2956.75           2239          85.00       368.79
 1089.39        2957.00           2243          86.00       373.15
 1089.42        2957.25           2246          93.00       403.67
 1089.46        2957.50           2250          90.00       390.59
 1089.49        2957.75           2254          89.00       386.23
 1089.52        2958.00           2257          80.00       347.00
 1089.55        2958.25           2261          90.00       390.59
 1089.58        2958.50           2264          89.00       386.23
 1089.61        2958.75           2268         100.00       434.18
 1089.64        2959.00           2271         110.00       477.78
 1089.67        2959.25           2275          88.00       381.87
 1089.70        2959.50           2278         127.00       551.88
 1089.73        2959.75           2282         161.00       700.10
 1089.76        2960.00           2285         145.00       630.35
 1089.79        2960.25           2289         158.00       687.03
 1089.82        2960.50           2293         156.00       678.31
 1089.85        2960.75           2296         169.00       734.98
 1089.88        2961.00           2300         213.00       926.79
 1089.91        2961.25           2303         370.00      1611.25
 1089.94        2961.50           2307        1402.00      6111.12
 1089.97        2961.75           2310        2837.00     12370.50
 1090.01        2962.00           2314        4881.00     21290.91
 1090.04        2962.25           2317        6294.00     27460.68
 1090.07        2962.50           2321        8260.00     36049.39
 1090.10        2962.75           2324        9850.00     42999.17
 1090.13        2963.00           2328       12094.00     52813.15
 1090.16        2963.25           2331       13897.00     60703.19
 1090.19        2963.50           2335       16133.00     70493.96
 1090.22        2963.75           2339       18180.00     79462.87
 1090.25        2964.00           2342       20075.00     87770.69
 1090.28        2964.25           2346       22375.00     97860.38
 1090.31        2964.50           2349       23890.00    104510.20
 1090.34        2964.75           2353       26223.00    114756.40
 1090.37        2965.00           2356       27891.00    122086.40
 1090.40        2965.25           2360       30116.00    131869.80
 1090.43        2965.50           2363       31834.00    139428.40
 1090.46        2965.75           2367       33743.00    147831.90
 1090.50        2966.00           2370       35351.00    154914.10
 1090.53        2966.25           2374       36870.00    161607.40
 1090.56        2966.50           2378       37753.00    165499.70
 1090.59        2966.75           2381       38126.00    167144.20
 1090.62        2967.00           2385       38270.00    167779.10
 1090.65        2967.25           2388       38297.00    167898.20
 1090.68        2967.50           2392       38011.00    166637.20
 1090.71        2967.75           2395       37524.00    164490.20
 1090.74        2968.00           2399       36593.00    160386.60
 1090.77        2968.25           2402       35251.00    154473.60
 1090.80        2968.50           2406       33026.00    144675.10
 1090.83        2968.75           2409       31382.00    137439.40
 1090.86        2969.00           2413       29196.00    127823.70
 1090.89        2969.25           2417       27221.00    119141.60
 1090.92        2969.50           2420       25741.00    112638.90
 1090.95        2969.75           2424       23406.00    102385.40
 1090.98        2970.00           2427       21645.00     94657.24
 1091.02        2970.25           2431       19442.00     84995.05
 1091.05        2970.50           2434       17775.00     77687.94
 1091.08        2970.75           2438       15634.00     68308.41
 1091.11        2971.00           2441       13797.00     60265.47
 1091.14        2971.25           2445       11601.00     50656.48
 1091.17        2971.50           2449        9542.00     41652.67
 1091.20        2971.75           2452        7949.00     34690.42
 1091.23        2972.00           2456        5867.00     25595.94
 1091.26        2972.25           2459        4367.00     19047.21
 1091.29        2972.50           2463        2275.00      9918.78
 1091.32        2972.75           2466        1048.00      4567.41
 1091.35        2973.00           2470         345.00      1502.26
 1091.38        2973.25           2473         215.00       935.51
 1091.41        2973.50           2477         180.00       782.93
 1091.44        2973.75           2481         166.00       721.90
 1091.47        2974.00           2484         161.00       700.10
 1091.50        2974.25           2488         167.00       726.26
 1091.54        2974.50           2491         148.00       643.43
 1091.57        2974.75           2495         160.00       695.74
 1091.60        2975.00           2498         156.00       678.31
 1091.63        2975.25           2502         155.00       673.95
 1091.66        2975.50           2505         153.00       665.23
 1091.69        2975.75           2509         154.00       669.59
 1091.72        2976.00           2512         157.00       682.67
 1091.75        2976.25           2516         161.00       700.10
 1091.78        2976.50           2520         147.00       639.07
 1091.81        2976.75           2523         129.00       560.60
 1091.84        2977.00           2527         129.00       560.60
 1091.87        2977.25           2530         130.00       564.96
 1091.90        2977.50           2534         144.00       625.99
 1091.93        2977.75           2537         138.00       599.84
 1091.96        2978.00           2541         151.00       656.51
 1091.99        2978.25           2544         143.00       621.63
 1092.02        2978.50           2548         157.00       682.67
 1092.06        2978.75           2552         153.00       665.23
 1092.09        2979.00           2555         129.00       560.60
 1092.12        2979.25           2559         116.00       503.93
 1092.15        2979.50           2562         121.00       525.73
 1092.18        2979.75           2566         113.00       490.85
 1092.21        2980.00           2569         122.00       530.09
 1092.24        2980.25           2573         143.00       621.63
 1092.27        2980.50           2577         134.00       582.40
 1092.30        2980.75           2580         126.00       547.53
 1092.33        2981.00           2584         119.00       517.01
 1092.36        2981.25           2587         127.00       551.88
 1092.39        2981.50           2591         115.00       499.57
 1092.42        2981.75           2594         137.00       595.48
 1092.45        2982.00           2598         113.00       490.85
 1092.48        2982.25           2601         109.00       473.42
 1092.51        2982.50           2605         118.00       512.65
 1092.54        2982.75           2609         115.00       499.57
 1092.57        2983.00           2612         135.00       586.76
 1092.61        2983.25           2616         125.00       543.17
 1092.64        2983.50           2619         147.00       639.07
 1092.67        2983.75           2623         109.00       473.42
 1092.70        2984.00           2626         123.00       534.45
HS scan finished at 18:12:55
end
