************************************************************
  HS Scan of 
************************************************************
Integration time is 0.2294 seconds per sample
dh130217Reading 51.44 .94 2.64pr1000
************************************************************
Dead Time -------------------------  3.4E-08 
Number of Cycles Used -------------  4 
Starting Wavelength (Angstroms) ---  2950 
Final Wavelength (Angstoms) -------  2984 
Wavelength Increment (Angstroms) --  .25 
Filter Wheel #1 Position ---------- (1) Ground quartz diffuser (ND=2.32)
Filter Wheel #2 Position ---------- (1) Neutral Density 0.494



************************************************************
HS scan start time = 04:39:09
Dark Count =  .5 


Time (GMT)  Wavelength (Ang)  Step Number  Raw Counts  Counts/Second

  280.06        2950.00           2144         817.00      3559.72
  280.25        2950.25           2147         810.00      3529.19
  280.28        2950.50           2151         822.00      3581.52
  280.31        2950.75           2155         833.00      3629.48
  280.34        2951.00           2158         831.00      3620.76
  280.37        2951.25           2162         809.00      3524.83
  280.40        2951.50           2165         811.00      3533.55
  280.43        2951.75           2169         852.00      3712.33
  280.46        2952.00           2172         818.00      3564.08
  280.49        2952.25           2176         865.00      3769.01
  280.52        2952.50           2179         814.00      3546.64
  280.55        2952.75           2183         831.00      3620.76
  280.58        2953.00           2186         835.00      3638.20
  280.62        2953.25           2190         834.00      3633.84
  280.65        2953.50           2193         856.00      3729.77
  280.68        2953.75           2197         826.00      3598.96
  280.71        2954.00           2200         873.00      3803.89
  280.74        2954.25           2204         841.00      3664.36
  280.77        2954.50           2208         868.00      3782.09
  280.80        2954.75           2211         834.00      3633.84
  280.83        2955.00           2215         867.00      3777.73
  280.86        2955.25           2218         872.00      3799.53
  280.89        2955.50           2222         874.00      3808.25
  280.92        2955.75           2225         893.00      3891.10
  280.95        2956.00           2229         874.00      3808.25
  280.98        2956.25           2232         883.00      3847.50
  281.01        2956.50           2236         906.00      3947.78
  281.04        2956.75           2239         871.00      3795.17
  281.07        2957.00           2243         904.00      3939.06
  281.10        2957.25           2246         896.00      3904.18
  281.14        2957.50           2250         903.00      3934.70
  281.17        2957.75           2254         928.00      4043.71
  281.20        2958.00           2257         904.00      3939.06
  281.23        2958.25           2261         963.00      4196.33
  281.26        2958.50           2264         948.00      4130.92
  281.29        2958.75           2268         934.00      4069.87
  281.32        2959.00           2271         969.00      4222.49
  281.35        2959.25           2275         969.00      4222.49
  281.38        2959.50           2278         994.00      4331.50
  281.41        2959.75           2282        1022.00      4453.60
  281.44        2960.00           2285        1023.00      4457.96
  281.47        2960.25           2289        1006.00      4383.83
  281.50        2960.50           2293        1070.00      4662.90
  281.53        2960.75           2296        1051.00      4580.05
  281.56        2961.00           2300        1109.00      4832.97
  281.59        2961.25           2303        1299.00      5661.51
  281.62        2961.50           2307        3805.00     16593.93
  281.66        2961.75           2310        9143.00     39908.08
  281.69        2962.00           2314       19672.00     86003.08
  281.72        2962.25           2317       27736.00    121404.60
  281.75        2962.50           2321       38210.00    167514.10
  281.78        2962.75           2324       46139.00    202516.50
  281.81        2963.00           2328       56947.00    250363.20
  281.84        2963.25           2331       65985.00    290494.50
  281.87        2963.50           2335       77729.00    342806.30
  281.90        2963.75           2339       89593.00    395843.30
  281.93        2964.00           2342       98043.00    433736.10
  281.96        2964.25           2346      110800.00    491130.00
  281.99        2964.50           2349      120175.00    533452.70
  282.02        2964.75           2353      133107.00    592035.60
  282.05        2965.00           2356      141216.00    628890.70
  282.08        2965.25           2360      152109.00    678546.30
  282.11        2965.50           2363      159967.00    714472.60
  282.14        2965.75           2367      171060.00    765340.80
  282.18        2966.00           2370      179003.00    801874.10
  282.21        2966.25           2374      188307.00    844784.60
  282.24        2966.50           2378      195156.00    876454.10
  282.27        2966.75           2381      196826.00    884186.40
  282.30        2967.00           2385      197490.00    887262.10
  282.33        2967.25           2388      197765.00    888536.10
  282.36        2967.50           2392      197594.00    887743.90
  282.39        2967.75           2395      197407.00    886877.60
  282.42        2968.00           2399      193999.00    871099.20
  282.45        2968.25           2402      187634.00    841676.50
  282.48        2968.50           2406      177432.00    794641.10
  282.51        2968.75           2409      169548.00    758396.80
  282.54        2969.00           2413      158480.00    707667.30
  282.57        2969.25           2417      147839.00    659061.30
  282.60        2969.50           2420      140650.00    626315.30
  282.63        2969.75           2424      129975.00    577825.80
  282.66        2970.00           2427      121144.00    537834.10
  282.70        2970.25           2431      108493.00    480734.00
  282.73        2970.50           2434       99215.00    438999.50
  282.76        2970.75           2438       87589.00    386871.00
  282.79        2971.00           2441       79229.00    349501.30
  282.82        2971.25           2445       67769.00    298429.00
  282.85        2971.50           2449       57415.00    252438.60
  282.88        2971.75           2452       49489.00    217330.20
  282.91        2972.00           2456       38254.00    167708.10
  282.94        2972.25           2459       29198.00    127832.10
  282.97        2972.50           2463       17199.00     75163.50
  283.00        2972.75           2466        9584.00     41835.85
  283.03        2973.00           2470        3308.00     14425.12
  283.06        2973.25           2473        1693.00      7379.79
  283.09        2973.50           2477        1162.00      5064.08
  283.12        2973.75           2481        1062.00      4628.02
  283.15        2974.00           2484        1042.00      4540.81
  283.18        2974.25           2488        1029.00      4484.12
  283.22        2974.50           2491        1023.00      4457.96
  283.25        2974.75           2495        1022.00      4453.60
  283.28        2975.00           2498         993.00      4327.14
  283.31        2975.25           2502         987.00      4300.98
  283.34        2975.50           2505         972.00      4235.57
  283.37        2975.75           2509         963.00      4196.33
  283.40        2976.00           2512         940.00      4096.04
  283.43        2976.25           2516         929.00      4048.07
  283.46        2976.50           2520         942.00      4104.76
  283.49        2976.75           2523         926.00      4034.99
  283.52        2977.00           2527         888.00      3869.30
  283.55        2977.25           2530         902.00      3930.34
  283.58        2977.50           2534         886.00      3860.58
  283.61        2977.75           2537         887.00      3864.94
  283.64        2978.00           2541         894.00      3895.46
  283.67        2978.25           2544         871.00      3795.17
  283.70        2978.50           2548         840.00      3660.00
  283.74        2978.75           2552         879.00      3830.05
  283.77        2979.00           2555         854.00      3721.05
  283.80        2979.25           2559         850.00      3703.60
  283.83        2979.50           2562         854.00      3721.05
  283.86        2979.75           2566         825.00      3594.60
  283.89        2980.00           2569         835.00      3638.20
  283.92        2980.25           2573         851.00      3707.97
  283.95        2980.50           2577         810.00      3529.19
  283.98        2980.75           2580         825.00      3594.60
  284.01        2981.00           2584         822.00      3581.52
  284.04        2981.25           2587         811.00      3533.55
  284.07        2981.50           2591         791.00      3446.35
  284.10        2981.75           2594         803.00      3498.67
  284.13        2982.00           2598         809.00      3524.83
  284.16        2982.25           2601         827.00      3603.32
  284.19        2982.50           2605         773.00      3367.87
  284.22        2982.75           2609         783.00      3411.47
  284.25        2983.00           2612         765.00      3332.98
  284.29        2983.25           2616         783.00      3411.47
  284.32        2983.50           2619         783.00      3411.47
  284.35        2983.75           2623         782.00      3407.11
  284.38        2984.00           2626         766.00      3337.34
HS scan finished at 04:44:36
end
************************************************************
  HS Scan of 
************************************************************
Integration time is 0.2294 seconds per sample
dh130217Reading 51.44 .94 2.84pr1000
************************************************************
Dead Time -------------------------  3.4E-08 
Number of Cycles Used -------------  4 
Starting Wavelength (Angstroms) ---  2950 
Final Wavelength (Angstoms) -------  2984 
Wavelength Increment (Angstroms) --  .25 
Filter Wheel #1 Position ---------- (1) Ground quartz diffuser (ND=2.32)
Filter Wheel #2 Position ---------- (1) Neutral Density 0.494



************************************************************
HS scan start time = 18:07:27
Dark Count =  1 


Time (GMT)  Wavelength (Ang)  Step Number  Raw Counts  Counts/Second

 1088.35        2950.00           2144         759.00      3304.64
 1088.55        2950.25           2147         758.00      3300.28
 1088.58        2950.50           2151         756.00      3291.56
 1088.61        2950.75           2155         758.00      3300.28
 1088.64        2951.00           2158         785.00      3418.01
 1088.67        2951.25           2162         793.00      3452.89
 1088.70        2951.50           2165         767.00      3339.53
 1088.73        2951.75           2169         787.00      3426.73
 1088.76        2952.00           2172         762.00      3317.72
 1088.79        2952.25           2176         803.00      3496.49
 1088.82        2952.50           2179         792.00      3448.53
 1088.85        2952.75           2183         778.00      3387.49
 1088.88        2953.00           2186         788.00      3431.09
 1088.91        2953.25           2190         792.00      3448.53
 1088.94        2953.50           2193         760.00      3309.00
 1088.97        2953.75           2197         785.00      3418.01
 1089.01        2954.00           2200         781.00      3400.57
 1089.04        2954.25           2204         748.00      3256.68
 1089.07        2954.50           2208         790.00      3439.81
 1089.10        2954.75           2211         794.00      3457.25
 1089.13        2955.00           2215         804.00      3500.85
 1089.16        2955.25           2218         799.00      3479.05
 1089.19        2955.50           2222         790.00      3439.81
 1089.22        2955.75           2225         794.00      3457.25
 1089.25        2956.00           2229         795.00      3461.61
 1089.28        2956.25           2232         819.00      3566.26
 1089.31        2956.50           2236         825.00      3592.42
 1089.34        2956.75           2239         817.00      3557.54
 1089.37        2957.00           2243         816.00      3553.18
 1089.40        2957.25           2246         874.00      3806.07
 1089.43        2957.50           2250         858.00      3736.31
 1089.46        2957.75           2254         861.00      3749.39
 1089.49        2958.00           2257         844.00      3675.26
 1089.53        2958.25           2261         839.00      3653.46
 1089.56        2958.50           2264         869.00      3784.27
 1089.59        2958.75           2268         868.00      3779.91
 1089.62        2959.00           2271         864.00      3762.47
 1089.65        2959.25           2275         877.00      3819.15
 1089.68        2959.50           2278         899.00      3915.08
 1089.71        2959.75           2282         942.00      4102.58
 1089.74        2960.00           2285         913.00      3976.13
 1089.77        2960.25           2289         935.00      4072.05
 1089.80        2960.50           2293         935.00      4072.05
 1089.83        2960.75           2296         953.00      4150.54
 1089.86        2961.00           2300        1000.00      4355.48
 1089.89        2961.25           2303        1137.00      4952.88
 1089.92        2961.50           2307        2972.00     12956.88
 1089.95        2961.75           2310        7584.00     33093.01
 1089.98        2962.00           2314       16138.00     70513.22
 1090.01        2962.25           2317       23009.00    100640.20
 1090.05        2962.50           2321       31311.00    137124.30
 1090.08        2962.75           2324       37790.00    165660.20
 1090.11        2963.00           2328       48019.00    210825.80
 1090.14        2963.25           2331       55969.00    246025.00
 1090.17        2963.50           2335       66087.00    290945.90
 1090.20        2963.75           2339       75744.00    333949.00
 1090.23        2964.00           2342       83165.00    367081.30
 1090.26        2964.25           2346       92519.00    408951.10
 1090.29        2964.50           2349       99424.00    439936.10
 1090.32        2964.75           2353      109168.00    483772.70
 1090.35        2965.00           2356      115956.00    514388.90
 1090.38        2965.25           2360      125115.00    555801.20
 1090.41        2965.50           2363      133120.00    592092.50
 1090.44        2965.75           2367      142080.00    632820.80
 1090.47        2966.00           2370      147754.00    658671.50
 1090.50        2966.25           2374      155947.00    696080.00
 1090.53        2966.50           2378      161384.00    720958.10
 1090.57        2966.75           2381      163065.00    728658.50
 1090.60        2967.00           2385      162905.00    727925.50
 1090.63        2967.25           2388      163803.00    732040.50
 1090.66        2967.50           2392      162965.00    728200.40
 1090.69        2967.75           2395      162738.00    727160.30
 1090.72        2968.00           2399      159623.00    712895.70
 1090.75        2968.25           2402      155022.00    691851.80
 1090.78        2968.50           2406      146871.00    654645.60
 1090.81        2968.75           2409      139550.00    621309.00
 1090.84        2969.00           2413      130693.00    581079.90
 1090.87        2969.25           2417      121787.00    540740.10
 1090.90        2969.50           2420      115878.00    514036.70
 1090.93        2969.75           2424      106439.00    471482.10
 1090.96        2970.00           2427       99114.00    438543.60
 1090.99        2970.25           2431       89851.00    396996.50
 1091.02        2970.50           2434       82392.00    363626.70
 1091.05        2970.75           2438       71971.00    317132.60
 1091.09        2971.00           2441       64743.00    284971.00
 1091.12        2971.25           2445       55136.00    242332.90
 1091.15        2971.50           2449       46304.00    203243.60
 1091.18        2971.75           2452       39833.00    174669.80
 1091.21        2972.00           2456       31232.00    136776.70
 1091.24        2972.25           2459       24235.00    106022.30
 1091.27        2972.50           2463       14267.00     62320.23
 1091.30        2972.75           2466        7862.00     34307.65
 1091.33        2973.00           2470        2701.00     11774.55
 1091.36        2973.25           2473        1360.00      5925.34
 1091.39        2973.50           2477        1022.00      4451.42
 1091.42        2973.75           2481         944.00      4111.30
 1091.45        2974.00           2484         950.00      4137.46
 1091.48        2974.25           2488         904.00      3936.88
 1091.51        2974.50           2491         931.00      4054.61
 1091.54        2974.75           2495         904.00      3936.88
 1091.57        2975.00           2498         873.00      3801.71
 1091.61        2975.25           2502         886.00      3858.40
 1091.64        2975.50           2505         867.00      3775.55
 1091.67        2975.75           2509         879.00      3827.87
 1091.70        2976.00           2512         844.00      3675.26
 1091.73        2976.25           2516         833.00      3627.30
 1091.76        2976.50           2520         843.00      3670.90
 1091.79        2976.75           2523         853.00      3714.51
 1091.82        2977.00           2527         824.00      3588.06
 1091.85        2977.25           2530         803.00      3496.49
 1091.88        2977.50           2534         797.00      3470.33
 1091.91        2977.75           2537         822.00      3579.34
 1091.94        2978.00           2541         828.00      3605.50
 1091.97        2978.25           2544         796.00      3465.97
 1092.00        2978.50           2548         779.00      3391.85
 1092.03        2978.75           2552         800.00      3483.41
 1092.06        2979.00           2555         817.00      3557.54
 1092.09        2979.25           2559         782.00      3404.93
 1092.13        2979.50           2562         750.00      3265.40
 1092.16        2979.75           2566         758.00      3300.28
 1092.19        2980.00           2569         766.00      3335.16
 1092.22        2980.25           2573         753.00      3278.48
 1092.25        2980.50           2577         763.00      3322.08
 1092.28        2980.75           2580         744.00      3239.24
 1092.31        2981.00           2584         763.00      3322.08
 1092.34        2981.25           2587         740.00      3221.80
 1092.37        2981.50           2591         725.00      3156.40
 1092.40        2981.75           2594         726.00      3160.76
 1092.43        2982.00           2598         687.00      2990.71
 1092.46        2982.25           2601         758.00      3300.28
 1092.49        2982.50           2605         744.00      3239.24
 1092.52        2982.75           2609         711.00      3095.36
 1092.55        2983.00           2612         714.00      3108.44
 1092.58        2983.25           2616         714.00      3108.44
 1092.61        2983.50           2619         729.00      3173.84
 1092.64        2983.75           2623         708.00      3082.28
 1092.68        2984.00           2626         755.00      3287.20
HS scan finished at 18:12:54
end
