************************************************************
  HS Scan of 
************************************************************
Integration time is 0.2294 seconds per sample
dh150217Reading 51.44 .94 3.01pr1000
************************************************************
Dead Time -------------------------  3.4E-08 
Number of Cycles Used -------------  4 
Starting Wavelength (Angstroms) ---  2950 
Final Wavelength (Angstoms) -------  2984 
Wavelength Increment (Angstroms) --  .25 
Filter Wheel #1 Position ---------- (1) Ground quartz diffuser (ND=2.32)
Filter Wheel #2 Position ---------- (1) Neutral Density 0.494



************************************************************
HS scan start time = 04:35:29
Dark Count =  1 


Time (GMT)  Wavelength (Ang)  Step Number  Raw Counts  Counts/Second

  276.39        2950.00           2144         736.00      3204.36
  276.58        2950.25           2147         755.00      3287.20
  276.61        2950.50           2151         771.00      3356.97
  276.64        2950.75           2155         751.00      3269.76
  276.67        2951.00           2158         780.00      3396.21
  276.70        2951.25           2162         766.00      3335.16
  276.73        2951.50           2165         757.00      3295.92
  276.76        2951.75           2169         773.00      3365.69
  276.79        2952.00           2172         807.00      3513.93
  276.82        2952.25           2176         772.00      3361.33
  276.85        2952.50           2179         760.00      3309.00
  276.89        2952.75           2183         788.00      3431.09
  276.92        2953.00           2186         793.00      3452.89
  276.95        2953.25           2190         784.00      3413.65
  276.98        2953.50           2193         804.00      3500.85
  277.01        2953.75           2197         772.00      3361.33
  277.04        2954.00           2200         809.00      3522.65
  277.07        2954.25           2204         801.00      3487.77
  277.10        2954.50           2208         807.00      3513.93
  277.13        2954.75           2211         779.00      3391.85
  277.16        2955.00           2215         830.00      3614.22
  277.19        2955.25           2218         816.00      3553.18
  277.22        2955.50           2222         806.00      3509.57
  277.25        2955.75           2225         830.00      3614.22
  277.28        2956.00           2229         838.00      3649.10
  277.31        2956.25           2232         856.00      3727.59
  277.34        2956.50           2236         851.00      3705.79
  277.37        2956.75           2239         858.00      3736.31
  277.41        2957.00           2243         862.00      3753.75
  277.44        2957.25           2246         878.00      3823.51
  277.47        2957.50           2250         836.00      3640.38
  277.50        2957.75           2254         887.00      3862.76
  277.53        2958.00           2257         915.00      3984.85
  277.56        2958.25           2261         862.00      3753.75
  277.59        2958.50           2264         910.00      3963.04
  277.62        2958.75           2268         918.00      3997.93
  277.65        2959.00           2271         878.00      3823.51
  277.68        2959.25           2275         945.00      4115.66
  277.71        2959.50           2278         923.00      4019.73
  277.74        2959.75           2282         961.00      4185.43
  277.77        2960.00           2285         959.00      4176.70
  277.80        2960.25           2289        1014.00      4416.53
  277.83        2960.50           2293        1021.00      4447.05
  277.86        2960.75           2296        1009.00      4394.73
  277.89        2961.00           2300        1105.00      4813.34
  277.93        2961.25           2303        1322.00      5759.63
  277.96        2961.50           2307        4472.00     19502.90
  277.99        2961.75           2310       10540.00     46013.52
  278.02        2962.00           2314       20717.00     90583.69
  278.05        2962.25           2317       29184.00    127768.30
  278.08        2962.50           2321       41061.00    180088.00
  278.11        2962.75           2324       51007.00    224045.50
  278.14        2963.00           2328       63515.00    279513.90
  278.17        2963.25           2331       72966.00    321565.50
  278.20        2963.50           2335       85998.00    379749.60
  278.23        2963.75           2339       98364.00    435175.20
  278.26        2964.00           2342      108171.00    479281.30
  278.29        2964.25           2346      121992.00    541667.40
  278.32        2964.50           2349      132274.00    588252.70
  278.35        2964.75           2353      144920.00    645754.10
  278.38        2965.00           2356      153626.00    685472.80
  278.41        2965.25           2360      166152.00    742810.30
  278.45        2965.50           2363      174850.00    782758.90
  278.48        2965.75           2367      186168.00    834906.00
  278.51        2966.00           2370      194207.00    872059.40
  278.54        2966.25           2374      204928.00    921757.10
  278.57        2966.50           2378      212776.00    958245.20
  278.60        2966.75           2381      214912.00    968192.20
  278.63        2967.00           2385      215877.00    972688.20
  278.66        2967.25           2388      215914.00    972860.60
  278.69        2967.50           2392      215774.00    972208.40
  278.72        2967.75           2395      215783.00    972250.20
  278.75        2968.00           2399      210564.00    947951.50
  278.78        2968.25           2402      203384.00    914589.10
  278.81        2968.50           2406      192394.00    863672.10
  278.84        2968.75           2409      184293.00    826254.00
  278.87        2969.00           2413      172441.00    771683.70
  278.90        2969.25           2417      161609.00    721988.60
  278.93        2969.50           2420      152334.00    679571.50
  278.97        2969.75           2424      139714.00    622054.80
  279.00        2970.00           2427      129570.00    575987.10
  279.03        2970.25           2431      116019.00    514673.30
  279.06        2970.50           2434      106705.00    472679.70
  279.09        2970.75           2438       95228.00    421099.50
  279.12        2971.00           2441       87064.00    384519.20
  279.15        2971.25           2445       75658.00    333565.50
  279.18        2971.50           2449       62637.00    275613.40
  279.21        2971.75           2452       53024.00    232975.90
  279.24        2972.00           2456       40134.00    175997.70
  279.27        2972.25           2459       29663.00    129874.80
  279.30        2972.50           2463       17188.00     75113.13
  279.33        2972.75           2466        9547.00     41671.91
  279.36        2973.00           2470        3610.00     15740.77
  279.39        2973.25           2473        1771.00      7717.81
  279.42        2973.50           2477        1168.00      5088.06
  279.45        2973.75           2481        1101.00      4795.90
  279.49        2974.00           2484        1047.00      4560.43
  279.52        2974.25           2488        1040.00      4529.90
  279.55        2974.50           2491        1005.00      4377.29
  279.58        2974.75           2495         997.00      4342.40
  279.61        2975.00           2498         945.00      4115.66
  279.64        2975.25           2502         971.00      4229.03
  279.67        2975.50           2505         954.00      4154.90
  279.70        2975.75           2509         934.00      4067.69
  279.73        2976.00           2512         904.00      3936.88
  279.76        2976.25           2516         914.00      3980.49
  279.79        2976.50           2520         904.00      3936.88
  279.82        2976.75           2523         887.00      3862.76
  279.85        2977.00           2527         893.00      3888.92
  279.88        2977.25           2530         848.00      3692.70
  279.91        2977.50           2534         857.00      3731.95
  279.94        2977.75           2537         856.00      3727.59
  279.97        2978.00           2541         851.00      3705.79
  280.01        2978.25           2544         836.00      3640.38
  280.04        2978.50           2548         825.00      3592.42
  280.07        2978.75           2552         836.00      3640.38
  280.10        2979.00           2555         827.00      3601.14
  280.13        2979.25           2559         816.00      3553.18
  280.16        2979.50           2562         828.00      3605.50
  280.19        2979.75           2566         814.00      3544.46
  280.22        2980.00           2569         784.00      3413.65
  280.25        2980.25           2573         764.00      3326.44
  280.28        2980.50           2577         797.00      3470.33
  280.31        2980.75           2580         778.00      3387.49
  280.34        2981.00           2584         758.00      3300.28
  280.37        2981.25           2587         809.00      3522.65
  280.40        2981.50           2591         765.00      3330.80
  280.43        2981.75           2594         743.00      3234.88
  280.46        2982.00           2598         740.00      3221.80
  280.49        2982.25           2601         750.00      3265.40
  280.53        2982.50           2605         759.00      3304.64
  280.56        2982.75           2609         758.00      3300.28
  280.59        2983.00           2612         723.00      3147.68
  280.62        2983.25           2616         785.00      3418.01
  280.65        2983.50           2619         729.00      3173.84
  280.68        2983.75           2623         743.00      3234.88
  280.71        2984.00           2626         748.00      3256.68
HS scan finished at 04:40:56
end
************************************************************
  HS Scan of 
************************************************************
Integration time is 0.2294 seconds per sample
dh150217Reading 51.44 .94 2.92pr1000
************************************************************
Dead Time -------------------------  3.4E-08 
Number of Cycles Used -------------  4 
Starting Wavelength (Angstroms) ---  2950 
Final Wavelength (Angstoms) -------  2984 
Wavelength Increment (Angstroms) --  .25 
Filter Wheel #1 Position ---------- (1) Ground quartz diffuser (ND=2.32)
Filter Wheel #2 Position ---------- (1) Neutral Density 0.494



************************************************************
HS scan start time = 18:07:26
Dark Count =  .9 


Time (GMT)  Wavelength (Ang)  Step Number  Raw Counts  Counts/Second

 1088.32        2950.00           2144         734.00      3196.08
 1088.52        2950.25           2147         761.00      3313.80
 1088.55        2950.50           2151         764.00      3326.88
 1088.58        2950.75           2155         756.00      3292.00
 1088.61        2951.00           2158         743.00      3235.32
 1088.64        2951.25           2162         782.00      3405.36
 1088.67        2951.50           2165         775.00      3374.84
 1088.70        2951.75           2169         763.00      3322.52
 1088.73        2952.00           2172         760.00      3309.44
 1088.76        2952.25           2176         795.00      3462.05
 1088.79        2952.50           2179         796.00      3466.41
 1088.82        2952.75           2183         771.00      3357.40
 1088.85        2953.00           2186         796.00      3466.41
 1088.89        2953.25           2190         783.00      3409.72
 1088.92        2953.50           2193         789.00      3435.89
 1088.95        2953.75           2197         783.00      3409.72
 1088.98        2954.00           2200         765.00      3331.24
 1089.01        2954.25           2204         783.00      3409.72
 1089.04        2954.50           2208         805.00      3505.65
 1089.07        2954.75           2211         793.00      3453.33
 1089.10        2955.00           2215         798.00      3475.13
 1089.13        2955.25           2218         772.00      3361.76
 1089.16        2955.50           2222         813.00      3540.53
 1089.19        2955.75           2225         835.00      3636.46
 1089.22        2956.00           2229         822.00      3579.77
 1089.25        2956.25           2232         811.00      3531.81
 1089.28        2956.50           2236         817.00      3557.97
 1089.31        2956.75           2239         817.00      3557.97
 1089.34        2957.00           2243         854.00      3719.30
 1089.37        2957.25           2246         843.00      3671.34
 1089.41        2957.50           2250         831.00      3619.02
 1089.44        2957.75           2254         847.00      3688.78
 1089.47        2958.00           2257         862.00      3754.18
 1089.50        2958.25           2261         865.00      3767.27
 1089.53        2958.50           2264         879.00      3828.31
 1089.56        2958.75           2268         916.00      3989.64
 1089.59        2959.00           2271         876.00      3815.23
 1089.62        2959.25           2275         903.00      3932.96
 1089.65        2959.50           2278         927.00      4037.61
 1089.68        2959.75           2282         901.00      3924.24
 1089.71        2960.00           2285         919.00      4002.72
 1089.74        2960.25           2289         916.00      3989.64
 1089.77        2960.50           2293         949.00      4133.54
 1089.80        2960.75           2296         956.00      4164.06
 1089.83        2961.00           2300        1002.00      4364.64
 1089.86        2961.25           2303        1142.00      4975.12
 1089.89        2961.50           2307        2853.00     12438.13
 1089.92        2961.75           2310        7015.00     30607.69
 1089.96        2962.00           2314       15038.00     65696.28
 1089.99        2962.25           2317       21398.00     93571.41
 1090.02        2962.50           2321       30499.00    133552.30
 1090.05        2962.75           2324       38259.00    167728.40
 1090.08        2963.00           2328       49200.00    216049.90
 1090.11        2963.25           2331       56696.00    249248.50
 1090.14        2963.50           2335       66921.00    294655.20
 1090.17        2963.75           2339       76518.00    337401.60
 1090.20        2964.00           2342       84346.00    372361.50
 1090.23        2964.25           2346       94701.00    418735.80
 1090.26        2964.50           2349      103381.00    457722.50
 1090.29        2964.75           2353      112853.00    500385.80
 1090.32        2965.00           2356      119741.00    531488.90
 1090.35        2965.25           2360      128760.00    572315.30
 1090.38        2965.50           2363      136812.00    608861.30
 1090.41        2965.75           2367      145877.00    650115.30
 1090.44        2966.00           2370      152884.00    682083.80
 1090.48        2966.25           2374      162238.00    724870.10
 1090.52        2966.50           2378      169343.00    757453.70
 1090.55        2966.75           2381      171295.00    766418.40
 1090.58        2967.00           2385      172632.00    772561.90
 1090.61        2967.25           2388      172514.00    772019.60
 1090.64        2967.50           2392      172277.00    770930.50
 1090.67        2967.75           2395      172780.00    773242.10
 1090.70        2968.00           2399      171053.00    765306.70
 1090.74        2968.25           2402      165969.00    741971.40
 1090.77        2968.50           2406      157394.00    702697.40
 1090.80        2968.75           2409      151401.00    675312.00
 1090.83        2969.00           2413      143098.00    637455.80
 1090.86        2969.25           2417      133201.00    592460.50
 1090.89        2969.50           2420      125442.00    557282.40
 1090.92        2969.75           2424      115283.00    511351.00
 1090.95        2970.00           2427      107914.00    478124.30
 1090.98        2970.25           2431       97526.00    431413.00
 1091.01        2970.50           2434       90029.00    397794.30
 1091.04        2970.75           2438       79333.00    349963.80
 1091.07        2971.00           2441       71459.00    314852.50
 1091.10        2971.25           2445       60960.00    268166.70
 1091.13        2971.50           2449       50395.00    221337.30
 1091.16        2971.75           2452       41947.00    183998.90
 1091.19        2972.00           2456       31840.00    139452.60
 1091.22        2972.25           2459       24358.00    106562.80
 1091.26        2972.50           2463       15403.00     67294.60
 1091.29        2972.75           2466        9025.00     39390.56
 1091.32        2973.00           2470        3228.00     14074.30
 1091.35        2973.25           2473        1575.00      6863.42
 1091.38        2973.50           2477        1077.00      4691.68
 1091.41        2973.75           2481        1011.00      4403.89
 1091.44        2974.00           2484         986.00      4294.87
 1091.47        2974.25           2488         937.00      4081.21
 1091.50        2974.50           2491         927.00      4037.61
 1091.53        2974.75           2495         942.00      4103.01
 1091.56        2975.00           2498         900.00      3919.88
 1091.59        2975.25           2502         875.00      3810.87
 1091.62        2975.50           2505         868.00      3780.35
 1091.65        2975.75           2509         909.00      3959.12
 1091.68        2976.00           2512         854.00      3719.30
 1091.71        2976.25           2516         860.00      3745.46
 1091.74        2976.50           2520         861.00      3749.82
 1091.78        2976.75           2523         833.00      3627.74
 1091.81        2977.00           2527         820.00      3571.05
 1091.84        2977.25           2530         830.00      3614.66
 1091.87        2977.50           2534         810.00      3527.45
 1091.90        2977.75           2537         815.00      3549.25
 1091.93        2978.00           2541         809.00      3523.09
 1091.96        2978.25           2544         802.00      3492.57
 1091.99        2978.50           2548         819.00      3566.69
 1092.02        2978.75           2552         772.00      3361.76
 1092.05        2979.00           2555         776.00      3379.20
 1092.08        2979.25           2559         829.00      3610.30
 1092.11        2979.50           2562         796.00      3466.41
 1092.14        2979.75           2566         789.00      3435.89
 1092.17        2980.00           2569         780.00      3396.64
 1092.20        2980.25           2573         751.00      3270.20
 1092.23        2980.50           2577         769.00      3348.68
 1092.26        2980.75           2580         777.00      3383.56
 1092.30        2981.00           2584         751.00      3270.20
 1092.33        2981.25           2587         757.00      3296.36
 1092.36        2981.50           2591         767.00      3339.96
 1092.39        2981.75           2594         743.00      3235.32
 1092.42        2982.00           2598         711.00      3095.79
 1092.45        2982.25           2601         744.00      3239.68
 1092.48        2982.50           2605         742.00      3230.96
 1092.51        2982.75           2609         740.00      3222.24
 1092.54        2983.00           2612         732.00      3187.36
 1092.57        2983.25           2616         732.00      3187.36
 1092.60        2983.50           2619         730.00      3178.63
 1092.63        2983.75           2623         726.00      3161.19
 1092.66        2984.00           2626         698.00      3039.11
HS scan finished at 18:12:53
end
