************************************************************
  HS Scan of 
************************************************************
Integration time is 0.2294 seconds per sample
dh140217Reading 51.44 .94 2.5pr1000
************************************************************
Dead Time -------------------------  3.4E-08 
Number of Cycles Used -------------  4 
Starting Wavelength (Angstroms) ---  2950 
Final Wavelength (Angstoms) -------  2984 
Wavelength Increment (Angstroms) --  .25 
Filter Wheel #1 Position ---------- (1) Ground quartz diffuser (ND=2.32)
Filter Wheel #2 Position ---------- (1) Neutral Density 0.494



************************************************************
HS scan start time = 04:40:20
Dark Count =  .4 


Time (GMT)  Wavelength (Ang)  Step Number  Raw Counts  Counts/Second

  281.23        2950.00           2144         854.00      3721.48
  281.42        2950.25           2147         828.00      3608.11
  281.45        2950.50           2151         858.00      3738.92
  281.48        2950.75           2155         873.00      3804.33
  281.51        2951.00           2158         863.00      3760.73
  281.54        2951.25           2162         848.00      3695.32
  281.57        2951.50           2165         874.00      3808.69
  281.60        2951.75           2169         863.00      3760.73
  281.64        2952.00           2172         858.00      3738.92
  281.67        2952.25           2176         864.00      3765.09
  281.70        2952.50           2179         867.00      3778.17
  281.73        2952.75           2183         892.00      3887.17
  281.76        2953.00           2186         873.00      3804.33
  281.79        2953.25           2190         875.00      3813.05
  281.82        2953.50           2193         883.00      3847.93
  281.85        2953.75           2197         912.00      3974.38
  281.88        2954.00           2200         876.00      3817.41
  281.91        2954.25           2204         878.00      3826.13
  281.94        2954.50           2208         863.00      3760.73
  281.97        2954.75           2211         897.00      3908.98
  282.00        2955.00           2215         884.00      3852.29
  282.03        2955.25           2218         908.00      3956.94
  282.06        2955.50           2222         904.00      3939.50
  282.09        2955.75           2225         937.00      4083.39
  282.13        2956.00           2229         911.00      3970.02
  282.16        2956.25           2232         927.00      4039.79
  282.19        2956.50           2236         958.00      4174.96
  282.22        2956.75           2239         906.00      3948.22
  282.25        2957.00           2243         944.00      4113.91
  282.28        2957.25           2246         929.00      4048.51
  282.31        2957.50           2250         931.00      4057.23
  282.34        2957.75           2254         978.00      4262.17
  282.37        2958.00           2257         969.00      4222.93
  282.40        2958.25           2261         977.00      4257.81
  282.43        2958.50           2264         976.00      4253.45
  282.46        2958.75           2268         995.00      4336.30
  282.49        2959.00           2271        1027.00      4475.83
  282.52        2959.25           2275         978.00      4262.17
  282.55        2959.50           2278        1053.00      4589.21
  282.58        2959.75           2282        1041.00      4536.88
  282.61        2960.00           2285        1032.00      4497.64
  282.65        2960.25           2289        1024.00      4462.75
  282.68        2960.50           2293        1073.00      4676.42
  282.71        2960.75           2296        1109.00      4833.40
  282.74        2961.00           2300        1167.00      5086.32
  282.77        2961.25           2303        1451.00      6324.81
  282.80        2961.50           2307        4599.00     20059.89
  282.83        2961.75           2310       10152.00     44319.57
  282.86        2962.00           2314       19994.00     87415.49
  282.89        2962.25           2317       28247.00    123651.30
  282.92        2962.50           2321       38960.00    170821.90
  282.95        2962.75           2324       46451.00    203896.00
  282.98        2963.00           2328       57680.00    253614.30
  283.01        2963.25           2331       67133.00    295600.40
  283.04        2963.50           2335       81261.00    358576.10
  283.07        2963.75           2339       94229.00    416621.00
  283.10        2964.00           2342      102820.00    455201.90
  283.13        2964.25           2346      114814.00    509236.30
  283.17        2964.50           2349      123397.00    548027.10
  283.20        2964.75           2353      135828.00    604392.50
  283.23        2965.00           2356      144520.00    643934.40
  283.26        2965.25           2360      155017.00    691831.50
  283.29        2965.50           2363      163116.00    728895.00
  283.32        2965.75           2367      174171.00    779639.10
  283.35        2966.00           2370      181368.00    812770.00
  283.38        2966.25           2374      192672.00    864960.60
  283.41        2966.50           2378      201664.00    906611.40
  283.44        2966.75           2381      203668.00    915910.10
  283.47        2967.00           2385      204616.00    920311.10
  283.50        2967.25           2388      204932.00    921778.30
  283.53        2967.50           2392      204502.00    919781.80
  283.56        2967.75           2395      204371.00    919173.50
  283.59        2968.00           2399      202347.00    909779.90
  283.62        2968.25           2402      197125.00    885571.80
  283.65        2968.50           2406      186749.00    837590.70
  283.69        2968.75           2409      178076.00    797606.10
  283.72        2969.00           2413      165361.00    739185.50
  283.75        2969.25           2417      154268.00    688408.80
  283.78        2969.50           2420      145285.00    647419.80
  283.81        2969.75           2424      134210.00    597043.60
  283.84        2970.00           2427      124920.00    554921.00
  283.87        2970.25           2431      111659.00    495003.20
  283.90        2970.50           2434      103160.00    456730.90
  283.93        2970.75           2438       90766.00    401098.00
  283.96        2971.00           2441       81611.00    360139.70
  283.99        2971.25           2445       69870.00    307779.40
  284.02        2971.50           2449       57528.00    252940.20
  284.05        2971.75           2452       48886.00    214663.10
  284.08        2972.00           2456       36316.00    159165.90
  284.11        2972.25           2459       27023.00    118271.50
  284.14        2972.50           2463       15515.00     67787.27
  284.17        2972.75           2466        8036.00     35070.57
  284.20        2973.00           2470        2631.00     11471.78
  284.24        2973.25           2473        1484.00      6468.73
  284.27        2973.50           2477        1189.00      5182.26
  284.30        2973.75           2481        1115.00      4859.57
  284.33        2974.00           2484        1102.00      4802.88
  284.36        2974.25           2488        1091.00      4754.91
  284.39        2974.50           2491        1009.00      4397.34
  284.42        2974.75           2495        1073.00      4676.42
  284.45        2975.00           2498        1012.00      4410.43
  284.48        2975.25           2502        1021.00      4449.67
  284.51        2975.50           2505        1001.00      4362.46
  284.55        2975.75           2509        1009.00      4397.34
  284.59        2976.00           2512        1006.00      4384.26
  284.62        2976.25           2516         961.00      4188.04
  284.65        2976.50           2520         981.00      4275.25
  284.68        2976.75           2523         921.00      4013.63
  284.71        2977.00           2527         940.00      4096.47
  284.74        2977.25           2530         924.00      4026.71
  284.77        2977.50           2534         913.00      3978.74
  284.80        2977.75           2537         926.00      4035.43
  284.83        2978.00           2541         891.00      3882.81
  284.86        2978.25           2544         920.00      4009.27
  284.89        2978.50           2548         931.00      4057.23
  284.92        2978.75           2552         892.00      3887.17
  284.95        2979.00           2555         880.00      3834.85
  284.98        2979.25           2559         858.00      3738.92
  285.02        2979.50           2562         864.00      3765.09
  285.05        2979.75           2566         875.00      3813.05
  285.08        2980.00           2569         874.00      3808.69
  285.11        2980.25           2573         856.00      3730.20
  285.14        2980.50           2577         846.00      3686.60
  285.17        2980.75           2580         843.00      3673.52
  285.21        2981.00           2584         865.00      3769.45
  285.24        2981.25           2587         837.00      3647.36
  285.27        2981.50           2591         849.00      3699.68
  285.30        2981.75           2594         825.00      3595.03
  285.33        2982.00           2598         814.00      3547.07
  285.36        2982.25           2601         834.00      3634.28
  285.39        2982.50           2605         834.00      3634.28
  285.42        2982.75           2609         835.00      3638.64
  285.45        2983.00           2612         806.00      3512.19
  285.48        2983.25           2616         795.00      3464.23
  285.51        2983.50           2619         818.00      3564.51
  285.54        2983.75           2623         805.00      3507.83
  285.57        2984.00           2626         819.00      3568.87
HS scan finished at 04:45:48
end
************************************************************
  HS Scan of 
************************************************************
Integration time is 0.2294 seconds per sample
dh140217Reading 51.44 .94 3.07pr1000
************************************************************
Dead Time -------------------------  3.4E-08 
Number of Cycles Used -------------  4 
Starting Wavelength (Angstroms) ---  2950 
Final Wavelength (Angstoms) -------  2984 
Wavelength Increment (Angstroms) --  .25 
Filter Wheel #1 Position ---------- (1) Ground quartz diffuser (ND=2.32)
Filter Wheel #2 Position ---------- (1) Neutral Density 0.494



************************************************************
HS scan start time = 18:07:29
Dark Count =  1.7 


Time (GMT)  Wavelength (Ang)  Step Number  Raw Counts  Counts/Second

 1088.38        2950.00           2144         731.00      3179.51
 1088.57        2950.25           2147         742.00      3227.47
 1088.60        2950.50           2151         758.00      3297.23
 1088.63        2950.75           2155         740.00      3218.75
 1088.66        2951.00           2158         758.00      3297.23
 1088.70        2951.25           2162         770.00      3349.55
 1088.73        2951.50           2165         753.00      3275.43
 1088.76        2951.75           2169         791.00      3441.12
 1088.79        2952.00           2172         764.00      3323.39
 1088.82        2952.25           2176         776.00      3375.71
 1088.85        2952.50           2179         769.00      3345.19
 1088.88        2952.75           2183         750.00      3262.35
 1088.91        2953.00           2186         772.00      3358.27
 1088.94        2953.25           2190         769.00      3345.19
 1088.97        2953.50           2193         771.00      3353.91
 1089.00        2953.75           2197         795.00      3458.56
 1089.03        2954.00           2200         763.00      3319.03
 1089.06        2954.25           2204         775.00      3371.35
 1089.09        2954.50           2208         775.00      3371.35
 1089.12        2954.75           2211         793.00      3449.84
 1089.15        2955.00           2215         806.00      3506.52
 1089.18        2955.25           2218         822.00      3576.29
 1089.21        2955.50           2222         805.00      3502.16
 1089.25        2955.75           2225         813.00      3537.04
 1089.28        2956.00           2229         786.00      3419.32
 1089.31        2956.25           2232         807.00      3510.88
 1089.34        2956.50           2236         810.00      3523.96
 1089.37        2956.75           2239         820.00      3567.56
 1089.40        2957.00           2243         833.00      3624.25
 1089.43        2957.25           2246         856.00      3724.53
 1089.46        2957.50           2250         820.00      3567.56
 1089.49        2957.75           2254         841.00      3659.13
 1089.52        2958.00           2257         844.00      3672.21
 1089.55        2958.25           2261         848.00      3689.65
 1089.58        2958.50           2264         875.00      3807.38
 1089.61        2958.75           2268         887.00      3859.70
 1089.64        2959.00           2271         857.00      3728.90
 1089.67        2959.25           2275         926.00      4029.76
 1089.70        2959.50           2278         912.00      3968.71
 1089.74        2959.75           2282         902.00      3925.11
 1089.77        2960.00           2285         940.00      4090.80
 1089.80        2960.25           2289         945.00      4112.61
 1089.83        2960.50           2293         965.00      4199.82
 1089.86        2960.75           2296         973.00      4234.70
 1089.89        2961.00           2300         989.00      4304.47
 1089.92        2961.25           2303        1207.00      5255.08
 1089.95        2961.50           2307        3601.00     15698.44
 1089.98        2961.75           2310        8458.00     36908.97
 1090.01        2962.00           2314       16713.00     73028.98
 1090.04        2962.25           2317       24433.00    106888.60
 1090.07        2962.50           2321       35052.00    153591.20
 1090.10        2962.75           2324       42813.00    187818.50
 1090.13        2963.00           2328       53093.00    233278.50
 1090.16        2963.25           2331       60844.00    267648.20
 1090.19        2963.50           2335       72045.00    317459.10
 1090.22        2963.75           2339       83648.00    369237.30
 1090.25        2964.00           2342       92060.00    406890.60
 1090.29        2964.25           2346      104237.00    461569.40
 1090.32        2964.50           2349      112142.00    497175.40
 1090.35        2964.75           2353      122239.00    542781.50
 1090.38        2965.00           2356      130266.00    579140.10
 1090.41        2965.25           2360      140268.00    624571.80
 1090.44        2965.50           2363      147521.00    657605.80
 1090.47        2965.75           2367      157679.00    703997.30
 1090.50        2966.00           2370      165125.00    738097.40
 1090.53        2966.25           2374      175096.00    783887.00
 1090.56        2966.50           2378      181887.00    815156.10
 1090.59        2966.75           2381      183389.00    822081.10
 1090.62        2967.00           2385      183452.00    822371.80
 1090.65        2967.25           2388      183732.00    823663.00
 1090.68        2967.50           2392      183601.00    823058.90
 1090.71        2967.75           2395      183309.00    821712.30
 1090.74        2968.00           2399      179158.00    802582.30
 1090.77        2968.25           2402      172520.00    772043.50
 1090.81        2968.50           2406      165221.00    738537.60
 1090.84        2968.75           2409      157158.00    701614.30
 1090.87        2969.00           2413      147312.00    656652.90
 1090.90        2969.25           2417      137340.00    611257.40
 1090.93        2969.50           2420      130064.00    578224.00
 1090.96        2969.75           2424      118742.00    526970.10
 1090.99        2970.00           2427      110127.00    488091.10
 1091.02        2970.25           2431       99342.00    439564.60
 1091.05        2970.50           2434       91455.00    404179.30
 1091.08        2970.75           2438       81321.00    358838.30
 1091.11        2971.00           2441       73603.00    324401.00
 1091.14        2971.25           2445       62940.00    276956.30
 1091.18        2971.50           2449       51812.00    227605.90
 1091.21        2971.75           2452       43152.00    189315.40
 1091.24        2972.00           2456       32309.00    141513.20
 1091.27        2972.25           2459       24789.00    108451.90
 1091.30        2972.50           2463       15635.00     68307.11
 1091.33        2972.75           2466        9065.00     39561.90
 1091.36        2973.00           2470        2879.00     12548.07
 1091.39        2973.25           2473        1385.00      6031.32
 1091.42        2973.50           2477        1036.00      4509.41
 1091.45        2973.75           2481        1017.00      4426.56
 1091.48        2974.00           2484         964.00      4195.46
 1091.52        2974.25           2488         946.00      4116.97
 1091.55        2974.50           2491         970.00      4221.62
 1091.58        2974.75           2495         914.00      3977.43
 1091.61        2975.00           2498         958.00      4169.29
 1091.64        2975.25           2502         915.00      3981.79
 1091.67        2975.50           2505         874.00      3803.02
 1091.70        2975.75           2509         879.00      3824.82
 1091.73        2976.00           2512         842.00      3663.49
 1091.76        2976.25           2516         882.00      3837.90
 1091.79        2976.50           2520         836.00      3637.33
 1091.82        2976.75           2523         836.00      3637.33
 1091.85        2977.00           2527         829.00      3606.81
 1091.88        2977.25           2530         820.00      3567.56
 1091.91        2977.50           2534         816.00      3550.12
 1091.94        2977.75           2537         807.00      3510.88
 1091.97        2978.00           2541         792.00      3445.48
 1092.00        2978.25           2544         829.00      3606.81
 1092.04        2978.50           2548         796.00      3462.92
 1092.07        2978.75           2552         819.00      3563.20
 1092.10        2979.00           2555         804.00      3497.80
 1092.13        2979.25           2559         748.00      3253.63
 1092.16        2979.50           2562         748.00      3253.63
 1092.19        2979.75           2566         736.00      3201.31
 1092.22        2980.00           2569         775.00      3371.35
 1092.25        2980.25           2573         781.00      3397.52
 1092.28        2980.50           2577         755.00      3284.15
 1092.31        2980.75           2580         762.00      3314.67
 1092.34        2981.00           2584         750.00      3262.35
 1092.37        2981.25           2587         764.00      3323.39
 1092.40        2981.50           2591         750.00      3262.35
 1092.43        2981.75           2594         741.00      3223.11
 1092.46        2982.00           2598         763.00      3319.03
 1092.49        2982.25           2601         721.00      3135.91
 1092.52        2982.50           2605         744.00      3236.19
 1092.55        2982.75           2609         724.00      3148.99
 1092.59        2983.00           2612         742.00      3227.47
 1092.62        2983.25           2616         703.00      3057.42
 1092.65        2983.50           2619         729.00      3170.79
 1092.68        2983.75           2623         693.00      3013.82
 1092.71        2984.00           2626         717.00      3118.46
HS scan finished at 18:12:56
end
