************************************************************
  HS Scan of (1) Internal mercury lamp
************************************************************
Integration time is 0.2294 seconds per sample
dh150219Reading 51.44 .94 2.41pr1000
************************************************************
Dead Time -------------------------  3.4E-08 
Number of Cycles Used -------------  4 
Starting Wavelength (Angstroms) ---  2950 
Final Wavelength (Angstoms) -------  2984 
Wavelength Increment (Angstroms) --  .25 
Filter Wheel #1 Position ---------- (1) Ground quartz diffuser (ND=2.32)
Filter Wheel #2 Position ---------- (1) Neutral Density 0.494



************************************************************
HS scan start time = 04:39:21
Dark Count =  .3 


Time (GMT)  Wavelength (Ang)  Step Number  Raw Counts  Counts/Second

  280.25        2950.00           2144        1589.00      6927.09
  280.45        2950.25           2147        1654.00      7210.57
  280.48        2950.50           2151        1627.00      7092.82
  280.51        2950.75           2155        1642.00      7158.24
  280.54        2951.00           2158        1622.00      7071.01
  280.57        2951.25           2162        1655.00      7214.93
  280.60        2951.50           2165        1626.00      7088.46
  280.63        2951.75           2169        1649.00      7188.77
  280.66        2952.00           2172        1670.00      7280.36
  280.69        2952.25           2176        1626.00      7088.46
  280.72        2952.50           2179        1663.00      7249.83
  280.75        2952.75           2183        1637.00      7136.43
  280.78        2953.00           2186        1662.00      7245.46
  280.81        2953.25           2190        1700.00      7411.20
  280.84        2953.50           2193        1661.00      7241.10
  280.87        2953.75           2197        1694.00      7385.03
  280.90        2954.00           2200        1671.00      7284.72
  280.93        2954.25           2204        1672.00      7289.08
  280.97        2954.50           2208        1706.00      7437.36
  281.00        2954.75           2211        1730.00      7542.04
  281.03        2955.00           2215        1714.00      7472.26
  281.06        2955.25           2218        1693.00      7380.67
  281.09        2955.50           2222        1701.00      7415.56
  281.12        2955.75           2225        1720.00      7498.42
  281.15        2956.00           2229        1751.00      7633.63
  281.18        2956.25           2232        1778.00      7751.39
  281.21        2956.50           2236        1710.00      7454.81
  281.24        2956.75           2239        1766.00      7699.05
  281.27        2957.00           2243        1751.00      7633.63
  281.30        2957.25           2246        1756.00      7655.44
  281.33        2957.50           2250        1805.00      7869.15
  281.36        2957.75           2254        1807.00      7877.87
  281.39        2958.00           2257        1797.00      7834.26
  281.42        2958.25           2261        1889.00      8235.52
  281.45        2958.50           2264        1802.00      7856.07
  281.49        2958.75           2268        1835.00      8000.00
  281.52        2959.00           2271        1892.00      8248.61
  281.55        2959.25           2275        1902.00      8292.22
  281.58        2959.50           2278        1902.00      8292.22
  281.61        2959.75           2282        1898.00      8274.78
  281.64        2960.00           2285        1952.00      8510.31
  281.67        2960.25           2289        1933.00      8427.44
  281.70        2960.50           2293        2018.00      8798.19
  281.73        2960.75           2296        2062.00      8990.11
  281.76        2961.00           2300        2238.00      9757.81
  281.79        2961.25           2303        2813.00     12266.23
  281.82        2961.50           2307        7499.00     32724.71
  281.85        2961.75           2310       15504.00     67739.53
  281.88        2962.00           2314       30959.00    135578.60
  281.91        2962.25           2317       45667.00    200431.40
  281.94        2962.50           2321       66569.00    293092.40
  281.97        2962.75           2324       82156.00    362575.20
  282.01        2963.00           2328      102339.00    453039.60
  282.04        2963.25           2331      116063.00    514875.20
  282.07        2963.50           2335      136592.00    607864.40
  282.10        2963.75           2339      159570.00    712656.30
  282.13        2964.00           2342      176353.00    789676.30
  282.16        2964.25           2346      197582.00    887689.20
  282.19        2964.50           2349      211881.00    954082.60
  282.22        2964.75           2353      232612.00   1050886.00
  282.25        2965.00           2356      247218.00   1119480.00
  282.28        2965.25           2360      265691.00   1206705.00
  282.31        2965.50           2363      279933.00   1274315.00
  282.34        2965.75           2367      299638.00   1368386.00
  282.37        2966.00           2370      313568.00   1435261.00
  282.40        2966.25           2374      330667.00   1517779.00
  282.43        2966.50           2378      341579.00   1570689.00
  282.46        2966.75           2381      345068.00   1587648.00
  282.49        2967.00           2385      347425.00   1599115.00
  282.53        2967.25           2388      346986.00   1596979.00
  282.56        2967.50           2392      347358.00   1598789.00
  282.59        2967.75           2395      346152.00   1592921.00
  282.62        2968.00           2399      339880.00   1562438.00
  282.65        2968.25           2402      330652.00   1517707.00
  282.68        2968.50           2406      314898.00   1441663.00
  282.71        2968.75           2409      302587.00   1382518.00
  282.74        2969.00           2413      284652.00   1296787.00
  282.77        2969.25           2417      265155.00   1204167.00
  282.80        2969.50           2420      250820.00   1136447.00
  282.83        2969.75           2424      231435.00   1045372.00
  282.86        2970.00           2427      215846.00    972547.10
  282.89        2970.25           2431      194467.00    873265.90
  282.92        2970.50           2434      180093.00    806895.60
  282.95        2970.75           2438      159230.00    711100.20
  282.98        2971.00           2441      140860.00    627271.60
  283.01        2971.25           2445      118940.00    527871.30
  283.05        2971.50           2449       97656.00    431999.40
  283.08        2971.75           2452       82596.00    364541.50
  283.11        2972.00           2456       63225.00    278228.50
  283.14        2972.25           2459       48252.00    211859.30
  283.17        2972.50           2463       28312.00    123937.50
  283.20        2972.75           2466       15382.00     67205.27
  283.23        2973.00           2470        5072.00     22125.18
  283.26        2973.25           2473        2815.00     12274.96
  283.29        2973.50           2477        2154.00      9391.40
  283.32        2973.75           2481        2043.00      8907.23
  283.35        2974.00           2484        2000.00      8719.67
  283.38        2974.25           2488        1945.00      8479.78
  283.41        2974.50           2491        1941.00      8462.33
  283.44        2974.75           2495        1899.00      8279.14
  283.47        2975.00           2498        1885.00      8218.08
  283.50        2975.25           2502        1830.00      7978.19
  283.53        2975.50           2505        1872.00      8161.38
  283.57        2975.75           2509        1841.00      8026.17
  283.60        2976.00           2512        1780.00      7760.11
  283.63        2976.25           2516        1761.00      7677.24
  283.66        2976.50           2520        1768.00      7707.77
  283.69        2976.75           2523        1751.00      7633.63
  283.72        2977.00           2527        1743.00      7598.74
  283.75        2977.25           2530        1745.00      7607.46
  283.78        2977.50           2534        1706.00      7437.36
  283.81        2977.75           2537        1649.00      7188.77
  283.84        2978.00           2541        1691.00      7371.94
  283.87        2978.25           2544        1682.00      7332.69
  283.90        2978.50           2548        1654.00      7210.57
  283.93        2978.75           2552        1635.00      7127.71
  283.96        2979.00           2555        1597.00      6961.98
  283.99        2979.25           2559        1639.00      7145.15
  284.02        2979.50           2562        1650.00      7193.13
  284.05        2979.75           2566        1602.00      6983.79
  284.09        2980.00           2569        1593.00      6944.53
  284.12        2980.25           2573        1609.00      7014.31
  284.15        2980.50           2577        1584.00      6905.28
  284.18        2980.75           2580        1545.00      6735.20
  284.21        2981.00           2584        1521.00      6630.53
  284.24        2981.25           2587        1574.00      6861.67
  284.27        2981.50           2591        1599.00      6970.70
  284.30        2981.75           2594        1544.00      6730.83
  284.33        2982.00           2598        1550.00      6757.00
  284.36        2982.25           2601        1549.00      6752.64
  284.39        2982.50           2605        1544.00      6730.83
  284.42        2982.75           2609        1502.00      6547.67
  284.45        2983.00           2612        1525.00      6647.97
  284.48        2983.25           2616        1530.00      6669.78
  284.51        2983.50           2619        1473.00      6421.19
  284.54        2983.75           2623        1517.00      6613.08
  284.57        2984.00           2626        1530.00      6669.78
HS scan finished at 04:44:48
end
************************************************************
  HS Scan of (1) Internal mercury lamp
************************************************************
Integration time is 0.2294 seconds per sample
dh150219Reading 51.44 .94 3.15pr1000
************************************************************
Dead Time -------------------------  3.4E-08 
Number of Cycles Used -------------  4 
Starting Wavelength (Angstroms) ---  2950 
Final Wavelength (Angstoms) -------  2984 
Wavelength Increment (Angstroms) --  .25 
Filter Wheel #1 Position ---------- (1) Ground quartz diffuser (ND=2.32)
Filter Wheel #2 Position ---------- (1) Neutral Density 0.494



************************************************************
HS scan start time = 18:07:27
Dark Count =  1.7 


Time (GMT)  Wavelength (Ang)  Step Number  Raw Counts  Counts/Second

 1088.35        2950.00           2144        1487.00      6476.14
 1088.55        2950.25           2147        1489.00      6484.87
 1088.58        2950.50           2151        1476.00      6428.17
 1088.61        2950.75           2155        1492.00      6497.95
 1088.64        2951.00           2158        1485.00      6467.42
 1088.67        2951.25           2162        1503.00      6545.92
 1088.70        2951.50           2165        1506.00      6559.00
 1088.73        2951.75           2169        1509.00      6572.09
 1088.76        2952.00           2172        1495.00      6511.03
 1088.79        2952.25           2176        1526.00      6646.23
 1088.82        2952.50           2179        1474.00      6419.45
 1088.85        2952.75           2183        1498.00      6524.12
 1088.88        2953.00           2186        1525.00      6641.87
 1088.91        2953.25           2190        1535.00      6685.48
 1088.95        2953.50           2193        1502.00      6541.56
 1088.98        2953.75           2197        1552.00      6759.62
 1089.01        2954.00           2200        1579.00      6877.37
 1089.04        2954.25           2204        1564.00      6811.95
 1089.07        2954.50           2208        1594.00      6942.79
 1089.10        2954.75           2211        1554.00      6768.34
 1089.13        2955.00           2215        1574.00      6855.57
 1089.16        2955.25           2218        1584.00      6899.18
 1089.19        2955.50           2222        1572.00      6846.84
 1089.22        2955.75           2225        1619.00      7051.82
 1089.25        2956.00           2229        1643.00      7156.49
 1089.28        2956.25           2232        1620.00      7056.18
 1089.31        2956.50           2236        1613.00      7025.65
 1089.34        2956.75           2239        1614.00      7030.01
 1089.37        2957.00           2243        1673.00      7287.33
 1089.40        2957.25           2246        1675.00      7296.06
 1089.43        2957.50           2250        1658.00      7221.91
 1089.47        2957.75           2254        1696.00      7387.64
 1089.50        2958.00           2257        1740.00      7579.55
 1089.53        2958.25           2261        1713.00      7461.79
 1089.56        2958.50           2264        1714.00      7466.15
 1089.59        2958.75           2268        1800.00      7841.24
 1089.62        2959.00           2271        1785.00      7775.81
 1089.65        2959.25           2275        1777.00      7740.92
 1089.68        2959.50           2278        1805.00      7863.04
 1089.71        2959.75           2282        1841.00      8020.06
 1089.74        2960.00           2285        1842.00      8024.42
 1089.77        2960.25           2289        1904.00      8294.84
 1089.80        2960.50           2293        1952.00      8504.20
 1089.83        2960.75           2296        1942.00      8460.59
 1089.86        2961.00           2300        2049.00      8927.30
 1089.89        2961.25           2303        2444.00     10650.33
 1089.92        2961.50           2307        6215.00     27109.98
 1089.95        2961.75           2310       14219.00     62107.03
 1089.99        2962.00           2314       30020.00    131441.80
 1090.02        2962.25           2317       45299.00    198799.10
 1090.05        2962.50           2321       68840.00    303189.20
 1090.08        2962.75           2324       87596.00    386897.00
 1090.11        2963.00           2328      112540.00    498970.40
 1090.14        2963.25           2331      130069.00    578246.60
 1090.17        2963.50           2335      152320.00    679504.30
 1090.20        2963.75           2339      175797.00    787111.60
 1090.23        2964.00           2342      194353.00    872731.90
 1090.26        2964.25           2346      220749.00    995405.80
 1090.29        2964.50           2349      239136.00   1081478.00
 1090.32        2964.75           2353      261800.00   1188282.00
 1090.35        2965.00           2356      278177.00   1265955.00
 1090.38        2965.25           2360      299555.00   1367982.00
 1090.41        2965.50           2363      315997.00   1446948.00
 1090.44        2965.75           2367      337547.00   1551109.00
 1090.47        2966.00           2370      353567.00   1629036.00
 1090.51        2966.25           2374      374286.00   1730454.00
 1090.54        2966.50           2378      389467.00   1805225.00
 1090.57        2966.75           2381      395339.00   1834252.00
 1090.60        2967.00           2385      397598.00   1845435.00
 1090.63        2967.25           2388      397736.00   1846118.00
 1090.66        2967.50           2392      398334.00   1849080.00
 1090.69        2967.75           2395      397863.00   1846747.00
 1090.72        2968.00           2399      394233.00   1828780.00
 1090.75        2968.25           2402      384899.00   1782685.00
 1090.78        2968.50           2406      367413.00   1696731.00
 1090.81        2968.75           2409      352572.00   1624183.00
 1090.84        2969.00           2413      334279.00   1535265.00
 1090.87        2969.25           2417      312305.00   1429179.00
 1090.90        2969.50           2420      293836.00   1340617.00
 1090.93        2969.75           2424      270302.00   1228553.00
 1090.96        2970.00           2427      253141.00   1147383.00
 1090.99        2970.25           2431      230119.00   1039204.00
 1091.03        2970.50           2434      212703.00    957902.10
 1091.06        2970.75           2438      189388.00    849772.90
 1091.09        2971.00           2441      171492.00    767319.80
 1091.12        2971.25           2445      147448.00    657273.00
 1091.15        2971.50           2449      120968.00    537032.80
 1091.18        2971.75           2452      102604.00    454224.70
 1091.21        2972.00           2456       77249.00    340659.10
 1091.24        2972.25           2459       59571.00    261997.90
 1091.27        2972.50           2463       37082.00    162536.10
 1091.30        2972.75           2466       22149.00     96862.94
 1091.33        2973.00           2470        7826.00     34147.29
 1091.36        2973.25           2473        3518.00     15336.24
 1091.39        2973.50           2477        2187.00      9529.24
 1091.42        2973.75           2481        2042.00      8896.76
 1091.45        2974.00           2484        1987.00      8656.86
 1091.48        2974.25           2488        1922.00      8373.35
 1091.51        2974.50           2491        1926.00      8390.80
 1091.54        2974.75           2495        1852.00      8068.04
 1091.58        2975.00           2498        1816.00      7911.02
 1091.61        2975.25           2502        1833.00      7985.17
 1091.64        2975.50           2505        1790.00      7797.62
 1091.67        2975.75           2509        1798.00      7832.51
 1091.70        2976.00           2512        1737.00      7566.46
 1091.73        2976.25           2516        1765.00      7688.58
 1091.76        2976.50           2520        1738.00      7570.82
 1091.79        2976.75           2523        1681.00      7322.22
 1091.82        2977.00           2527        1671.00      7278.61
 1091.86        2977.25           2530        1657.00      7217.55
 1091.90        2977.50           2534        1659.00      7226.27
 1091.93        2977.75           2537        1603.00      6982.04
 1091.96        2978.00           2541        1633.00      7112.88
 1091.99        2978.25           2544        1614.00      7030.01
 1092.02        2978.50           2548        1608.00      7003.85
 1092.05        2978.75           2552        1587.00      6912.26
 1092.08        2979.00           2555        1554.00      6768.34
 1092.11        2979.25           2559        1529.00      6659.31
 1092.14        2979.50           2562        1509.00      6572.09
 1092.18        2979.75           2566        1503.00      6545.92
 1092.22        2980.00           2569        1548.00      6742.17
 1092.25        2980.25           2573        1469.00      6397.64
 1092.28        2980.50           2577        1510.00      6576.45
 1092.31        2980.75           2580        1529.00      6659.31
 1092.34        2981.00           2584        1456.00      6340.95
 1092.37        2981.25           2587        1516.00      6602.62
 1092.40        2981.50           2591        1481.00      6449.98
 1092.43        2981.75           2594        1498.00      6524.12
 1092.46        2982.00           2598        1498.00      6524.12
 1092.49        2982.25           2601        1426.00      6210.12
 1092.52        2982.50           2605        1418.00      6175.23
 1092.55        2982.75           2609        1472.00      6410.73
 1092.58        2983.00           2612        1431.00      6231.92
 1092.62        2983.25           2616        1462.00      6367.12
 1092.65        2983.50           2619        1474.00      6419.45
 1092.68        2983.75           2623        1407.00      6127.26
 1092.71        2984.00           2626        1430.00      6227.56
HS scan finished at 18:12:56
end
