************************************************************
  HS Scan of (1) Internal mercury lamp
************************************************************
Integration time is 0.2294 seconds per sample
dh120219Reading 51.44 .94 2.49pr1000
************************************************************
Dead Time -------------------------  3.4E-08 
Number of Cycles Used -------------  4 
Starting Wavelength (Angstroms) ---  2950 
Final Wavelength (Angstoms) -------  2984 
Wavelength Increment (Angstroms) --  .25 
Filter Wheel #1 Position ---------- (1) Ground quartz diffuser (ND=2.32)
Filter Wheel #2 Position ---------- (1) Neutral Density 0.494



************************************************************
HS scan start time = 04:44:49
Dark Count =  .4 


Time (GMT)  Wavelength (Ang)  Step Number  Raw Counts  Counts/Second

  285.71        2950.00           2144        1579.00      6883.04
  285.91        2950.25           2147        1613.00      7031.32
  285.94        2950.50           2151        1630.00      7105.47
  285.97        2950.75           2155        1631.00      7109.83
  286.00        2951.00           2158        1620.00      7061.85
  286.03        2951.25           2162        1589.00      6926.65
  286.06        2951.50           2165        1605.00      6996.43
  286.09        2951.75           2169        1664.00      7253.75
  286.12        2952.00           2172        1635.00      7127.27
  286.15        2952.25           2176        1651.00      7197.05
  286.18        2952.50           2179        1650.00      7192.69
  286.21        2952.75           2183        1626.00      7088.02
  286.24        2953.00           2186        1626.00      7088.02
  286.27        2953.25           2190        1661.00      7240.67
  286.30        2953.50           2193        1686.00      7349.70
  286.33        2953.75           2197        1668.00      7271.20
  286.37        2954.00           2200        1705.00      7432.57
  286.40        2954.25           2204        1673.00      7293.00
  286.43        2954.50           2208        1637.00      7135.99
  286.46        2954.75           2211        1656.00      7218.86
  286.49        2955.00           2215        1713.00      7467.46
  286.52        2955.25           2218        1719.00      7493.63
  286.55        2955.50           2222        1702.00      7419.48
  286.58        2955.75           2225        1745.00      7607.02
  286.61        2956.00           2229        1741.00      7589.58
  286.64        2956.25           2232        1755.00      7650.64
  286.67        2956.50           2236        1785.00      7781.48
  286.70        2956.75           2239        1744.00      7602.66
  286.73        2957.00           2243        1774.00      7733.51
  286.76        2957.25           2246        1771.00      7720.42
  286.79        2957.50           2250        1792.00      7812.01
  286.82        2957.75           2254        1786.00      7785.84
  286.85        2958.00           2257        1805.00      7868.71
  286.88        2958.25           2261        1807.00      7877.44
  286.92        2958.50           2264        1830.00      7977.75
  286.95        2958.75           2268        1853.00      8078.07
  286.98        2959.00           2271        1820.00      7934.14
  287.01        2959.25           2275        1889.00      8235.09
  287.04        2959.50           2278        1936.00      8440.09
  287.07        2959.75           2282        1912.00      8335.41
  287.10        2960.00           2285        2023.00      8819.56
  287.13        2960.25           2289        1973.00      8601.47
  287.16        2960.50           2293        2057.00      8967.86
  287.19        2960.75           2296        1993.00      8688.70
  287.22        2961.00           2300        2130.00      9286.28
  287.25        2961.25           2303        2289.00      9979.85
  287.28        2961.50           2307        5232.00     22823.28
  287.31        2961.75           2310       12284.00     53644.40
  287.34        2962.00           2314       26085.00    114150.10
  287.37        2962.25           2317       38929.00    170685.20
  287.41        2962.50           2321       58386.00    256745.90
  287.44        2962.75           2324       73597.00    324380.10
  287.47        2963.00           2328       95714.00    423282.60
  287.50        2963.25           2331      112464.00    498633.50
  287.53        2963.50           2335      134672.00    599141.60
  287.56        2963.75           2339      155032.00    691900.10
  287.59        2964.00           2342      171706.00    768309.00
  287.62        2964.25           2346      192718.00    865173.30
  287.65        2964.50           2349      208655.00    939076.40
  287.68        2964.75           2353      228702.00   1032578.00
  287.71        2965.00           2356      245868.00   1113126.00
  287.74        2965.25           2360      269094.00   1222831.00
  287.77        2965.50           2363      284960.00   1298255.00
  287.80        2965.75           2367      303674.00   1387730.00
  287.83        2966.00           2370      318106.00   1457114.00
  287.86        2966.25           2374      335548.00   1541421.00
  287.89        2966.50           2378      348446.00   1604086.00
  287.93        2966.75           2381      352471.00   1623697.00
  287.96        2967.00           2385      354431.00   1633257.00
  287.99        2967.25           2388      354121.00   1631744.00
  288.02        2967.50           2392      354680.00   1634472.00
  288.05        2967.75           2395      353478.00   1628608.00
  288.08        2968.00           2399      348654.00   1605098.00
  288.11        2968.25           2402      338752.00   1556962.00
  288.14        2968.50           2406      320696.00   1469602.00
  288.17        2968.75           2409      306113.00   1399432.00
  288.20        2969.00           2413      286926.00   1307628.00
  288.23        2969.25           2417      267958.00   1217446.00
  288.26        2969.50           2420      253989.00   1151390.00
  288.29        2969.75           2424      233663.00   1055810.00
  288.32        2970.00           2427      217718.00    981272.40
  288.35        2970.25           2431      196111.00    880875.80
  288.38        2970.50           2434      180100.00    806927.40
  288.41        2970.75           2438      158323.00    706949.50
  288.44        2971.00           2441      142046.00    632668.80
  288.48        2971.25           2445      118550.00    526108.40
  288.51        2971.50           2449       97756.00    432447.90
  288.54        2971.75           2452       83289.00    367638.30
  288.57        2972.00           2456       63889.00    281178.30
  288.60        2972.25           2459       48122.00    211284.00
  288.63        2972.50           2463       26679.00    116759.90
  288.66        2972.75           2466       14047.00     61359.79
  288.69        2973.00           2470        5137.00     22408.52
  288.72        2973.25           2473        3039.00     13251.83
  288.75        2973.50           2477        2244.00      9783.55
  288.78        2973.75           2481        2072.00      9033.29
  288.81        2974.00           2484        2037.00      8880.62
  288.85        2974.25           2488        1972.00      8597.11
  288.88        2974.50           2491        1932.00      8422.64
  288.91        2974.75           2495        1868.00      8143.49
  288.94        2975.00           2498        1842.00      8030.09
  288.97        2975.25           2502        1865.00      8130.41
  289.00        2975.50           2505        1846.00      8047.54
  289.03        2975.75           2509        1817.00      7921.05
  289.06        2976.00           2512        1820.00      7934.14
  289.09        2976.25           2516        1776.00      7742.23
  289.12        2976.50           2520        1781.00      7764.04
  289.15        2976.75           2523        1756.00      7655.00
  289.19        2977.00           2527        1724.00      7515.43
  289.22        2977.25           2530        1722.00      7506.71
  289.25        2977.50           2534        1708.00      7445.65
  289.28        2977.75           2537        1716.00      7480.54
  289.31        2978.00           2541        1639.00      7144.72
  289.34        2978.25           2544        1639.00      7144.72
  289.37        2978.50           2548        1678.00      7314.81
  289.40        2978.75           2552        1637.00      7135.99
  289.43        2979.00           2555        1611.00      7022.60
  289.46        2979.25           2559        1600.00      6974.63
  289.49        2979.50           2562        1597.00      6961.54
  289.52        2979.75           2566        1605.00      6996.43
  289.55        2980.00           2569        1603.00      6987.71
  289.58        2980.25           2573        1605.00      6996.43
  289.61        2980.50           2577        1559.00      6795.82
  289.64        2980.75           2580        1529.00      6664.98
  289.68        2981.00           2584        1555.00      6778.37
  289.71        2981.25           2587        1569.00      6839.43
  289.74        2981.50           2591        1536.00      6695.51
  289.77        2981.75           2594        1579.00      6883.04
  289.80        2982.00           2598        1581.00      6891.76
  289.83        2982.25           2601        1507.00      6569.04
  289.86        2982.50           2605        1501.00      6542.87
  289.89        2982.75           2609        1516.00      6608.28
  289.92        2983.00           2612        1519.00      6621.37
  289.95        2983.25           2616        1526.00      6651.90
  289.98        2983.50           2619        1525.00      6647.54
  290.01        2983.75           2623        1497.00      6525.42
  290.04        2984.00           2626        1462.00      6372.78
HS scan finished at 04:50:16
end
************************************************************
  HS Scan of (1) Internal mercury lamp
************************************************************
Integration time is 0.2294 seconds per sample
dh120219Reading 51.44 .94 3.11pr1000
************************************************************
Dead Time -------------------------  3.4E-08 
Number of Cycles Used -------------  4 
Starting Wavelength (Angstroms) ---  2950 
Final Wavelength (Angstoms) -------  2984 
Wavelength Increment (Angstroms) --  .25 
Filter Wheel #1 Position ---------- (1) Ground quartz diffuser (ND=2.32)
Filter Wheel #2 Position ---------- (1) Neutral Density 0.494



************************************************************
HS scan start time = 18:07:27
Dark Count =  1 


Time (GMT)  Wavelength (Ang)  Step Number  Raw Counts  Counts/Second

 1088.35        2950.00           2144        1235.00      5380.24
 1088.54        2950.25           2147        1272.00      5541.59
 1088.57        2950.50           2151        1235.00      5380.24
 1088.60        2950.75           2155        1269.00      5528.50
 1088.63        2951.00           2158        1298.00      5654.97
 1088.66        2951.25           2162        1245.00      5423.84
 1088.70        2951.50           2165        1289.00      5615.72
 1088.73        2951.75           2169        1259.00      5484.89
 1088.76        2952.00           2172        1249.00      5441.29
 1088.79        2952.25           2176        1277.00      5563.39
 1088.82        2952.50           2179        1275.00      5554.67
 1088.85        2952.75           2183        1307.00      5694.22
 1088.88        2953.00           2186        1305.00      5685.49
 1088.91        2953.25           2190        1321.00      5755.27
 1088.94        2953.50           2193        1312.00      5716.02
 1088.97        2953.75           2197        1286.00      5602.64
 1089.00        2954.00           2200        1320.00      5750.91
 1089.03        2954.25           2204        1323.00      5763.99
 1089.06        2954.50           2208        1328.00      5785.79
 1089.09        2954.75           2211        1375.00      5990.76
 1089.12        2955.00           2215        1342.00      5846.85
 1089.15        2955.25           2218        1360.00      5925.34
 1089.18        2955.50           2222        1320.00      5750.91
 1089.22        2955.75           2225        1343.00      5851.21
 1089.25        2956.00           2229        1352.00      5890.46
 1089.28        2956.25           2232        1355.00      5903.54
 1089.31        2956.50           2236        1372.00      5977.68
 1089.34        2956.75           2239        1358.00      5916.62
 1089.37        2957.00           2243        1383.00      6025.65
 1089.40        2957.25           2246        1397.00      6086.70
 1089.43        2957.50           2250        1418.00      6178.28
 1089.46        2957.75           2254        1417.00      6173.92
 1089.49        2958.00           2257        1424.00      6204.45
 1089.52        2958.25           2261        1454.00      6335.28
 1089.55        2958.50           2264        1493.00      6505.36
 1089.58        2958.75           2268        1466.00      6387.61
 1089.61        2959.00           2271        1536.00      6692.89
 1089.64        2959.25           2275        1516.00      6605.67
 1089.67        2959.50           2278        1579.00      6880.42
 1089.70        2959.75           2282        1528.00      6658.00
 1089.74        2960.00           2285        1590.00      6928.40
 1089.77        2960.25           2289        1639.00      7142.10
 1089.80        2960.50           2293        1643.00      7159.55
 1089.83        2960.75           2296        1632.00      7111.57
 1089.86        2961.00           2300        1781.00      7761.42
 1089.89        2961.25           2303        2004.00      8734.07
 1089.92        2961.50           2307        4967.00     21663.73
 1089.95        2961.75           2310       12378.00     54053.05
 1089.98        2962.00           2314       27278.00    119389.50
 1090.01        2962.25           2317       40106.00    175874.20
 1090.04        2962.50           2321       57031.00    250733.50
 1090.07        2962.75           2324       70194.00    309219.10
 1090.10        2963.00           2328       89172.00    393955.70
 1090.13        2963.25           2331      104326.00    461972.90
 1090.16        2963.50           2335      125875.00    559242.80
 1090.19        2963.75           2339      147921.00    659433.00
 1090.22        2964.00           2342      163483.00    730574.00
 1090.26        2964.25           2346      182866.00    819672.80
 1090.29        2964.50           2349      197489.00    887255.20
 1090.32        2964.75           2353      217312.00    979376.80
 1090.35        2965.00           2356      231526.00   1045795.00
 1090.38        2965.25           2360      252039.00   1142190.00
 1090.41        2965.50           2363      267141.00   1213571.00
 1090.44        2965.75           2367      267347.00   1214547.00
 1090.47        2966.00           2370      298223.00   1361607.00
 1090.50        2966.25           2374      315721.00   1445622.00
 1090.53        2966.50           2378      329794.00   1513551.00
 1090.56        2966.75           2381      334774.00   1537667.00
 1090.59        2967.00           2385      337847.00   1552568.00
 1090.62        2967.25           2388      338516.00   1555814.00
 1090.65        2967.50           2392      338965.00   1557993.00
 1090.68        2967.75           2395      338452.00   1555503.00
 1090.71        2968.00           2399      336318.00   1545152.00
 1090.74        2968.25           2402      329467.00   1511969.00
 1090.77        2968.50           2406      315623.00   1445150.00
 1090.81        2968.75           2409      302041.00   1379897.00
 1090.84        2969.00           2413      282223.00   1285213.00
 1090.87        2969.25           2417      261149.00   1185207.00
 1090.90        2969.50           2420      246621.00   1116667.00
 1090.93        2969.75           2424      227143.00   1025282.00
 1090.96        2970.00           2427      211815.00    953772.20
 1090.99        2970.25           2431      191101.00    857693.20
 1091.02        2970.50           2434      175232.00    784515.90
 1091.05        2970.75           2438      155680.00    694859.30
 1091.08        2971.00           2441      139756.00    622246.00
 1091.11        2971.25           2445      118851.00    527465.90
 1091.14        2971.50           2449       99109.00    438521.20
 1091.17        2971.75           2452       84357.00    372410.20
 1091.20        2972.00           2456       65310.00    287491.30
 1091.23        2972.25           2459       49643.00    218009.30
 1091.26        2972.50           2463       28898.00    126510.70
 1091.29        2972.75           2466       15884.00     69400.71
 1091.33        2973.00           2470        5205.00     22702.78
 1091.36        2973.25           2473        2654.00     11569.50
 1091.39        2973.50           2477        1858.00      8097.26
 1091.42        2973.75           2481        1700.00      7408.14
 1091.45        2974.00           2484        1692.00      7373.25
 1091.48        2974.25           2488        1618.00      7050.51
 1091.51        2974.50           2491        1651.00      7194.44
 1091.54        2974.75           2495        1609.00      7011.26
 1091.57        2975.00           2498        1553.00      6767.03
 1091.60        2975.25           2502        1555.00      6775.76
 1091.63        2975.50           2505        1524.00      6640.56
 1091.66        2975.75           2509        1492.00      6501.00
 1091.69        2976.00           2512        1502.00      6544.61
 1091.72        2976.25           2516        1441.00      6278.59
 1091.75        2976.50           2520        1442.00      6282.95
 1091.78        2976.75           2523        1428.00      6221.89
 1091.82        2977.00           2527        1389.00      6051.81
 1091.85        2977.25           2530        1385.00      6034.37
 1091.88        2977.50           2534        1397.00      6086.70
 1091.91        2977.75           2537        1386.00      6038.73
 1091.94        2978.00           2541        1367.00      5955.87
 1091.97        2978.25           2544        1335.00      5816.32
 1092.01        2978.50           2548        1313.00      5720.38
 1092.04        2978.75           2552        1295.00      5641.88
 1092.07        2979.00           2555        1295.00      5641.88
 1092.10        2979.25           2559        1309.00      5702.94
 1092.13        2979.50           2562        1309.00      5702.94
 1092.16        2979.75           2566        1300.00      5663.69
 1092.19        2980.00           2569        1299.00      5659.33
 1092.22        2980.25           2573        1247.00      5432.56
 1092.25        2980.50           2577        1246.00      5428.20
 1092.28        2980.75           2580        1255.00      5467.45
 1092.31        2981.00           2584        1269.00      5528.50
 1092.34        2981.25           2587        1276.00      5559.03
 1092.37        2981.50           2591        1273.00      5545.95
 1092.40        2981.75           2594        1214.00      5288.66
 1092.43        2982.00           2598        1220.00      5314.82
 1092.46        2982.25           2601        1237.00      5388.96
 1092.49        2982.50           2605        1243.00      5415.12
 1092.52        2982.75           2609        1199.00      5223.25
 1092.56        2983.00           2612        1219.00      5310.46
 1092.59        2983.25           2616        1204.00      5245.05
 1092.62        2983.50           2619        1179.00      5136.03
 1092.65        2983.75           2623        1173.00      5109.87
 1092.68        2984.00           2626        1205.00      5249.41
HS scan finished at 18:12:54
end
