************************************************************
  HS Scan of 
************************************************************
Integration time is 0.2294 seconds per sample
dh180217Reading 51.44 .94 2.84pr1000
************************************************************
Dead Time -------------------------  3.4E-08 
Number of Cycles Used -------------  4 
Starting Wavelength (Angstroms) ---  2950 
Final Wavelength (Angstoms) -------  2984 
Wavelength Increment (Angstroms) --  .25 
Filter Wheel #1 Position ---------- (1) Ground quartz diffuser (ND=2.32)
Filter Wheel #2 Position ---------- (1) Neutral Density 0.494



************************************************************
HS scan start time = 04:29:42
Dark Count =  .6 


Time (GMT)  Wavelength (Ang)  Step Number  Raw Counts  Counts/Second

  270.60        2950.00           2144         844.00      3677.01
  270.79        2950.25           2147         806.00      3511.32
  270.82        2950.50           2151         809.00      3524.40
  270.85        2950.75           2155         836.00      3642.13
  270.89        2951.00           2158         809.00      3524.40
  270.92        2951.25           2162         838.00      3650.85
  270.95        2951.50           2165         828.00      3607.24
  270.98        2951.75           2169         801.00      3489.52
  271.01        2952.00           2172         824.00      3589.80
  271.04        2952.25           2176         823.00      3585.44
  271.07        2952.50           2179         821.00      3576.72
  271.10        2952.75           2183         827.00      3602.88
  271.13        2953.00           2186         834.00      3633.40
  271.16        2953.25           2190         846.00      3685.73
  271.19        2953.50           2193         816.00      3554.92
  271.22        2953.75           2197         866.00      3772.93
  271.25        2954.00           2200         847.00      3690.09
  271.28        2954.25           2204         836.00      3642.13
  271.31        2954.50           2208         853.00      3716.25
  271.34        2954.75           2211         899.00      3916.83
  271.37        2955.00           2215         845.00      3681.37
  271.41        2955.25           2218         902.00      3929.91
  271.44        2955.50           2222         861.00      3751.13
  271.47        2955.75           2225         887.00      3864.50
  271.50        2956.00           2229         913.00      3977.87
  271.53        2956.25           2232         895.00      3899.38
  271.56        2956.50           2236         909.00      3960.43
  271.59        2956.75           2239         875.00      3812.18
  271.62        2957.00           2243         901.00      3925.55
  271.65        2957.25           2246         893.00      3890.66
  271.68        2957.50           2250         932.00      4060.72
  271.71        2957.75           2254         915.00      3986.59
  271.74        2958.00           2257         958.00      4174.09
  271.77        2958.25           2261         947.00      4126.12
  271.80        2958.50           2264         925.00      4030.20
  271.83        2958.75           2268         949.00      4134.84
  271.86        2959.00           2271         979.00      4265.66
  271.89        2959.25           2275         988.00      4304.90
  271.93        2959.50           2278        1002.00      4365.95
  271.96        2959.75           2282         983.00      4283.10
  271.99        2960.00           2285        1027.00      4474.96
  272.02        2960.25           2289        1022.00      4453.16
  272.05        2960.50           2293        1062.00      4627.58
  272.08        2960.75           2296        1081.00      4710.43
  272.11        2961.00           2300        1148.00      5002.59
  272.14        2961.25           2303        1212.00      5281.68
  272.17        2961.50           2307        2165.00      9438.08
  272.20        2961.75           2310        6014.00     26237.00
  272.23        2962.00           2314       16213.00     70843.50
  272.26        2962.25           2317       25794.00    112870.90
  272.29        2962.50           2321       37998.00    166579.00
  272.32        2962.75           2324       47087.00    206706.60
  272.35        2963.00           2328       60641.00    266751.90
  272.38        2963.25           2331       72264.00    318439.60
  272.41        2963.50           2335       86452.00    381782.50
  272.45        2963.75           2339       99326.00    439497.70
  272.48        2964.00           2342      107485.00    476193.60
  272.51        2964.25           2346      120906.00    536757.40
  272.54        2964.50           2349      130702.00    581122.50
  272.57        2964.75           2353      144234.00    642630.80
  272.60        2965.00           2356      152473.00    680208.20
  272.63        2965.25           2360      163291.00    729696.00
  272.66        2965.50           2363      172232.00    770725.10
  272.69        2965.75           2367      184239.00    826006.80
  272.72        2966.00           2370      193519.00    868877.90
  272.75        2966.25           2374      205310.00    923532.80
  272.78        2966.50           2378      213050.00    959522.70
  272.81        2966.75           2381      214897.00    968124.20
  272.84        2967.00           2385      215803.00    972345.30
  272.87        2967.25           2388      215659.00    971674.30
  272.90        2967.50           2392      215906.00    972825.40
  272.93        2967.75           2395      215691.00    971823.40
  272.97        2968.00           2399      212508.00    956999.60
  273.00        2968.25           2402      206604.00    929543.60
  273.03        2968.50           2406      194969.00    875587.90
  273.06        2968.75           2409      185705.00    832770.80
  273.09        2969.00           2413      173607.00    777045.10
  273.12        2969.25           2417      160768.00    718139.20
  273.15        2969.50           2420      151758.00    676943.20
  273.18        2969.75           2424      139370.00    620492.00
  273.21        2970.00           2427      129964.00    577775.50
  273.24        2970.25           2431      118086.00    524011.00
  273.27        2970.50           2434      109223.00    484022.30
  273.30        2970.75           2438       96514.00    426871.70
  273.33        2971.00           2441       86291.00    381062.20
  273.36        2971.25           2445       72236.00    318314.90
  273.39        2971.50           2449       59542.00    261874.10
  273.42        2971.75           2452       51154.00    224697.90
  273.45        2972.00           2456       39415.00    172827.80
  273.48        2972.25           2459       30244.00    132431.90
  273.52        2972.50           2463       17784.00     77726.50
  273.55        2972.75           2466        9419.00     41114.10
  273.58        2973.00           2470        3172.00     13831.26
  273.61        2973.25           2473        1661.00      7239.79
  273.64        2973.50           2477        1210.00      5272.96
  273.67        2973.75           2481        1107.00      4823.81
  273.70        2974.00           2484        1088.00      4740.96
  273.73        2974.25           2488        1071.00      4666.83
  273.76        2974.50           2491        1049.00      4570.89
  273.79        2974.75           2495        1032.00      4496.76
  273.82        2975.00           2498        1019.00      4440.08
  273.85        2975.25           2502        1000.00      4357.23
  273.88        2975.50           2505        1025.00      4466.24
  273.91        2975.75           2509         973.00      4239.50
  273.94        2976.00           2512         936.00      4078.16
  273.97        2976.25           2516         947.00      4126.12
  274.00        2976.50           2520         946.00      4121.76
  274.04        2976.75           2523         946.00      4121.76
  274.08        2977.00           2527         906.00      3947.35
  274.11        2977.25           2530         926.00      4034.56
  274.14        2977.50           2534         902.00      3929.91
  274.17        2977.75           2537         921.00      4012.75
  274.20        2978.00           2541         905.00      3942.99
  274.23        2978.25           2544         886.00      3860.14
  274.26        2978.50           2548         891.00      3881.94
  274.30        2978.75           2552         857.00      3733.69
  274.33        2979.00           2555         880.00      3833.98
  274.36        2979.25           2559         877.00      3820.90
  274.39        2979.50           2562         880.00      3833.98
  274.42        2979.75           2566         848.00      3694.45
  274.45        2980.00           2569         877.00      3820.90
  274.48        2980.25           2573         829.00      3611.60
  274.51        2980.50           2577         842.00      3668.29
  274.54        2980.75           2580         843.00      3672.65
  274.57        2981.00           2584         831.00      3620.32
  274.60        2981.25           2587         818.00      3563.64
  274.63        2981.50           2591         817.00      3559.28
  274.66        2981.75           2594         786.00      3424.11
  274.69        2982.00           2598         801.00      3489.52
  274.72        2982.25           2601         840.00      3659.57
  274.75        2982.50           2605         809.00      3524.40
  274.78        2982.75           2609         783.00      3411.03
  274.82        2983.00           2612         784.00      3415.39
  274.85        2983.25           2616         770.00      3354.35
  274.88        2983.50           2619         780.00      3397.95
  274.91        2983.75           2623         774.00      3371.79
  274.94        2984.00           2626         792.00      3450.27
HS scan finished at 04:35:10
end
************************************************************
  HS Scan of 
************************************************************
Integration time is 0.2294 seconds per sample
dh180217Reading 51.44 .94 3.09pr1000
************************************************************
Dead Time -------------------------  3.4E-08 
Number of Cycles Used -------------  4 
Starting Wavelength (Angstroms) ---  2950 
Final Wavelength (Angstoms) -------  2984 
Wavelength Increment (Angstroms) --  .25 
Filter Wheel #1 Position ---------- (1) Ground quartz diffuser (ND=2.32)
Filter Wheel #2 Position ---------- (1) Neutral Density 0.494



************************************************************
HS scan start time = 18:07:28
Dark Count =  1.1 


Time (GMT)  Wavelength (Ang)  Step Number  Raw Counts  Counts/Second

 1088.36        2950.00           2144         752.00      3273.69
 1088.55        2950.25           2147         764.00      3326.01
 1088.58        2950.50           2151         745.00      3243.17
 1088.62        2950.75           2155         754.00      3282.41
 1088.65        2951.00           2158         785.00      3417.57
 1088.68        2951.25           2162         752.00      3273.69
 1088.71        2951.50           2165         748.00      3256.25
 1088.74        2951.75           2169         774.00      3369.61
 1088.77        2952.00           2172         802.00      3491.70
 1088.80        2952.25           2176         799.00      3478.62
 1088.83        2952.50           2179         785.00      3417.57
 1088.86        2952.75           2183         785.00      3417.57
 1088.89        2953.00           2186         788.00      3430.65
 1088.92        2953.25           2190         779.00      3391.41
 1088.95        2953.50           2193         803.00      3496.06
 1088.98        2953.75           2197         805.00      3504.78
 1089.01        2954.00           2200         785.00      3417.57
 1089.04        2954.25           2204         823.00      3583.26
 1089.07        2954.50           2208         803.00      3496.06
 1089.10        2954.75           2211         815.00      3548.38
 1089.13        2955.00           2215         793.00      3452.45
 1089.17        2955.25           2218         801.00      3487.34
 1089.20        2955.50           2222         802.00      3491.70
 1089.23        2955.75           2225         793.00      3452.45
 1089.26        2956.00           2229         818.00      3561.46
 1089.29        2956.25           2232         818.00      3561.46
 1089.32        2956.50           2236         845.00      3679.19
 1089.35        2956.75           2239         821.00      3574.54
 1089.38        2957.00           2243         842.00      3666.11
 1089.41        2957.25           2246         823.00      3583.26
 1089.44        2957.50           2250         851.00      3705.35
 1089.47        2957.75           2254         861.00      3748.95
 1089.50        2958.00           2257         895.00      3897.20
 1089.53        2958.25           2261         885.00      3853.60
 1089.56        2958.50           2264         862.00      3753.31
 1089.59        2958.75           2268         878.00      3823.08
 1089.63        2959.00           2271         902.00      3927.73
 1089.67        2959.25           2275         942.00      4102.14
 1089.70        2959.50           2278         901.00      3923.37
 1089.73        2959.75           2282         932.00      4058.54
 1089.76        2960.00           2285         918.00      3997.49
 1089.79        2960.25           2289         957.00      4167.55
 1089.82        2960.50           2293         969.00      4219.87
 1089.85        2960.75           2296         983.00      4280.92
 1089.88        2961.00           2300        1030.00      4485.86
 1089.91        2961.25           2303        1228.00      5349.27
 1089.94        2961.50           2307        3917.00     17080.10
 1089.97        2961.75           2310        9407.00     41059.47
 1090.00        2962.00           2314       17465.00     76326.43
 1090.04        2962.25           2317       24250.00    106087.70
 1090.07        2962.50           2321       33815.00    148145.80
 1090.10        2962.75           2324       41819.00    183433.00
 1090.13        2963.00           2328       53763.00    236248.80
 1090.16        2963.25           2331       62234.00    273823.00
 1090.19        2963.50           2335       72586.00    319871.90
 1090.22        2963.75           2339       83755.00    369718.30
 1090.25        2964.00           2342       91868.00    406032.80
 1090.28        2964.25           2346      102810.00    455153.70
 1090.31        2964.50           2349      110961.00    491853.00
 1090.34        2964.75           2353      122614.00    544480.80
 1090.37        2965.00           2356      130518.00    580285.60
 1090.40        2965.25           2360      140709.00    626581.00
 1090.43        2965.50           2363      147743.00    658620.90
 1090.46        2965.75           2367      156780.00    699888.40
 1090.49        2966.00           2370      163823.00    732131.80
 1090.52        2966.25           2374      173114.00    774776.40
 1090.55        2966.50           2378      180487.00    808707.10
 1090.59        2966.75           2381      182185.00    816532.60
 1090.62        2967.00           2385      182970.00    820151.90
 1090.65        2967.25           2388      182956.00    820087.30
 1090.68        2967.50           2392      182479.00    817888.00
 1090.71        2967.75           2395      182292.00    817026.00
 1090.74        2968.00           2399      178616.00    800089.30
 1090.77        2968.25           2402      172183.00    770497.50
 1090.80        2968.50           2406      163249.00    729501.30
 1090.83        2968.75           2409      156251.00    697469.60
 1090.86        2969.00           2413      146302.00    652051.40
 1090.90        2969.25           2417      136122.00    605725.10
 1090.94        2969.50           2420      129495.00    575646.60
 1090.97        2969.75           2424      118955.00    527935.40
 1091.00        2970.00           2427      110052.00    487755.80
 1091.03        2970.25           2431       98554.00    436028.00
 1091.06        2970.50           2434       90642.00    400539.30
 1091.09        2970.75           2438       80488.00    355120.30
 1091.12        2971.00           2441       72890.00    321226.40
 1091.15        2971.25           2445       62616.00    275519.70
 1091.18        2971.50           2449       51831.00    227692.70
 1091.21        2971.75           2452       44027.00    193182.30
 1091.24        2972.00           2456       33764.00    147921.20
 1091.27        2972.25           2459       26074.00    114098.70
 1091.30        2972.50           2463       15311.00     66890.85
 1091.34        2972.75           2466        7965.00     34757.27
 1091.37        2973.00           2470        2813.00     12262.74
 1091.40        2973.25           2473        1518.00      6613.96
 1091.43        2973.50           2477        1095.00      4769.30
 1091.46        2973.75           2481        1028.00      4477.14
 1091.49        2974.00           2484         969.00      4219.87
 1091.52        2974.25           2488         936.00      4075.98
 1091.55        2974.50           2491         967.00      4211.15
 1091.58        2974.75           2495         925.00      4028.01
 1091.61        2975.00           2498         904.00      3936.45
 1091.64        2975.25           2502         921.00      4010.57
 1091.67        2975.50           2505         891.00      3879.76
 1091.70        2975.75           2509         889.00      3871.04
 1091.73        2976.00           2512         855.00      3722.79
 1091.76        2976.25           2516         876.00      3814.36
 1091.79        2976.50           2520         833.00      3626.86
 1091.82        2976.75           2523         850.00      3700.99
 1091.85        2977.00           2527         809.00      3522.22
 1091.89        2977.25           2530         834.00      3631.22
 1091.92        2977.50           2534         846.00      3683.55
 1091.95        2977.75           2537         804.00      3500.42
 1091.98        2978.00           2541         816.00      3552.74
 1092.01        2978.25           2544         809.00      3522.22
 1092.04        2978.50           2548         817.00      3557.10
 1092.07        2978.75           2552         794.00      3456.81
 1092.10        2979.00           2555         781.00      3400.13
 1092.13        2979.25           2559         816.00      3552.74
 1092.16        2979.50           2562         760.00      3308.57
 1092.19        2979.75           2566         802.00      3491.70
 1092.22        2980.00           2569         772.00      3360.89
 1092.25        2980.25           2573         786.00      3421.93
 1092.28        2980.50           2577         758.00      3299.85
 1092.31        2980.75           2580         783.00      3408.85
 1092.34        2981.00           2584         756.00      3291.13
 1092.37        2981.25           2587         783.00      3408.85
 1092.41        2981.50           2591         764.00      3326.01
 1092.44        2981.75           2594         740.00      3221.36
 1092.47        2982.00           2598         736.00      3203.92
 1092.50        2982.25           2601         737.00      3208.28
 1092.53        2982.50           2605         752.00      3273.69
 1092.56        2982.75           2609         740.00      3221.36
 1092.59        2983.00           2612         752.00      3273.69
 1092.62        2983.25           2616         726.00      3160.32
 1092.65        2983.50           2619         727.00      3164.68
 1092.68        2983.75           2623         731.00      3182.12
 1092.71        2984.00           2626         721.00      3138.52
HS scan finished at 18:12:56
end
