************************************************************
  HS Scan of 
************************************************************
Integration time is 0.2294 seconds per sample
dh170217Reading 51.44 .94 2.86pr1000
************************************************************
Dead Time -------------------------  3.4E-08 
Number of Cycles Used -------------  4 
Starting Wavelength (Angstroms) ---  2950 
Final Wavelength (Angstoms) -------  2984 
Wavelength Increment (Angstroms) --  .25 
Filter Wheel #1 Position ---------- (1) Ground quartz diffuser (ND=2.32)
Filter Wheel #2 Position ---------- (1) Neutral Density 0.494



************************************************************
HS scan start time = 04:31:35
Dark Count =  .5 


Time (GMT)  Wavelength (Ang)  Step Number  Raw Counts  Counts/Second

  272.48        2950.00           2144         754.00      3285.02
  272.67        2950.25           2147         767.00      3341.70
  272.70        2950.50           2151         796.00      3468.15
  272.73        2950.75           2155         789.00      3437.63
  272.77        2951.00           2158         800.00      3485.59
  272.80        2951.25           2162         772.00      3363.51
  272.83        2951.50           2165         792.00      3450.71
  272.86        2951.75           2169         810.00      3529.19
  272.89        2952.00           2172         837.00      3646.92
  272.92        2952.25           2176         818.00      3564.08
  272.95        2952.50           2179         824.00      3590.24
  272.98        2952.75           2183         781.00      3402.75
  273.01        2953.00           2186         816.00      3555.36
  273.04        2953.25           2190         846.00      3686.16
  273.07        2953.50           2193         826.00      3598.96
  273.10        2953.75           2197         841.00      3664.36
  273.13        2954.00           2200         822.00      3581.52
  273.16        2954.25           2204         843.00      3673.08
  273.19        2954.50           2208         784.00      3415.83
  273.22        2954.75           2211         821.00      3577.16
  273.25        2955.00           2215         849.00      3699.24
  273.29        2955.25           2218         825.00      3594.60
  273.32        2955.50           2222         833.00      3629.48
  273.35        2955.75           2225         806.00      3511.75
  273.38        2956.00           2229         865.00      3769.01
  273.41        2956.25           2232         855.00      3725.41
  273.44        2956.50           2236         868.00      3782.09
  273.47        2956.75           2239         850.00      3703.60
  273.50        2957.00           2243         904.00      3939.06
  273.53        2957.25           2246         867.00      3777.73
  273.56        2957.50           2250         906.00      3947.78
  273.59        2957.75           2254         907.00      3952.14
  273.62        2958.00           2257         915.00      3987.03
  273.65        2958.25           2261         922.00      4017.55
  273.68        2958.50           2264         929.00      4048.07
  273.71        2958.75           2268         954.00      4157.08
  273.74        2959.00           2271         929.00      4048.07
  273.77        2959.25           2275         924.00      4026.27
  273.81        2959.50           2278         938.00      4087.32
  273.84        2959.75           2282         963.00      4196.33
  273.87        2960.00           2285         961.00      4187.61
  273.90        2960.25           2289         982.00      4279.18
  273.93        2960.50           2293        1003.00      4370.75
  273.96        2960.75           2296        1037.00      4519.00
  273.99        2961.00           2300        1102.00      4802.44
  274.02        2961.25           2303        1341.00      5844.67
  274.05        2961.50           2307        3985.00     17379.49
  274.08        2961.75           2310        9804.00     42797.63
  274.11        2962.00           2314       20156.00     88125.46
  274.14        2962.25           2317       28104.00    123022.20
  274.17        2962.50           2321       38899.00    170552.40
  274.20        2962.75           2324       47330.00    207781.40
  274.23        2963.00           2328       59114.00    259975.30
  274.26        2963.25           2331       68552.00    301912.90
  274.30        2963.50           2335       81006.00    357436.60
  274.33        2963.75           2339       93569.00    413660.80
  274.36        2964.00           2342      103592.00    458673.40
  274.39        2964.25           2346      116583.00    517222.40
  274.42        2964.50           2349      124829.00    554508.50
  274.45        2964.75           2353      136092.00    605591.50
  274.48        2965.00           2356      144818.00    645291.60
  274.51        2965.25           2360      156727.00    699648.80
  274.54        2965.50           2363      165410.00    739409.80
  274.57        2965.75           2367      176440.00    790075.60
  274.60        2966.00           2370      184675.00    828018.50
  274.63        2966.25           2374      196324.00    881861.70
  274.66        2966.50           2378      204020.00    917543.60
  274.69        2966.75           2381      206839.00    930635.80
  274.72        2967.00           2385      207609.00    934213.90
  274.75        2967.25           2388      207774.00    934980.80
  274.78        2967.50           2392      208055.00    936286.90
  274.81        2967.75           2395      208279.00    937328.10
  274.85        2968.00           2399      204858.00    921434.40
  274.88        2968.25           2402      199788.00    897911.40
  274.91        2968.50           2406      190312.00    854048.40
  274.94        2968.75           2409      181982.00    815599.60
  274.97        2969.00           2413      168867.00    755270.30
  275.00        2969.25           2417      156314.00    697760.20
  275.03        2969.50           2420      146853.00    654565.70
  275.06        2969.75           2424      134458.00    598169.40
  275.09        2970.00           2427      124944.00    555029.10
  275.12        2970.25           2431      112582.00    499165.20
  275.15        2970.50           2434      103220.00    457000.20
  275.18        2970.75           2438       90716.00    400873.50
  275.21        2971.00           2441       81818.00    361064.10
  275.24        2971.25           2445       69753.00    307258.10
  275.27        2971.50           2449       57890.00    254545.30
  275.30        2971.75           2452       49652.00    218051.30
  275.33        2972.00           2456       37844.00    165900.50
  275.37        2972.25           2459       28169.00    123308.00
  275.40        2972.50           2463       15855.00     69275.90
  275.43        2972.75           2466        7974.00     34799.22
  275.46        2973.00           2470        2682.00     11693.84
  275.49        2973.25           2473        1431.00      6237.16
  275.52        2973.50           2477        1149.00      5007.39
  275.55        2973.75           2481        1087.00      4737.03
  275.58        2974.00           2484        1112.00      4846.05
  275.61        2974.25           2488        1025.00      4466.68
  275.64        2974.50           2491        1003.00      4370.75
  275.67        2974.75           2495         976.00      4253.01
  275.70        2975.00           2498         971.00      4231.21
  275.73        2975.25           2502         942.00      4104.76
  275.76        2975.50           2505         965.00      4205.05
  275.79        2975.75           2509         973.00      4239.93
  275.82        2976.00           2512         957.00      4170.16
  275.85        2976.25           2516         911.00      3969.59
  275.89        2976.50           2520         908.00      3956.50
  275.92        2976.75           2523         897.00      3908.54
  275.95        2977.00           2527         911.00      3969.59
  275.98        2977.25           2530         891.00      3882.38
  276.01        2977.50           2534         899.00      3917.26
  276.04        2977.75           2537         896.00      3904.18
  276.07        2978.00           2541         871.00      3795.17
  276.10        2978.25           2544         876.00      3816.97
  276.13        2978.50           2548         892.00      3886.74
  276.16        2978.75           2552         857.00      3734.13
  276.19        2979.00           2555         854.00      3721.05
  276.22        2979.25           2559         859.00      3742.85
  276.25        2979.50           2562         838.00      3651.28
  276.28        2979.75           2566         834.00      3633.84
  276.31        2980.00           2569         863.00      3760.29
  276.34        2980.25           2573         833.00      3629.48
  276.37        2980.50           2577         821.00      3577.16
  276.41        2980.75           2580         799.00      3481.23
  276.44        2981.00           2584         805.00      3507.39
  276.47        2981.25           2587         810.00      3529.19
  276.50        2981.50           2591         772.00      3363.51
  276.53        2981.75           2594         789.00      3437.63
  276.56        2982.00           2598         773.00      3367.87
  276.59        2982.25           2601         768.00      3346.07
  276.62        2982.50           2605         788.00      3433.27
  276.65        2982.75           2609         792.00      3450.71
  276.68        2983.00           2612         796.00      3468.15
  276.71        2983.25           2616         785.00      3420.19
  276.74        2983.50           2619         796.00      3468.15
  276.77        2983.75           2623         750.00      3267.58
  276.80        2984.00           2626         772.00      3363.51
HS scan finished at 04:37:02
end
************************************************************
  HS Scan of 
************************************************************
Integration time is 0.2294 seconds per sample
dh170217Reading 51.44 .94 3.27pr1000
************************************************************
Dead Time -------------------------  3.4E-08 
Number of Cycles Used -------------  4 
Starting Wavelength (Angstroms) ---  2950 
Final Wavelength (Angstoms) -------  2984 
Wavelength Increment (Angstroms) --  .25 
Filter Wheel #1 Position ---------- (1) Ground quartz diffuser (ND=2.32)
Filter Wheel #2 Position ---------- (1) Neutral Density 0.494



************************************************************
HS scan start time = 18:07:25
Dark Count =  1.8 


Time (GMT)  Wavelength (Ang)  Step Number  Raw Counts  Counts/Second

 1088.32        2950.00           2144         744.00      3235.75
 1088.52        2950.25           2147         731.00      3179.07
 1088.55        2950.50           2151         762.00      3314.24
 1088.58        2950.75           2155         757.00      3292.43
 1088.61        2951.00           2158         753.00      3274.99
 1088.64        2951.25           2162         756.00      3288.08
 1088.67        2951.50           2165         761.00      3309.88
 1088.70        2951.75           2169         768.00      3340.40
 1088.73        2952.00           2172         801.00      3484.28
 1088.76        2952.25           2176         770.00      3349.12
 1088.79        2952.50           2179         764.00      3322.96
 1088.82        2952.75           2183         761.00      3309.88
 1088.85        2953.00           2186         785.00      3414.52
 1088.88        2953.25           2190         781.00      3397.08
 1088.91        2953.50           2193         790.00      3436.32
 1088.94        2953.75           2197         755.00      3283.71
 1088.97        2954.00           2200         790.00      3436.32
 1089.00        2954.25           2204         789.00      3431.96
 1089.04        2954.50           2208         759.00      3301.16
 1089.07        2954.75           2211         804.00      3497.36
 1089.10        2955.00           2215         784.00      3410.16
 1089.13        2955.25           2218         821.00      3571.49
 1089.16        2955.50           2222         833.00      3623.81
 1089.19        2955.75           2225         796.00      3462.48
 1089.22        2956.00           2229         807.00      3510.45
 1089.25        2956.25           2232         830.00      3610.73
 1089.28        2956.50           2236         834.00      3628.17
 1089.31        2956.75           2239         837.00      3641.25
 1089.34        2957.00           2243         854.00      3715.38
 1089.37        2957.25           2246         846.00      3680.50
 1089.40        2957.50           2250         831.00      3615.09
 1089.43        2957.75           2254         891.00      3876.71
 1089.46        2958.00           2257         845.00      3676.14
 1089.49        2958.25           2261         861.00      3745.90
 1089.52        2958.50           2264         894.00      3889.79
 1089.56        2958.75           2268         887.00      3859.27
 1089.59        2959.00           2271         907.00      3946.48
 1089.62        2959.25           2275         915.00      3981.36
 1089.65        2959.50           2278         904.00      3933.39
 1089.68        2959.75           2282         924.00      4020.60
 1089.71        2960.00           2285         925.00      4024.96
 1089.74        2960.25           2289         944.00      4107.81
 1089.77        2960.50           2293         922.00      4011.88
 1089.80        2960.75           2296         968.00      4212.46
 1089.83        2961.00           2300         983.00      4277.87
 1089.86        2961.25           2303        1066.00      4639.79
 1089.89        2961.50           2307        2025.00      8822.18
 1089.92        2961.75           2310        5525.00     24096.46
 1089.95        2962.00           2314       13563.00     59235.14
 1089.98        2962.25           2317       20764.00     90786.34
 1090.01        2962.50           2321       32223.00    141134.20
 1090.04        2962.75           2324       41286.00    181077.40
 1090.08        2963.00           2328       53132.00    233450.70
 1090.11        2963.25           2331       61554.00    270800.10
 1090.14        2963.50           2335       73356.00    323299.80
 1090.17        2963.75           2339       84985.00    375215.00
 1090.20        2964.00           2342       94514.00    417893.00
 1090.23        2964.25           2346      107340.00    475535.20
 1090.26        2964.50           2349      116424.00    516498.50
 1090.29        2964.75           2353      127181.00    565155.30
 1090.32        2965.00           2356      135776.00    604150.00
 1090.35        2965.25           2360      147945.00    659538.80
 1090.38        2965.50           2363      156499.00    698600.30
 1090.41        2965.75           2367      167302.00    748082.10
 1090.44        2966.00           2370      174652.00    781844.50
 1090.47        2966.25           2374      184119.00    825447.70
 1090.50        2966.50           2378      192943.00    866207.60
 1090.53        2966.75           2381      195857.00    879693.30
 1090.56        2967.00           2385      196504.00    882689.20
 1090.59        2967.25           2388      196640.00    883319.10
 1090.63        2967.50           2392      196644.00    883337.60
 1090.66        2967.75           2395      196678.00    883495.00
 1090.69        2968.00           2399      194795.00    874777.00
 1090.72        2968.25           2402      188950.00    847748.90
 1090.75        2968.50           2406      178393.00    799059.20
 1090.78        2968.75           2409      170558.00    763029.00
 1090.81        2969.00           2413      159711.00    713294.90
 1090.84        2969.25           2417      149199.00    665258.60
 1090.87        2969.50           2420      140857.00    627251.20
 1090.90        2969.75           2424      130166.00    578686.10
 1090.93        2970.00           2427      122591.00    544373.60
 1090.96        2970.25           2431      110297.00    488856.80
 1090.99        2970.50           2434      100866.00    446411.50
 1091.02        2970.75           2438       86999.00    384224.80
 1091.05        2971.00           2441       78063.00    344291.00
 1091.08        2971.25           2445       67290.00    296292.50
 1091.11        2971.50           2449       56804.00    249723.40
 1091.15        2971.75           2452       48344.00    212259.60
 1091.18        2972.00           2456       36253.00    158882.10
 1091.21        2972.25           2459       27604.00    120818.70
 1091.24        2972.50           2463       17211.00     75210.38
 1091.28        2972.75           2466        9677.00     42236.73
 1091.31        2973.00           2470        3418.00     14899.44
 1091.34        2973.25           2473        1718.00      7483.16
 1091.37        2973.50           2477        1115.00      4853.46
 1091.40        2973.75           2481        1025.00      4461.01
 1091.43        2974.00           2484         981.00      4269.15
 1091.46        2974.25           2488         955.00      4155.77
 1091.49        2974.50           2491         974.00      4238.62
 1091.53        2974.75           2495         966.00      4203.74
 1091.56        2975.00           2498         931.00      4051.13
 1091.59        2975.25           2502         938.00      4081.65
 1091.62        2975.50           2505         907.00      3946.48
 1091.65        2975.75           2509         895.00      3894.15
 1091.68        2976.00           2512         868.00      3776.42
 1091.71        2976.25           2516         862.00      3750.26
 1091.74        2976.50           2520         913.00      3972.64
 1091.77        2976.75           2523         845.00      3676.14
 1091.80        2977.00           2527         858.00      3732.82
 1091.83        2977.25           2530         858.00      3732.82
 1091.86        2977.50           2534         850.00      3697.94
 1091.89        2977.75           2537         800.00      3479.92
 1091.92        2978.00           2541         818.00      3558.41
 1091.95        2978.25           2544         826.00      3593.29
 1091.98        2978.50           2548         799.00      3475.56
 1092.01        2978.75           2552         783.00      3405.80
 1092.05        2979.00           2555         790.00      3436.32
 1092.08        2979.25           2559         791.00      3440.68
 1092.11        2979.50           2562         779.00      3388.36
 1092.14        2979.75           2566         752.00      3270.63
 1092.17        2980.00           2569         760.00      3305.52
 1092.20        2980.25           2573         756.00      3288.08
 1092.23        2980.50           2577         783.00      3405.80
 1092.26        2980.75           2580         763.00      3318.60
 1092.29        2981.00           2584         749.00      3257.55
 1092.32        2981.25           2587         765.00      3327.32
 1092.35        2981.50           2591         763.00      3318.60
 1092.38        2981.75           2594         757.00      3292.43
 1092.41        2982.00           2598         766.00      3331.68
 1092.44        2982.25           2601         726.00      3157.27
 1092.47        2982.50           2605         750.00      3261.91
 1092.50        2982.75           2609         730.00      3174.71
 1092.53        2983.00           2612         757.00      3292.43
 1092.57        2983.25           2616         744.00      3235.75
 1092.60        2983.50           2619         765.00      3327.32
 1092.63        2983.75           2623         725.00      3152.91
 1092.66        2984.00           2626         721.00      3135.47
HS scan finished at 18:12:53
end
