************************************************************
  HS Scan of (1) Internal mercury lamp
************************************************************
Integration time is 0.2294 seconds per sample
dh090219Reading 51.44 .94 2.62pr1000
************************************************************
Dead Time -------------------------  3.4E-08 
Number of Cycles Used -------------  4 
Starting Wavelength (Angstroms) ---  2950 
Final Wavelength (Angstoms) -------  2984 
Wavelength Increment (Angstroms) --  .25 
Filter Wheel #1 Position ---------- (1) Ground quartz diffuser (ND=2.32)
Filter Wheel #2 Position ---------- (1) Neutral Density 0.494



************************************************************
HS scan start time = 04:46:55
Dark Count =  .3 


Time (GMT)  Wavelength (Ang)  Step Number  Raw Counts  Counts/Second

  287.81        2950.00           2144        1617.00      7049.20
  288.00        2950.25           2147        1629.00      7101.54
  288.03        2950.50           2151        1620.00      7062.29
  288.07        2950.75           2155        1613.00      7031.76
  288.10        2951.00           2158        1625.00      7084.09
  288.13        2951.25           2162        1609.00      7014.31
  288.16        2951.50           2165        1636.00      7132.07
  288.19        2951.75           2169        1630.00      7105.90
  288.22        2952.00           2172        1650.00      7193.13
  288.25        2952.25           2176        1671.00      7284.72
  288.28        2952.50           2179        1633.00      7118.99
  288.31        2952.75           2183        1688.00      7358.86
  288.34        2953.00           2186        1665.00      7258.55
  288.37        2953.25           2190        1663.00      7249.83
  288.40        2953.50           2193        1684.00      7341.41
  288.43        2953.75           2197        1675.00      7302.16
  288.46        2954.00           2200        1660.00      7236.74
  288.49        2954.25           2204        1711.00      7459.17
  288.52        2954.50           2208        1690.00      7367.58
  288.55        2954.75           2211        1705.00      7433.00
  288.59        2955.00           2215        1687.00      7354.50
  288.62        2955.25           2218        1708.00      7446.09
  288.65        2955.50           2222        1736.00      7568.21
  288.68        2955.75           2225        1735.00      7563.85
  288.71        2956.00           2229        1758.00      7664.16
  288.74        2956.25           2232        1745.00      7607.46
  288.77        2956.50           2236        1761.00      7677.24
  288.80        2956.75           2239        1798.00      7838.62
  288.83        2957.00           2243        1745.00      7607.46
  288.86        2957.25           2246        1801.00      7851.70
  288.89        2957.50           2250        1825.00      7956.38
  288.92        2957.75           2254        1795.00      7825.53
  288.95        2958.00           2257        1815.00      7912.76
  288.98        2958.25           2261        1865.00      8130.84
  289.01        2958.50           2264        1903.00      8296.59
  289.04        2958.75           2268        1888.00      8231.16
  289.07        2959.00           2271        1858.00      8100.31
  289.11        2959.25           2275        1941.00      8462.33
  289.14        2959.50           2278        1920.00      8370.73
  289.17        2959.75           2282        1925.00      8392.54
  289.20        2960.00           2285        1954.00      8519.03
  289.23        2960.25           2289        1993.00      8689.14
  289.26        2960.50           2293        2045.00      8915.95
  289.29        2960.75           2296        2088.00      9103.51
  289.32        2961.00           2300        2144.00      9347.78
  289.35        2961.25           2303        2405.00     10486.30
  289.38        2961.50           2307        5774.00     25190.27
  289.41        2961.75           2310       13864.00     60559.18
  289.44        2962.00           2314       28300.00    123884.70
  289.47        2962.25           2317       40659.00    178317.20
  289.50        2962.50           2321       62266.00    273968.60
  289.53        2962.75           2324       79713.00    351663.10
  289.56        2963.00           2328      103592.00    458674.30
  289.59        2963.25           2331      120505.00    534945.60
  289.63        2963.50           2335      143285.00    638310.10
  289.66        2963.75           2339      163943.00    732685.40
  289.69        2964.00           2342      183001.00    820298.50
  289.72        2964.25           2346      206371.00    928462.40
  289.75        2964.50           2349      225305.00   1016692.00
  289.78        2964.75           2353      247344.00   1120073.00
  289.81        2965.00           2356      262997.00   1193952.00
  289.84        2965.25           2360      284374.00   1295463.00
  289.87        2965.50           2363      301027.00   1375041.00
  289.90        2965.75           2367      319701.00   1464804.00
  289.93        2966.00           2370      333345.00   1530746.00
  289.96        2966.25           2374      353243.00   1627462.00
  289.99        2966.50           2378      370178.00   1710295.00
  290.02        2966.75           2381      376288.00   1740299.00
  290.05        2967.00           2385      378150.00   1749455.00
  290.08        2967.25           2388      379063.00   1753947.00
  290.11        2967.50           2392      378055.00   1748988.00
  290.15        2967.75           2395      378025.00   1748840.00
  290.18        2968.00           2399      373045.00   1724366.00
  290.21        2968.25           2402      362301.00   1671707.00
  290.24        2968.50           2406      345503.00   1589764.00
  290.27        2968.75           2409      331630.00   1522441.00
  290.30        2969.00           2413      312101.00   1428204.00
  290.33        2969.25           2417      292552.00   1334487.00
  290.36        2969.50           2420      276818.00   1259500.00
  290.39        2969.75           2424      252654.00   1145093.00
  290.42        2970.00           2427      235697.00   1065347.00
  290.45        2970.25           2431      213044.00    959496.10
  290.48        2970.50           2434      195951.00    880135.40
  290.51        2970.75           2438      174473.00    781028.30
  290.54        2971.00           2441      158681.00    708587.90
  290.57        2971.25           2445      137709.00    612941.00
  290.60        2971.50           2449      116148.00    515259.00
  290.63        2971.75           2452       98332.00    435034.70
  290.66        2972.00           2456       74357.00    327768.00
  290.70        2972.25           2459       58031.00    255171.60
  290.73        2972.50           2463       37483.00    164309.90
  290.76        2972.75           2466       23154.00    101279.70
  290.79        2973.00           2470        8960.00     39109.08
  290.82        2973.25           2473        4236.00     18475.86
  290.85        2973.50           2477        2377.00     10364.16
  290.88        2973.75           2481        2101.00      9160.22
  290.91        2974.00           2484        2088.00      9103.51
  290.94        2974.25           2488        2047.00      8924.68
  290.97        2974.50           2491        1987.00      8662.97
  291.00        2974.75           2495        1924.00      8388.18
  291.03        2975.00           2498        1926.00      8396.90
  291.06        2975.25           2502        1906.00      8309.67
  291.09        2975.50           2505        1928.00      8405.63
  291.12        2975.75           2509        1873.00      8165.74
  291.15        2976.00           2512        1843.00      8034.89
  291.18        2976.25           2516        1780.00      7760.11
  291.22        2976.50           2520        1833.00      7991.27
  291.25        2976.75           2523        1766.00      7699.05
  291.28        2977.00           2527        1799.00      7842.98
  291.31        2977.25           2530        1739.00      7581.29
  291.34        2977.50           2534        1762.00      7681.61
  291.37        2977.75           2537        1743.00      7598.74
  291.40        2978.00           2541        1694.00      7385.03
  291.43        2978.25           2544        1737.00      7572.57
  291.46        2978.50           2548        1689.00      7363.22
  291.49        2978.75           2552        1690.00      7367.58
  291.52        2979.00           2555        1657.00      7223.66
  291.55        2979.25           2559        1677.00      7310.88
  291.58        2979.50           2562        1621.00      7066.65
  291.61        2979.75           2566        1645.00      7171.32
  291.64        2980.00           2569        1610.00      7018.68
  291.67        2980.25           2573        1615.00      7040.48
  291.71        2980.50           2577        1575.00      6866.03
  291.74        2980.75           2580        1606.00      7001.23
  291.77        2981.00           2584        1558.00      6791.89
  291.80        2981.25           2587        1555.00      6778.81
  291.83        2981.50           2591        1551.00      6761.36
  291.86        2981.75           2594        1558.00      6791.89
  291.90        2982.00           2598        1548.00      6748.28
  291.93        2982.25           2601        1527.00      6656.69
  291.96        2982.50           2605        1563.00      6813.70
  291.99        2982.75           2609        1518.00      6617.44
  292.02        2983.00           2612        1512.00      6591.28
  292.05        2983.25           2616        1534.00      6687.22
  292.08        2983.50           2619        1523.00      6639.25
  292.11        2983.75           2623        1498.00      6530.22
  292.14        2984.00           2626        1540.00      6713.39
HS scan finished at 04:52:22
end
************************************************************
  HS Scan of (1) Internal mercury lamp
************************************************************
Integration time is 0.2294 seconds per sample
dh090219Reading 51.44 .94 3pr1000
************************************************************
Dead Time -------------------------  3.4E-08 
Number of Cycles Used -------------  4 
Starting Wavelength (Angstroms) ---  2950 
Final Wavelength (Angstoms) -------  2984 
Wavelength Increment (Angstroms) --  .25 
Filter Wheel #1 Position ---------- (1) Ground quartz diffuser (ND=2.32)
Filter Wheel #2 Position ---------- (1) Neutral Density 0.494



************************************************************
HS scan start time = 18:07:27
Dark Count =  .8 


Time (GMT)  Wavelength (Ang)  Step Number  Raw Counts  Counts/Second

 1088.34        2950.00           2144        1542.00      6719.93
 1088.53        2950.25           2147        1535.00      6689.40
 1088.57        2950.50           2151        1548.00      6746.10
 1088.60        2950.75           2155        1566.00      6824.60
 1088.63        2951.00           2158        1545.00      6733.01
 1088.66        2951.25           2162        1539.00      6706.85
 1088.69        2951.50           2165        1569.00      6837.68
 1088.72        2951.75           2169        1576.00      6868.21
 1088.75        2952.00           2172        1572.00      6850.77
 1088.78        2952.25           2176        1602.00      6981.60
 1088.81        2952.50           2179        1579.00      6881.30
 1088.84        2952.75           2183        1582.00      6894.38
 1088.87        2953.00           2186        1548.00      6746.10
 1088.90        2953.25           2190        1588.00      6920.55
 1088.93        2953.50           2193        1558.00      6789.71
 1088.96        2953.75           2197        1603.00      6985.97
 1088.99        2954.00           2200        1602.00      6981.60
 1089.02        2954.25           2204        1615.00      7038.30
 1089.05        2954.50           2208        1591.00      6933.63
 1089.09        2954.75           2211        1695.00      7387.21
 1089.12        2955.00           2215        1643.00      7160.42
 1089.15        2955.25           2218        1613.00      7029.58
 1089.18        2955.50           2222        1659.00      7230.20
 1089.21        2955.75           2225        1646.00      7173.50
 1089.24        2956.00           2229        1632.00      7112.44
 1089.27        2956.25           2232        1689.00      7361.04
 1089.30        2956.50           2236        1701.00      7413.38
 1089.33        2956.75           2239        1696.00      7391.57
 1089.36        2957.00           2243        1697.00      7395.93
 1089.39        2957.25           2246        1722.00      7504.97
 1089.42        2957.50           2250        1750.00      7627.09
 1089.45        2957.75           2254        1795.00      7823.35
 1089.48        2958.00           2257        1760.00      7670.70
 1089.51        2958.25           2261        1787.00      7788.46
 1089.54        2958.50           2264        1807.00      7875.69
 1089.57        2958.75           2268        1814.00      7906.22
 1089.60        2959.00           2271        1792.00      7810.27
 1089.64        2959.25           2275        1871.00      8154.83
 1089.67        2959.50           2278        1897.00      8268.24
 1089.70        2959.75           2282        1876.00      8176.64
 1089.73        2960.00           2285        1916.00      8351.11
 1089.76        2960.25           2289        1974.00      8604.09
 1089.79        2960.50           2293        1979.00      8625.89
 1089.82        2960.75           2296        2022.00      8813.45
 1089.85        2961.00           2300        2124.00      9258.36
 1089.88        2961.25           2303        2445.00     10658.61
 1089.91        2961.50           2307        5514.00     24052.79
 1089.94        2961.75           2310       13244.00     57843.38
 1089.97        2962.00           2314       28844.00    126274.20
 1090.00        2962.25           2317       43245.00    189730.00
 1090.03        2962.50           2321       65261.00    287274.40
 1090.06        2962.75           2324       83311.00    367734.90
 1090.09        2963.00           2328      107611.00    476760.10
 1090.12        2963.25           2331      127260.00    565517.70
 1090.16        2963.50           2335      152161.00    678782.50
 1090.19        2963.75           2339      173656.00    777269.40
 1090.22        2964.00           2342      190548.00    855137.90
 1090.25        2964.25           2346      215281.00    969912.20
 1090.28        2964.50           2349      233921.00   1057018.00
 1090.31        2964.75           2353      256356.00   1162559.00
 1090.34        2965.00           2356      272948.00   1241114.00
 1090.37        2965.25           2360      295594.00   1349027.00
 1090.40        2965.50           2363      312259.00   1428961.00
 1090.43        2965.75           2367      332784.00   1528026.00
 1090.46        2966.00           2370      348357.00   1603650.00
 1090.49        2966.25           2374      369460.00   1706771.00
 1090.52        2966.50           2378      386603.00   1791093.00
 1090.55        2966.75           2381      393428.00   1824803.00
 1090.58        2967.00           2385      395503.00   1835068.00
 1090.61        2967.25           2388      396201.00   1838523.00
 1090.64        2967.50           2392      396325.00   1839136.00
 1090.68        2967.75           2395      396540.00   1840200.00
 1090.71        2968.00           2399      394316.00   1829195.00
 1090.74        2968.25           2402      387040.00   1793249.00
 1090.77        2968.50           2406      370262.00   1710705.00
 1090.80        2968.75           2409      354997.00   1636017.00
 1090.83        2969.00           2413      334663.00   1537130.00
 1090.86        2969.25           2417      311976.00   1427600.00
 1090.89        2969.50           2420      296037.00   1351147.00
 1090.92        2969.75           2424      273200.00   1242310.00
 1090.95        2970.00           2427      254919.00   1155776.00
 1090.98        2970.25           2431      232050.00   1048251.00
 1091.01        2970.50           2434      214500.00    966274.00
 1091.04        2970.75           2438      190577.00    855272.00
 1091.07        2971.00           2441      173983.00    778772.90
 1091.10        2971.25           2445      149146.00    665021.40
 1091.13        2971.50           2449      122017.00    541781.40
 1091.16        2971.75           2452      103221.00    457003.40
 1091.20        2972.00           2456       78899.00    348026.80
 1091.23        2972.25           2459       61503.00    270578.10
 1091.26        2972.50           2463       38733.00    169819.00
 1091.29        2972.75           2466       23876.00    104447.00
 1091.32        2973.00           2470        8866.00     38696.04
 1091.35        2973.25           2473        4205.00     18338.37
 1091.38        2973.50           2477        2348.00     10235.47
 1091.41        2973.75           2481        2108.00      9188.57
 1091.44        2974.00           2484        2027.00      8835.26
 1091.47        2974.25           2488        1956.00      8525.57
 1091.50        2974.50           2491        1950.00      8499.40
 1091.53        2974.75           2495        1954.00      8516.85
 1091.56        2975.00           2498        1922.00      8377.28
 1091.59        2975.25           2502        1873.00      8163.56
 1091.62        2975.50           2505        1813.00      7901.86
 1091.65        2975.75           2509        1850.00      8063.24
 1091.68        2976.00           2512        1818.00      7923.67
 1091.72        2976.25           2516        1764.00      7688.15
 1091.75        2976.50           2520        1729.00      7535.50
 1091.78        2976.75           2523        1775.00      7736.12
 1091.81        2977.00           2527        1697.00      7395.93
 1091.84        2977.25           2530        1743.00      7596.56
 1091.87        2977.50           2534        1687.00      7352.32
 1091.90        2977.75           2537        1700.00      7409.01
 1091.93        2978.00           2541        1691.00      7369.76
 1091.96        2978.25           2544        1604.00      6990.33
 1091.99        2978.50           2548        1651.00      7195.31
 1092.02        2978.75           2552        1573.00      6855.13
 1092.05        2979.00           2555        1625.00      7081.91
 1092.08        2979.25           2559        1611.00      7020.86
 1092.11        2979.50           2562        1616.00      7042.66
 1092.14        2979.75           2566        1558.00      6789.71
 1092.17        2980.00           2569        1556.00      6780.99
 1092.20        2980.25           2573        1588.00      6920.55
 1092.24        2980.50           2577        1521.00      6628.35
 1092.27        2980.75           2580        1530.00      6667.60
 1092.30        2981.00           2584        1579.00      6881.30
 1092.33        2981.25           2587        1507.00      6567.29
 1092.36        2981.50           2591        1521.00      6628.35
 1092.39        2981.75           2594        1552.00      6763.54
 1092.42        2982.00           2598        1501.00      6541.12
 1092.45        2982.25           2601        1505.00      6558.57
 1092.48        2982.50           2605        1485.00      6471.35
 1092.51        2982.75           2609        1485.00      6471.35
 1092.54        2983.00           2612        1509.00      6576.01
 1092.57        2983.25           2616        1494.00      6510.60
 1092.60        2983.50           2619        1500.00      6536.76
 1092.63        2983.75           2623        1490.00      6493.15
 1092.66        2984.00           2626        1461.00      6366.68
HS scan finished at 18:12:53
end
