************************************************************
  HS Scan of 
************************************************************
Integration time is 0.2294 seconds per sample
dh120217Reading 51.44 .94 2.54pr1000
************************************************************
Dead Time -------------------------  3.4E-08 
Number of Cycles Used -------------  4 
Starting Wavelength (Angstroms) ---  2950 
Final Wavelength (Angstoms) -------  2984 
Wavelength Increment (Angstroms) --  .25 
Filter Wheel #1 Position ---------- (1) Ground quartz diffuser (ND=2.32)
Filter Wheel #2 Position ---------- (1) Neutral Density 0.494



************************************************************
HS scan start time = 04:43:56
Dark Count =  .3 


Time (GMT)  Wavelength (Ang)  Step Number  Raw Counts  Counts/Second

  284.82        2950.00           2144         803.00      3499.54
  285.02        2950.25           2147         819.00      3569.31
  285.05        2950.50           2151         834.00      3634.71
  285.08        2950.75           2155         826.00      3599.83
  285.11        2951.00           2158         815.00      3551.87
  285.14        2951.25           2162         838.00      3652.15
  285.17        2951.50           2165         837.00      3647.79
  285.20        2951.75           2169         846.00      3687.04
  285.23        2952.00           2172         845.00      3682.68
  285.26        2952.25           2176         833.00      3630.35
  285.29        2952.50           2179         828.00      3608.55
  285.32        2952.75           2183         853.00      3717.56
  285.35        2953.00           2186         858.00      3739.36
  285.38        2953.25           2190         856.00      3730.64
  285.41        2953.50           2193         829.00      3612.91
  285.45        2953.75           2197         842.00      3669.60
  285.48        2954.00           2200         862.00      3756.80
  285.51        2954.25           2204         818.00      3564.95
  285.54        2954.50           2208         852.00      3713.20
  285.57        2954.75           2211         830.00      3617.27
  285.60        2955.00           2215         815.00      3551.87
  285.63        2955.25           2218         857.00      3735.00
  285.66        2955.50           2222         864.00      3765.52
  285.69        2955.75           2225         872.00      3800.40
  285.72        2956.00           2229         868.00      3782.96
  285.75        2956.25           2232         889.00      3874.53
  285.79        2956.50           2236         876.00      3817.85
  285.82        2956.75           2239         872.00      3800.40
  285.85        2957.00           2243         896.00      3905.05
  285.88        2957.25           2246         890.00      3878.89
  285.91        2957.50           2250         885.00      3857.09
  285.94        2957.75           2254         919.00      4005.34
  285.97        2958.00           2257         913.00      3979.18
  286.00        2958.25           2261         920.00      4009.70
  286.04        2958.50           2264         945.00      4118.71
  286.07        2958.75           2268         947.00      4127.43
  286.10        2959.00           2271         985.00      4293.13
  286.13        2959.25           2275         938.00      4088.19
  286.16        2959.50           2278         971.00      4232.08
  286.19        2959.75           2282         974.00      4245.16
  286.22        2960.00           2285         988.00      4306.21
  286.25        2960.25           2289         987.00      4301.85
  286.28        2960.50           2293        1070.00      4663.77
  286.31        2960.75           2296        1039.00      4528.60
  286.34        2961.00           2300        1095.00      4772.79
  286.37        2961.25           2303        1297.00      5653.66
  286.40        2961.50           2307        3810.00     16616.62
  286.43        2961.75           2310        8689.00     37924.64
  286.46        2962.00           2314       17202.00     75177.52
  286.49        2962.25           2317       24535.00    107342.70
  286.52        2962.50           2321       34028.00    149087.30
  286.55        2962.75           2324       41307.00    181176.70
  286.59        2963.00           2328       51032.00    224159.20
  286.62        2963.25           2331       59038.00    259639.00
  286.65        2963.50           2335       70579.00    310936.40
  286.68        2963.75           2339       81436.00    359358.30
  286.71        2964.00           2342       88726.00    391961.80
  286.74        2964.25           2346       99372.00    439705.70
  286.77        2964.50           2349      107220.00    475001.60
  286.80        2964.75           2353      118152.00    524310.50
  286.83        2965.00           2356      126056.00    560065.80
  286.86        2965.25           2360      134946.00    600386.60
  286.89        2965.50           2363      142170.00    633233.60
  286.92        2965.75           2367      151926.00    677711.70
  286.95        2966.00           2370      158586.00    708153.20
  286.98        2966.25           2374      168111.00    751801.30
  287.01        2966.50           2378      175796.00    787113.50
  287.04        2966.75           2381      177888.00    796741.10
  287.07        2967.00           2385      179071.00    802188.10
  287.11        2967.25           2388      178522.00    799660.10
  287.14        2967.50           2392      178698.00    800470.50
  287.17        2967.75           2395      178037.00    797427.10
  287.20        2968.00           2399      176780.00    791641.20
  287.23        2968.25           2402      172672.00    772748.50
  287.26        2968.50           2406      163417.00    730274.80
  287.29        2968.75           2409      155560.00    694314.10
  287.32        2969.00           2413      145593.00    648823.80
  287.35        2969.25           2417      135336.00    602158.00
  287.38        2969.50           2420      128012.00    568927.70
  287.41        2969.75           2424      117649.00    522038.10
  287.44        2970.00           2427      108651.00    481446.70
  287.47        2970.25           2431       97001.00    429059.00
  287.50        2970.50           2434       89615.00    395942.70
  287.53        2970.75           2438       78786.00    347524.60
  287.56        2971.00           2441       70545.00    310785.00
  287.60        2971.25           2445       60427.00    265803.30
  287.63        2971.50           2449       50259.00    220738.10
  287.66        2971.75           2452       42336.00    185718.70
  287.69        2972.00           2456       31292.00    137043.80
  287.72        2972.25           2459       23177.00    101380.70
  287.75        2972.50           2463       13453.00     58760.26
  287.78        2972.75           2466        6972.00     30422.47
  287.81        2973.00           2470        2476.00     10796.03
  287.84        2973.25           2473        1334.00      5815.01
  287.87        2973.50           2477        1084.00      4724.82
  287.90        2973.75           2481         997.00      4345.45
  287.93        2974.00           2484         998.00      4349.82
  287.96        2974.25           2488         983.00      4284.41
  287.99        2974.50           2491        1009.00      4397.78
  288.02        2974.75           2495         993.00      4328.01
  288.05        2975.00           2498         941.00      4101.27
  288.08        2975.25           2502         938.00      4088.19
  288.11        2975.50           2505         926.00      4035.86
  288.15        2975.75           2509         937.00      4083.83
  288.18        2976.00           2512         929.00      4048.94
  288.21        2976.25           2516         893.00      3891.97
  288.24        2976.50           2520         873.00      3804.76
  288.27        2976.75           2523         884.00      3852.73
  288.30        2977.00           2527         914.00      3983.54
  288.33        2977.25           2530         866.00      3774.24
  288.36        2977.50           2534         906.00      3948.66
  288.39        2977.75           2537         869.00      3787.32
  288.42        2978.00           2541         851.00      3708.84
  288.45        2978.25           2544         869.00      3787.32
  288.48        2978.50           2548         840.00      3660.87
  288.51        2978.75           2552         861.00      3752.44
  288.54        2979.00           2555         838.00      3652.15
  288.57        2979.25           2559         811.00      3534.43
  288.60        2979.50           2562         815.00      3551.87
  288.63        2979.75           2566         802.00      3495.18
  288.67        2980.00           2569         832.00      3625.99
  288.70        2980.25           2573         799.00      3482.10
  288.73        2980.50           2577         803.00      3499.54
  288.76        2980.75           2580         823.00      3586.75
  288.79        2981.00           2584         809.00      3525.71
  288.82        2981.25           2587         774.00      3373.10
  288.85        2981.50           2591         779.00      3394.90
  288.88        2981.75           2594         780.00      3399.26
  288.91        2982.00           2598         787.00      3429.78
  288.94        2982.25           2601         774.00      3373.10
  288.97        2982.50           2605         784.00      3416.70
  289.00        2982.75           2609         806.00      3512.63
  289.03        2983.00           2612         788.00      3434.14
  289.06        2983.25           2616         768.00      3346.94
  289.09        2983.50           2619         778.00      3390.54
  289.12        2983.75           2623         783.00      3412.34
  289.15        2984.00           2626         766.00      3338.22
HS scan finished at 04:49:22
end
************************************************************
  HS Scan of 
************************************************************
Integration time is 0.2294 seconds per sample
dh120217Reading 51.44 .94 2.62pr1000
************************************************************
Dead Time -------------------------  3.4E-08 
Number of Cycles Used -------------  4 
Starting Wavelength (Angstroms) ---  2950 
Final Wavelength (Angstoms) -------  2984 
Wavelength Increment (Angstroms) --  .25 
Filter Wheel #1 Position ---------- (1) Ground quartz diffuser (ND=2.32)
Filter Wheel #2 Position ---------- (1) Neutral Density 0.494



************************************************************
HS scan start time = 18:07:29
Dark Count =  .4 


Time (GMT)  Wavelength (Ang)  Step Number  Raw Counts  Counts/Second

 1088.39        2950.00           2144         765.00      3333.42
 1088.58        2950.25           2147         725.00      3159.01
 1088.61        2950.50           2151         733.00      3193.90
 1088.64        2950.75           2155         732.00      3189.54
 1088.67        2951.00           2158         768.00      3346.50
 1088.70        2951.25           2162         734.00      3198.26
 1088.73        2951.50           2165         747.00      3254.94
 1088.76        2951.75           2169         751.00      3272.38
 1088.79        2952.00           2172         754.00      3285.46
 1088.82        2952.25           2176         734.00      3198.26
 1088.86        2952.50           2179         771.00      3359.58
 1088.89        2952.75           2183         752.00      3276.74
 1088.92        2953.00           2186         763.00      3324.70
 1088.95        2953.25           2190         748.00      3259.30
 1088.98        2953.50           2193         764.00      3329.06
 1089.02        2953.75           2197         806.00      3512.19
 1089.05        2954.00           2200         790.00      3442.43
 1089.08        2954.25           2204         822.00      3581.95
 1089.11        2954.50           2208         781.00      3403.18
 1089.14        2954.75           2211         759.00      3307.26
 1089.17        2955.00           2215         787.00      3429.34
 1089.20        2955.25           2218         794.00      3459.87
 1089.23        2955.50           2222         769.00      3350.86
 1089.26        2955.75           2225         803.00      3499.11
 1089.29        2956.00           2229         836.00      3643.00
 1089.32        2956.25           2232         808.00      3520.91
 1089.35        2956.50           2236         831.00      3621.20
 1089.38        2956.75           2239         792.00      3451.15
 1089.41        2957.00           2243         806.00      3512.19
 1089.44        2957.25           2246         822.00      3581.95
 1089.47        2957.50           2250         805.00      3507.83
 1089.50        2957.75           2254         820.00      3573.23
 1089.54        2958.00           2257         857.00      3734.56
 1089.57        2958.25           2261         824.00      3590.67
 1089.60        2958.50           2264         849.00      3699.68
 1089.63        2958.75           2268         868.00      3782.53
 1089.66        2959.00           2271         846.00      3686.60
 1089.69        2959.25           2275         843.00      3673.52
 1089.72        2959.50           2278         856.00      3730.20
 1089.75        2959.75           2282         856.00      3730.20
 1089.78        2960.00           2285         870.00      3791.25
 1089.81        2960.25           2289         900.00      3922.06
 1089.84        2960.50           2293         905.00      3943.86
 1089.87        2960.75           2296         886.00      3861.01
 1089.90        2961.00           2300         923.00      4022.35
 1089.93        2961.25           2303        1011.00      4406.07
 1089.96        2961.50           2307        1596.00      6957.18
 1089.99        2961.75           2310        3807.00     16603.09
 1090.02        2962.00           2314       10195.00     44507.58
 1090.05        2962.25           2317       16211.00     70835.61
 1090.09        2962.50           2321       24701.00    108071.20
 1090.12        2962.75           2324       31036.00    135917.00
 1090.15        2963.00           2328       39836.00    174685.70
 1090.18        2963.25           2331       45570.00    200002.40
 1090.21        2963.50           2335       54346.00    238834.80
 1090.24        2963.75           2339       63343.00    278752.40
 1090.27        2964.00           2342       70115.00    308870.10
 1090.30        2964.25           2346       79199.00    349367.80
 1090.33        2964.50           2349       85311.00    376679.30
 1090.36        2964.75           2353       94212.00    416544.80
 1090.39        2965.00           2356      100719.00    445757.20
 1090.42        2965.25           2360      108669.00    481527.30
 1090.45        2965.50           2363      114768.00    509028.70
 1090.48        2965.75           2367      122553.00    544208.00
 1090.51        2966.00           2370      128340.00    570413.80
 1090.54        2966.25           2374      136435.00    607150.50
 1090.57        2966.50           2378      143001.00    637016.40
 1090.61        2966.75           2381      144968.00    645975.50
 1090.64        2967.00           2385      145561.00    648677.40
 1090.67        2967.25           2388      145530.00    648536.10
 1090.70        2967.50           2392      145248.00    647251.10
 1090.73        2967.75           2395      145107.00    646608.80
 1090.76        2968.00           2399      143901.00    641115.00
 1090.79        2968.25           2402      139587.00    621480.00
 1090.82        2968.50           2406      133205.00    592481.00
 1090.85        2968.75           2409      127729.00    567644.70
 1090.88        2969.00           2413      119554.00    530645.80
 1090.91        2969.25           2417      110632.00    490373.20
 1090.94        2969.50           2420      104329.00    461989.10
 1090.97        2969.75           2424       95577.00    422668.00
 1091.00        2970.00           2427       89421.00    395073.50
 1091.03        2970.25           2431       81167.00    358156.20
 1091.06        2970.50           2434       74675.00    329185.20
 1091.09        2970.75           2438       66542.00    292971.90
 1091.13        2971.00           2441       60847.00    267667.30
 1091.16        2971.25           2445       51871.00    227872.90
 1091.19        2971.50           2449       43165.00    189378.50
 1091.22        2971.75           2452       36371.00    159408.30
 1091.25        2972.00           2456       28311.00    123932.60
 1091.28        2972.25           2459       22423.00     98071.02
 1091.31        2972.50           2463       15185.00     66342.16
 1091.34        2972.75           2466        9417.00     41106.24
 1091.37        2973.00           2470        3160.00     13779.78
 1091.40        2973.25           2473        1479.00      6446.92
 1091.43        2973.50           2477         988.00      4305.77
 1091.46        2973.75           2481         905.00      3943.86
 1091.49        2974.00           2484         925.00      4031.07
 1091.52        2974.25           2488         877.00      3821.77
 1091.55        2974.50           2491         871.00      3795.61
 1091.58        2974.75           2495         876.00      3817.41
 1091.61        2975.00           2498         872.00      3799.97
 1091.65        2975.25           2502         827.00      3603.75
 1091.68        2975.50           2505         856.00      3730.20
 1091.71        2975.75           2509         817.00      3560.15
 1091.74        2976.00           2512         830.00      3616.84
 1091.77        2976.25           2516         828.00      3608.11
 1091.80        2976.50           2520         802.00      3494.75
 1091.83        2976.75           2523         791.00      3446.79
 1091.86        2977.00           2527         787.00      3429.34
 1091.89        2977.25           2530         794.00      3459.87
 1091.92        2977.50           2534         781.00      3403.18
 1091.95        2977.75           2537         791.00      3446.79
 1091.98        2978.00           2541         764.00      3329.06
 1092.01        2978.25           2544         784.00      3416.26
 1092.04        2978.50           2548         743.00      3237.50
 1092.07        2978.75           2552         773.00      3368.30
 1092.10        2979.00           2555         796.00      3468.59
 1092.13        2979.25           2559         742.00      3233.14
 1092.17        2979.50           2562         741.00      3228.78
 1092.20        2979.75           2566         736.00      3206.98
 1092.23        2980.00           2569         742.00      3233.14
 1092.26        2980.25           2573         716.00      3119.77
 1092.29        2980.50           2577         767.00      3342.14
 1092.32        2980.75           2580         739.00      3220.06
 1092.35        2981.00           2584         710.00      3093.61
 1092.38        2981.25           2587         722.00      3145.93
 1092.41        2981.50           2591         723.00      3150.29
 1092.44        2981.75           2594         716.00      3119.77
 1092.47        2982.00           2598         701.00      3054.37
 1092.50        2982.25           2601         700.00      3050.01
 1092.53        2982.50           2605         697.00      3036.93
 1092.56        2982.75           2609         688.00      2997.69
 1092.59        2983.00           2612         700.00      3050.01
 1092.62        2983.25           2616         693.00      3019.49
 1092.65        2983.50           2619         694.00      3023.85
 1092.68        2983.75           2623         709.00      3089.25
 1092.72        2984.00           2626         713.00      3106.69
HS scan finished at 18:12:56
end
