************************************************************
  HS Scan of (1) Internal mercury lamp
************************************************************
Integration time is 0.2294 seconds per sample
dh140219Reading 51.44 .94 2.5pr1000
************************************************************
Dead Time -------------------------  3.4E-08 
Number of Cycles Used -------------  4 
Starting Wavelength (Angstroms) ---  2950 
Final Wavelength (Angstoms) -------  2984 
Wavelength Increment (Angstroms) --  .25 
Filter Wheel #1 Position ---------- (1) Ground quartz diffuser (ND=2.32)
Filter Wheel #2 Position ---------- (1) Neutral Density 0.494



************************************************************
HS scan start time = 04:41:12
Dark Count =  .3 


Time (GMT)  Wavelength (Ang)  Step Number  Raw Counts  Counts/Second

  282.09        2950.00           2144        1674.00      7297.80
  282.29        2950.25           2147        1720.00      7498.42
  282.32        2950.50           2151        1749.00      7624.91
  282.35        2950.75           2155        1729.00      7537.68
  282.38        2951.00           2158        1676.00      7306.52
  282.41        2951.25           2162        1690.00      7367.58
  282.44        2951.50           2165        1727.00      7528.95
  282.47        2951.75           2169        1706.00      7437.36
  282.50        2952.00           2172        1682.00      7332.69
  282.53        2952.25           2176        1726.00      7524.59
  282.56        2952.50           2179        1747.00      7616.18
  282.59        2952.75           2183        1777.00      7747.03
  282.62        2953.00           2186        1738.00      7576.93
  282.65        2953.25           2190        1751.00      7633.63
  282.68        2953.50           2193        1702.00      7419.92
  282.71        2953.75           2197        1760.00      7672.88
  282.74        2954.00           2200        1765.00      7694.69
  282.77        2954.25           2204        1746.00      7611.82
  282.80        2954.50           2208        1773.00      7729.58
  282.84        2954.75           2211        1774.00      7733.94
  282.87        2955.00           2215        1783.00      7773.20
  282.90        2955.25           2218        1792.00      7812.45
  282.93        2955.50           2222        1795.00      7825.53
  282.96        2955.75           2225        1841.00      8026.17
  282.99        2956.00           2229        1848.00      8056.70
  283.02        2956.25           2232        1863.00      8122.12
  283.05        2956.50           2236        1873.00      8165.74
  283.08        2956.75           2239        1830.00      7978.19
  283.11        2957.00           2243        1853.00      8078.50
  283.14        2957.25           2246        1897.00      8270.42
  283.17        2957.50           2250        1898.00      8274.78
  283.20        2957.75           2254        1913.00      8340.20
  283.23        2958.00           2257        1931.00      8418.71
  283.26        2958.25           2261        1957.00      8532.12
  283.29        2958.50           2264        2000.00      8719.67
  283.33        2958.75           2268        2006.00      8745.84
  283.36        2959.00           2271        2011.00      8767.65
  283.39        2959.25           2275        2022.00      8815.63
  283.42        2959.50           2278        2032.00      8859.25
  283.45        2959.75           2282        2103.00      9168.94
  283.48        2960.00           2285        2085.00      9090.43
  283.51        2960.25           2289        2165.00      9439.39
  283.54        2960.50           2293        2181.00      9509.18
  283.57        2960.75           2296        2252.00      9818.88
  283.60        2961.00           2300        2406.00     10490.66
  283.63        2961.25           2303        2923.00     12746.15
  283.66        2961.50           2307        7578.00     33069.86
  283.69        2961.75           2310       17448.00     76255.43
  283.72        2962.00           2314       37640.00    165002.00
  283.75        2962.25           2317       56633.00    248971.80
  283.78        2962.50           2321       81831.00    361123.10
  283.81        2962.75           2324      100635.00    445380.20
  283.85        2963.00           2328      124056.00    551010.10
  283.88        2963.25           2331      144863.00    645497.50
  283.91        2963.50           2335      175514.00    785816.30
  283.94        2963.75           2339      205009.00    922136.40
  283.97        2964.00           2342      225013.00   1015327.00
  284.00        2964.25           2346      250620.00   1135504.00
  284.03        2964.50           2349      268790.00   1221390.00
  284.06        2964.75           2353      295057.00   1346462.00
  284.09        2965.00           2356      313759.00   1436180.00
  284.12        2965.25           2360      337919.00   1552921.00
  284.15        2965.50           2363      354654.00   1634345.00
  284.18        2965.75           2367      377916.00   1748304.00
  284.21        2966.00           2370      395794.00   1836510.00
  284.24        2966.25           2374      417792.00   1945800.00
  284.27        2966.50           2378      431682.00   2015243.00
  284.30        2966.75           2381      435429.00   2034034.00
  284.33        2967.00           2385      437002.00   2041930.00
  284.36        2967.25           2388      437018.00   2042010.00
  284.40        2967.50           2392      436478.00   2039299.00
  284.43        2967.75           2395      434945.00   2031605.00
  284.46        2968.00           2399      425886.00   1986224.00
  284.49        2968.25           2402      412888.00   1921363.00
  284.52        2968.50           2406      393942.00   1827348.00
  284.55        2968.75           2409      375638.00   1737104.00
  284.58        2969.00           2413      348771.00   1605669.00
  284.61        2969.25           2417      324891.00   1489852.00
  284.64        2969.50           2420      305943.00   1398617.00
  284.67        2969.75           2424      280690.00   1277917.00
  284.70        2970.00           2427      261380.00   1186303.00
  284.73        2970.25           2431      234631.00   1060348.00
  284.76        2970.50           2434      216045.00    973474.40
  284.79        2970.75           2438      191573.00    859878.80
  284.82        2971.00           2441      172202.00    770588.60
  284.85        2971.25           2445      145241.00    647219.80
  284.89        2971.50           2449      116683.00    517674.80
  284.92        2971.75           2452       95797.00    423655.50
  284.95        2972.00           2456       71522.00    315135.80
  284.98        2972.25           2459       56546.00    248586.10
  285.01        2972.50           2463       36027.00    157892.90
  285.04        2972.75           2466       20109.00     87920.22
  285.07        2973.00           2470        6157.00     26862.80
  285.10        2973.25           2473        3236.00     14111.83
  285.13        2973.50           2477        2405.00     10486.30
  285.16        2973.75           2481        2271.00      9901.76
  285.19        2974.00           2484        2179.00      9500.45
  285.22        2974.25           2488        2172.00      9469.92
  285.25        2974.50           2491        2117.00      9230.01
  285.28        2974.75           2495        2060.00      8981.38
  285.31        2975.00           2498        2035.00      8872.34
  285.34        2975.25           2502        2031.00      8854.89
  285.37        2975.50           2505        2017.00      8793.82
  285.41        2975.75           2509        1959.00      8540.84
  285.44        2976.00           2512        1933.00      8427.44
  285.47        2976.25           2516        1930.00      8414.35
  285.50        2976.50           2520        1915.00      8348.93
  285.53        2976.75           2523        1887.00      8226.80
  285.56        2977.00           2527        1867.00      8139.57
  285.59        2977.25           2530        1836.00      8004.36
  285.62        2977.50           2534        1781.00      7764.47
  285.65        2977.75           2537        1763.00      7685.97
  285.68        2978.00           2541        1742.00      7594.38
  285.71        2978.25           2544        1725.00      7520.23
  285.74        2978.50           2548        1694.00      7385.03
  285.77        2978.75           2552        1641.00      7153.88
  285.80        2979.00           2555        1665.00      7258.55
  285.83        2979.25           2559        1628.00      7097.18
  285.86        2979.50           2562        1611.00      7023.04
  285.89        2979.75           2566        1570.00      6844.23
  285.92        2980.00           2569        1616.00      7044.84
  285.96        2980.25           2573        1579.00      6883.48
  285.99        2980.50           2577        1568.00      6835.50
  286.02        2980.75           2580        1575.00      6866.03
  286.05        2981.00           2584        1536.00      6695.95
  286.08        2981.25           2587        1550.00      6757.00
  286.11        2981.50           2591        1539.00      6709.03
  286.14        2981.75           2594        1532.00      6678.50
  286.17        2982.00           2598        1543.00      6726.47
  286.20        2982.25           2601        1503.00      6552.03
  286.23        2982.50           2605        1519.00      6621.80
  286.26        2982.75           2609        1505.00      6560.75
  286.30        2983.00           2612        1540.00      6713.39
  286.33        2983.25           2616        1465.00      6386.30
  286.36        2983.50           2619        1505.00      6560.75
  286.39        2983.75           2623        1514.00      6600.00
  286.42        2984.00           2626        1483.00      6464.80
HS scan finished at 04:46:39
end
************************************************************
  HS Scan of (1) Internal mercury lamp
************************************************************
Integration time is 0.2294 seconds per sample
dh140219Reading 51.44 .94 3.05pr1000
************************************************************
Dead Time -------------------------  3.4E-08 
Number of Cycles Used -------------  4 
Starting Wavelength (Angstroms) ---  2950 
Final Wavelength (Angstoms) -------  2984 
Wavelength Increment (Angstroms) --  .25 
Filter Wheel #1 Position ---------- (1) Ground quartz diffuser (ND=2.32)
Filter Wheel #2 Position ---------- (1) Neutral Density 0.494



************************************************************
HS scan start time = 18:10:00
Dark Count =  .9 


Time (GMT)  Wavelength (Ang)  Step Number  Raw Counts  Counts/Second

 1090.90        2950.00           2144        1194.00      5201.88
 1091.10        2950.25           2147        1181.00      5145.19
 1091.13        2950.50           2151        1213.00      5284.73
 1091.17        2950.75           2155        1187.00      5171.35
 1091.20        2951.00           2158        1187.00      5171.35
 1091.23        2951.25           2162        1214.00      5289.09
 1091.26        2951.50           2165        1188.00      5175.71
 1091.29        2951.75           2169        1217.00      5302.18
 1091.33        2952.00           2172        1214.00      5289.09
 1091.36        2952.25           2176        1200.00      5228.04
 1091.39        2952.50           2179        1231.00      5363.23
 1091.42        2952.75           2183        1220.00      5315.26
 1091.45        2953.00           2186        1249.00      5441.72
 1091.48        2953.25           2190        1235.00      5380.67
 1091.51        2953.50           2193        1235.00      5380.67
 1091.54        2953.75           2197        1245.00      5424.28
 1091.57        2954.00           2200        1267.00      5520.22
 1091.60        2954.25           2204        1225.00      5337.06
 1091.63        2954.50           2208        1221.00      5319.62
 1091.66        2954.75           2211        1240.00      5402.47
 1091.69        2955.00           2215        1258.00      5480.97
 1091.72        2955.25           2218        1309.00      5703.37
 1091.75        2955.50           2222        1288.00      5611.79
 1091.78        2955.75           2225        1303.00      5677.21
 1091.81        2956.00           2229        1300.00      5664.13
 1091.85        2956.25           2232        1308.00      5699.01
 1091.88        2956.50           2236        1308.00      5699.01
 1091.91        2956.75           2239        1336.00      5821.12
 1091.94        2957.00           2243        1325.00      5773.15
 1091.97        2957.25           2246        1337.00      5825.48
 1092.00        2957.50           2250        1326.00      5777.51
 1092.03        2957.75           2254        1403.00      6113.30
 1092.06        2958.00           2257        1372.00      5978.11
 1092.09        2958.25           2261        1423.00      6200.52
 1092.12        2958.50           2264        1411.00      6148.19
 1092.15        2958.75           2268        1376.00      5995.55
 1092.18        2959.00           2271        1390.00      6056.61
 1092.21        2959.25           2275        1423.00      6200.52
 1092.24        2959.50           2278        1494.00      6510.16
 1092.27        2959.75           2282        1475.00      6427.30
 1092.30        2960.00           2285        1479.00      6444.74
 1092.33        2960.25           2289        1535.00      6688.97
 1092.37        2960.50           2293        1523.00      6636.63
 1092.40        2960.75           2296        1533.00      6680.24
 1092.43        2961.00           2300        1606.00      6998.61
 1092.46        2961.25           2303        1774.00      7731.33
 1092.49        2961.50           2307        3306.00     14414.65
 1092.52        2961.75           2310        9519.00     41549.94
 1092.55        2962.00           2314       24137.00    105592.50
 1092.58        2962.25           2317       36574.00    160300.70
 1092.61        2962.50           2321       53198.00    233747.00
 1092.64        2962.75           2324       66092.00    290968.50
 1092.67        2963.00           2328       85060.00    375554.40
 1092.70        2963.25           2331      101053.00    447256.00
 1092.73        2963.50           2335      120655.00    535621.10
 1092.76        2963.75           2339      139028.00    618935.30
 1092.79        2964.00           2342      152815.00    681768.60
 1092.82        2964.25           2346      171922.00    769299.10
 1092.85        2964.50           2349      186637.00    837071.30
 1092.90        2964.75           2353      204844.00    921367.40
 1092.93        2965.00           2356      218689.00    985798.20
 1092.96        2965.25           2360      237520.00   1073896.00
 1092.99        2965.50           2363      251779.00   1140964.00
 1093.02        2965.75           2367      269475.00   1224635.00
 1093.05        2966.00           2370      280529.00   1277148.00
 1093.08        2966.25           2374      296398.00   1352873.00
 1093.11        2966.50           2378      309476.00   1415581.00
 1093.14        2966.75           2381      314721.00   1440808.00
 1093.18        2967.00           2385      316854.00   1451080.00
 1093.21        2967.25           2388      317473.00   1454062.00
 1093.24        2967.50           2392      317639.00   1454862.00
 1093.27        2967.75           2395      316518.00   1449461.00
 1093.30        2968.00           2399      313635.00   1435581.00
 1093.33        2968.25           2402      305919.00   1398498.00
 1093.36        2968.50           2406      291392.00   1328942.00
 1093.39        2968.75           2409      279826.00   1273803.00
 1093.42        2969.00           2413      262530.00   1191739.00
 1093.45        2969.25           2417      245988.00   1113688.00
 1093.48        2969.50           2420      232775.00   1051647.00
 1093.51        2969.75           2424      215707.00    971896.60
 1093.54        2970.00           2427      203072.00    913141.80
 1093.57        2970.25           2431      184926.00    829174.70
 1093.60        2970.50           2434      168478.00    753482.90
 1093.63        2970.75           2438      148560.00    662347.80
 1093.66        2971.00           2441      134004.00    596106.10
 1093.70        2971.25           2445      115677.00    513129.70
 1093.73        2971.50           2449       98377.00    435234.10
 1093.76        2971.75           2452       84557.00    373305.00
 1093.79        2972.00           2456       65411.00    287940.80
 1093.82        2972.25           2459       51047.00    224223.00
 1093.85        2972.50           2463       32001.00    140161.10
 1093.88        2972.75           2466       19886.00     86939.69
 1093.91        2973.00           2470        7570.00     33032.29
 1093.94        2973.25           2473        3298.00     14379.74
 1093.97        2973.50           2477        1860.00      8106.42
 1094.00        2973.75           2481        1649.00      7186.15
 1094.03        2974.00           2484        1598.00      6963.72
 1094.06        2974.25           2488        1592.00      6937.56
 1094.10        2974.50           2491        1509.00      6575.58
 1094.13        2974.75           2495        1531.00      6671.52
 1094.16        2975.00           2498        1490.00      6492.72
 1094.19        2975.25           2502        1432.00      6239.77
 1094.22        2975.50           2505        1457.00      6348.80
 1094.25        2975.75           2509        1414.00      6161.27
 1094.28        2976.00           2512        1368.00      5960.67
 1094.31        2976.25           2516        1380.00      6013.00
 1094.34        2976.50           2520        1361.00      5930.14
 1094.37        2976.75           2523        1349.00      5877.81
 1094.40        2977.00           2527        1345.00      5860.37
 1094.43        2977.25           2530        1298.00      5655.40
 1094.46        2977.50           2534        1332.00      5803.67
 1094.49        2977.75           2537        1296.00      5646.68
 1094.52        2978.00           2541        1302.00      5672.85
 1094.55        2978.25           2544        1300.00      5664.13
 1094.58        2978.50           2548        1238.00      5393.75
 1094.62        2978.75           2552        1282.00      5585.63
 1094.65        2979.00           2555        1260.00      5489.69
 1094.68        2979.25           2559        1231.00      5363.23
 1094.71        2979.50           2562        1247.00      5433.00
 1094.74        2979.75           2566        1244.00      5419.92
 1094.77        2980.00           2569        1189.00      5180.08
 1094.80        2980.25           2573        1210.00      5271.65
 1094.83        2980.50           2577        1216.00      5297.82
 1094.86        2980.75           2580        1199.00      5223.68
 1094.89        2981.00           2584        1208.00      5262.93
 1094.92        2981.25           2587        1160.00      5053.61
 1094.95        2981.50           2591        1188.00      5175.71
 1094.98        2981.75           2594        1170.00      5097.22
 1095.01        2982.00           2598        1161.00      5057.98
 1095.04        2982.25           2601        1166.00      5079.78
 1095.07        2982.50           2605        1143.00      4979.48
 1095.10        2982.75           2609        1156.00      5036.17
 1095.14        2983.00           2612        1185.00      5162.63
 1095.17        2983.25           2616        1146.00      4992.57
 1095.20        2983.50           2619        1118.00      4870.47
 1095.23        2983.75           2623        1141.00      4970.76
 1095.26        2984.00           2626        1124.00      4896.63
HS scan finished at 18:15:29
end
