************************************************************
  HS Scan of 
************************************************************
Integration time is 0.2294 seconds per sample
dh100217Reading 51.44 .94 2.52pr1000
************************************************************
Dead Time -------------------------  3.4E-08 
Number of Cycles Used -------------  4 
Starting Wavelength (Angstroms) ---  2950 
Final Wavelength (Angstoms) -------  2984 
Wavelength Increment (Angstroms) --  .25 
Filter Wheel #1 Position ---------- (1) Ground quartz diffuser (ND=2.32)
Filter Wheel #2 Position ---------- (1) Neutral Density 0.494



************************************************************
HS scan start time = 04:47:25
Dark Count =  .3 


Time (GMT)  Wavelength (Ang)  Step Number  Raw Counts  Counts/Second

  288.32        2950.00           2144         761.00      3316.42
  288.51        2950.25           2147         799.00      3482.10
  288.54        2950.50           2151         817.00      3560.59
  288.57        2950.75           2155         788.00      3434.14
  288.60        2951.00           2158         802.00      3495.18
  288.63        2951.25           2162         799.00      3482.10
  288.66        2951.50           2165         814.00      3547.51
  288.69        2951.75           2169         837.00      3647.79
  288.72        2952.00           2172         815.00      3551.87
  288.76        2952.25           2176         838.00      3652.15
  288.79        2952.50           2179         797.00      3473.38
  288.82        2952.75           2183         816.00      3556.23
  288.85        2953.00           2186         838.00      3652.15
  288.88        2953.25           2190         840.00      3660.87
  288.91        2953.50           2193         826.00      3599.83
  288.94        2953.75           2197         840.00      3660.87
  288.97        2954.00           2200         839.00      3656.51
  289.00        2954.25           2204         843.00      3673.96
  289.03        2954.50           2208         855.00      3726.28
  289.06        2954.75           2211         833.00      3630.35
  289.09        2955.00           2215         854.00      3721.92
  289.12        2955.25           2218         828.00      3608.55
  289.15        2955.50           2222         842.00      3669.60
  289.18        2955.75           2225         905.00      3944.30
  289.21        2956.00           2229         838.00      3652.15
  289.24        2956.25           2232         877.00      3822.21
  289.28        2956.50           2236         875.00      3813.49
  289.31        2956.75           2239         874.00      3809.12
  289.34        2957.00           2243         897.00      3909.41
  289.37        2957.25           2246         894.00      3896.33
  289.40        2957.50           2250         888.00      3870.17
  289.43        2957.75           2254         898.00      3913.77
  289.46        2958.00           2257         917.00      3996.62
  289.49        2958.25           2261         952.00      4149.23
  289.52        2958.50           2264         922.00      4018.42
  289.55        2958.75           2268         923.00      4022.78
  289.58        2959.00           2271         936.00      4079.47
  289.61        2959.25           2275         970.00      4227.72
  289.64        2959.50           2278         977.00      4258.25
  289.67        2959.75           2282        1000.00      4358.54
  289.70        2960.00           2285         968.00      4219.00
  289.73        2960.25           2289        1024.00      4463.19
  289.76        2960.50           2293         974.00      4245.16
  289.80        2960.75           2296        1023.00      4458.83
  289.83        2961.00           2300        1062.00      4628.89
  289.86        2961.25           2303        1183.00      5156.53
  289.89        2961.50           2307        2641.00     11515.84
  289.92        2961.75           2310        7266.00     31706.79
  289.95        2962.00           2314       15730.00     68729.29
  289.98        2962.25           2317       22285.00     97465.87
  290.01        2962.50           2321       31452.00    137747.80
  290.04        2962.75           2324       39015.00    171064.90
  290.07        2963.00           2328       50687.00    222632.20
  290.10        2963.25           2331       59134.00    260064.90
  290.13        2963.50           2335       69816.00    307539.50
  290.16        2963.75           2339       80257.00    354092.30
  290.19        2964.00           2342       87777.00    387713.50
  290.22        2964.25           2346       98857.00    437392.40
  290.25        2964.50           2349      107099.00    474456.80
  290.28        2964.75           2353      118270.00    524843.70
  290.32        2965.00           2356      125506.00    557574.90
  290.35        2965.25           2360      134887.00    600118.70
  290.38        2965.50           2363      142678.00    635546.30
  290.41        2965.75           2367      152693.00    681214.20
  290.44        2966.00           2370      160002.00    714633.80
  290.47        2966.25           2374      168518.00    753669.30
  290.50        2966.50           2378      176093.00    788480.00
  290.53        2966.75           2381      178245.00    798384.60
  290.56        2967.00           2385      179184.00    802708.60
  290.59        2967.25           2388      179383.00    803625.10
  290.62        2967.50           2392      178914.00    801465.10
  290.65        2967.75           2395      178626.00    800139.00
  290.68        2968.00           2399      176358.00    789699.30
  290.71        2968.25           2402      170795.00    764124.50
  290.74        2968.50           2406      161714.00    722472.80
  290.77        2968.75           2409      154641.00    690113.60
  290.80        2969.00           2413      145426.00    648062.80
  290.84        2969.25           2417      135230.00    601676.50
  290.87        2969.50           2420      128373.00    570563.90
  290.90        2969.75           2424      117792.00    522684.10
  290.93        2970.00           2427      109358.00    484632.00
  290.96        2970.25           2431       98321.00    434985.30
  290.99        2970.50           2434       90843.00    401443.50
  291.02        2970.75           2438       80386.00    354668.40
  291.05        2971.00           2441       72702.00    320392.30
  291.08        2971.25           2445       62067.00    273084.90
  291.11        2971.50           2449       53010.00    232917.00
  291.14        2971.75           2452       45697.00    200564.00
  291.17        2972.00           2456       35643.00    156200.90
  291.20        2972.25           2459       27620.00    120895.70
  291.23        2972.50           2463       16784.00     73346.15
  291.26        2972.75           2466        9079.00     39629.21
  291.29        2973.00           2470        3234.00     14103.10
  291.32        2973.25           2473        1769.00      7712.14
  291.36        2973.50           2477        1136.00      4951.57
  291.39        2973.75           2481        1067.00      4650.69
  291.42        2974.00           2484        1055.00      4598.37
  291.45        2974.25           2488        1004.00      4375.98
  291.48        2974.50           2491         984.00      4288.77
  291.51        2974.75           2495         951.00      4144.87
  291.54        2975.00           2498         984.00      4288.77
  291.57        2975.25           2502         965.00      4205.92
  291.60        2975.50           2505         950.00      4140.51
  291.63        2975.75           2509         982.00      4280.05
  291.66        2976.00           2512         923.00      4022.78
  291.69        2976.25           2516         902.00      3931.21
  291.72        2976.50           2520         904.00      3939.94
  291.75        2976.75           2523         906.00      3948.66
  291.78        2977.00           2527         883.00      3848.37
  291.81        2977.25           2530         885.00      3857.09
  291.84        2977.50           2534         904.00      3939.94
  291.87        2977.75           2537         843.00      3673.96
  291.91        2978.00           2541         909.00      3961.74
  291.94        2978.25           2544         837.00      3647.79
  291.97        2978.50           2548         859.00      3743.72
  292.00        2978.75           2552         837.00      3647.79
  292.03        2979.00           2555         834.00      3634.71
  292.06        2979.25           2559         819.00      3569.31
  292.09        2979.50           2562         832.00      3625.99
  292.12        2979.75           2566         842.00      3669.60
  292.15        2980.00           2569         837.00      3647.79
  292.18        2980.25           2573         799.00      3482.10
  292.21        2980.50           2577         820.00      3573.67
  292.24        2980.75           2580         788.00      3434.14
  292.27        2981.00           2584         808.00      3521.35
  292.30        2981.25           2587         785.00      3421.06
  292.33        2981.50           2591         797.00      3473.38
  292.36        2981.75           2594         791.00      3447.22
  292.40        2982.00           2598         766.00      3338.22
  292.43        2982.25           2601         795.00      3464.66
  292.46        2982.50           2605         774.00      3373.10
  292.49        2982.75           2609         766.00      3338.22
  292.52        2983.00           2612         800.00      3486.46
  292.55        2983.25           2616         794.00      3460.30
  292.58        2983.50           2619         796.00      3469.02
  292.61        2983.75           2623         780.00      3399.26
  292.64        2984.00           2626         775.00      3377.46
HS scan finished at 04:52:52
end
************************************************************
  HS Scan of 
************************************************************
Integration time is 0.2294 seconds per sample
dh100217Reading 51.44 .94 2.56pr1000
************************************************************
Dead Time -------------------------  3.4E-08 
Number of Cycles Used -------------  4 
Starting Wavelength (Angstroms) ---  2950 
Final Wavelength (Angstoms) -------  2984 
Wavelength Increment (Angstroms) --  .25 
Filter Wheel #1 Position ---------- (1) Ground quartz diffuser (ND=2.32)
Filter Wheel #2 Position ---------- (1) Neutral Density 0.494



************************************************************
HS scan start time = 18:07:16
Dark Count =  .6 


Time (GMT)  Wavelength (Ang)  Step Number  Raw Counts  Counts/Second

 1088.17        2950.00           2144         632.00      2752.66
 1088.36        2950.25           2147         650.00      2831.14
 1088.39        2950.50           2151         625.00      2722.14
 1088.42        2950.75           2155         647.00      2818.06
 1088.45        2951.00           2158         654.00      2848.58
 1088.49        2951.25           2162         651.00      2835.50
 1088.52        2951.50           2165         629.00      2739.58
 1088.55        2951.75           2169         650.00      2831.14
 1088.58        2952.00           2172         612.00      2665.46
 1088.61        2952.25           2176         605.00      2634.94
 1088.64        2952.50           2179         598.00      2604.42
 1088.67        2952.75           2183         674.00      2935.78
 1088.70        2953.00           2186         622.00      2709.06
 1088.73        2953.25           2190         650.00      2831.14
 1088.76        2953.50           2193         650.00      2831.14
 1088.79        2953.75           2197         617.00      2687.26
 1088.82        2954.00           2200         642.00      2796.26
 1088.85        2954.25           2204         647.00      2818.06
 1088.88        2954.50           2208         653.00      2844.22
 1088.91        2954.75           2211         669.00      2913.98
 1088.94        2955.00           2215         652.00      2839.86
 1088.97        2955.25           2218         667.00      2905.26
 1089.01        2955.50           2222         663.00      2887.82
 1089.04        2955.75           2225         635.00      2765.74
 1089.07        2956.00           2229         653.00      2844.22
 1089.10        2956.25           2232         659.00      2870.38
 1089.13        2956.50           2236         652.00      2839.86
 1089.16        2956.75           2239         655.00      2852.94
 1089.19        2957.00           2243         671.00      2922.70
 1089.22        2957.25           2246         699.00      3044.78
 1089.25        2957.50           2250         702.00      3057.86
 1089.28        2957.75           2254         674.00      2935.78
 1089.31        2958.00           2257         694.00      3022.98
 1089.34        2958.25           2261         689.00      3001.18
 1089.37        2958.50           2264         678.00      2953.22
 1089.40        2958.75           2268         708.00      3084.02
 1089.43        2959.00           2271         695.00      3027.34
 1089.46        2959.25           2275         685.00      2983.74
 1089.49        2959.50           2278         714.00      3110.18
 1089.53        2959.75           2282         718.00      3127.62
 1089.56        2960.00           2285         697.00      3036.06
 1089.59        2960.25           2289         738.00      3214.82
 1089.62        2960.50           2293         751.00      3271.51
 1089.65        2960.75           2296         768.00      3345.63
 1089.68        2961.00           2300         793.00      3454.63
 1089.71        2961.25           2303         831.00      3620.32
 1089.74        2961.50           2307        1574.00      6860.36
 1089.77        2961.75           2310        3932.00     17147.74
 1089.80        2962.00           2314        8848.00     38618.25
 1089.83        2962.25           2317       12986.00     56715.19
 1089.86        2962.50           2321       19097.00     83481.61
 1089.89        2962.75           2324       24627.00    107745.40
 1089.92        2963.00           2328       32199.00    141033.90
 1089.95        2963.25           2331       37072.00    162496.90
 1089.98        2963.50           2335       43671.00    191612.20
 1090.01        2963.75           2339       49569.00    217683.70
 1090.05        2964.00           2342       54626.00    240074.60
 1090.08        2964.25           2346       61848.00    272111.00
 1090.11        2964.50           2349       67431.00    296925.00
 1090.14        2964.75           2353       74404.00    327976.20
 1090.17        2965.00           2356       79384.00    350192.80
 1090.20        2965.25           2360       85701.00    378422.70
 1090.23        2965.50           2363       90214.00    398624.30
 1090.26        2965.75           2367       96599.00    427253.20
 1090.29        2966.00           2370      101175.00    447805.70
 1090.32        2966.25           2374      107678.00    477062.70
 1090.35        2966.50           2378      113108.00    501537.40
 1090.38        2966.75           2381      114906.00    509650.70
 1090.41        2967.00           2385      115927.00    514259.70
 1090.44        2967.25           2388      115804.00    513704.40
 1090.47        2967.50           2392      115760.00    513505.70
 1090.50        2967.75           2395      115945.00    514341.00
 1090.53        2968.00           2399      114947.00    509835.70
 1090.57        2968.25           2402      112808.00    500184.20
 1090.60        2968.50           2406      107219.00    474995.80
 1090.63        2968.75           2409      102706.00    454688.30
 1090.66        2969.00           2413       96936.00    428765.80
 1090.69        2969.25           2417       91031.00    402284.40
 1090.72        2969.50           2420       85495.00    377501.30
 1090.75        2969.75           2424       78329.00    345483.50
 1090.78        2970.00           2427       73559.00    324209.80
 1090.81        2970.25           2431       66785.00    294051.60
 1090.84        2970.50           2434       61755.00    271698.00
 1090.87        2970.75           2438       54786.00    240783.60
 1090.90        2971.00           2441       49705.00    218285.40
 1090.93        2971.25           2445       42967.00    188503.30
 1090.96        2971.50           2449       34995.00    153344.90
 1090.99        2971.75           2452       29207.00    127871.20
 1091.02        2972.00           2456       22702.00     99294.56
 1091.05        2972.25           2459       17932.00     78375.10
 1091.09        2972.50           2463       11870.00     51832.33
 1091.12        2972.75           2466        7481.00     32644.76
 1091.15        2973.00           2470        2731.00     11907.17
 1091.18        2973.25           2473        1250.00      5447.39
 1091.21        2973.50           2477         825.00      3594.16
 1091.24        2973.75           2481         760.00      3310.75
 1091.27        2974.00           2484         746.00      3249.71
 1091.30        2974.25           2488         742.00      3232.26
 1091.33        2974.50           2491         752.00      3275.87
 1091.36        2974.75           2495         694.00      3022.98
 1091.39        2975.00           2498         708.00      3084.02
 1091.42        2975.25           2502         700.00      3049.14
 1091.45        2975.50           2505         664.00      2892.18
 1091.48        2975.75           2509         702.00      3057.86
 1091.51        2976.00           2512         678.00      2953.22
 1091.54        2976.25           2516         654.00      2848.58
 1091.57        2976.50           2520         673.00      2931.42
 1091.61        2976.75           2523         660.00      2874.74
 1091.64        2977.00           2527         648.00      2822.42
 1091.67        2977.25           2530         663.00      2887.82
 1091.71        2977.50           2534         671.00      2922.70
 1091.74        2977.75           2537         652.00      2839.86
 1091.77        2978.00           2541         625.00      2722.14
 1091.80        2978.25           2544         629.00      2739.58
 1091.83        2978.50           2548         619.00      2695.98
 1091.87        2978.75           2552         595.00      2591.34
 1091.90        2979.00           2555         619.00      2695.98
 1091.93        2979.25           2559         651.00      2835.50
 1091.96        2979.50           2562         619.00      2695.98
 1091.99        2979.75           2566         615.00      2678.54
 1092.02        2980.00           2569         600.00      2613.14
 1092.05        2980.25           2573         604.00      2630.58
 1092.08        2980.50           2577         589.00      2565.18
 1092.11        2980.75           2580         621.00      2704.70
 1092.14        2981.00           2584         587.00      2556.46
 1092.17        2981.25           2587         582.00      2534.66
 1092.20        2981.50           2591         587.00      2556.46
 1092.23        2981.75           2594         579.00      2521.58
 1092.27        2982.00           2598         597.00      2600.06
 1092.31        2982.25           2601         576.00      2508.50
 1092.34        2982.50           2605         592.00      2578.26
 1092.37        2982.75           2609         580.00      2525.94
 1092.40        2983.00           2612         581.00      2530.30
 1092.43        2983.25           2616         565.00      2460.54
 1092.46        2983.50           2619         571.00      2486.70
 1092.49        2983.75           2623         572.00      2491.06
 1092.52        2984.00           2626         578.00      2517.22
HS scan finished at 18:12:45
end
