************************************************************
  HS Scan of (1) Internal mercury lamp
************************************************************
Integration time is 0.2294 seconds per sample
dh160219Reading 51.44 .94 2.66pr1000
************************************************************
Dead Time -------------------------  3.4E-08 
Number of Cycles Used -------------  4 
Starting Wavelength (Angstroms) ---  2950 
Final Wavelength (Angstoms) -------  2984 
Wavelength Increment (Angstroms) --  .25 
Filter Wheel #1 Position ---------- (1) Ground quartz diffuser (ND=2.32)
Filter Wheel #2 Position ---------- (1) Neutral Density 0.494



************************************************************
HS scan start time = 04:34:28
Dark Count =  .3 


Time (GMT)  Wavelength (Ang)  Step Number  Raw Counts  Counts/Second

  275.36        2950.00           2144        1612.00      7027.40
  275.56        2950.25           2147        1598.00      6966.34
  275.59        2950.50           2151        1612.00      7027.40
  275.62        2950.75           2155        1639.00      7145.15
  275.65        2951.00           2158        1644.00      7166.96
  275.68        2951.25           2162        1649.00      7188.77
  275.71        2951.50           2165        1638.00      7140.79
  275.74        2951.75           2169        1621.00      7066.65
  275.77        2952.00           2172        1622.00      7071.01
  275.80        2952.25           2176        1649.00      7188.77
  275.83        2952.50           2179        1666.00      7262.91
  275.86        2952.75           2183        1628.00      7097.18
  275.89        2953.00           2186        1668.00      7271.63
  275.92        2953.25           2190        1684.00      7341.41
  275.95        2953.50           2193        1693.00      7380.67
  275.98        2953.75           2197        1701.00      7415.56
  276.01        2954.00           2200        1668.00      7271.63
  276.04        2954.25           2204        1713.00      7467.89
  276.08        2954.50           2208        1694.00      7385.03
  276.11        2954.75           2211        1686.00      7350.14
  276.14        2955.00           2215        1714.00      7472.26
  276.17        2955.25           2218        1731.00      7546.40
  276.20        2955.50           2222        1757.00      7659.80
  276.23        2955.75           2225        1746.00      7611.82
  276.26        2956.00           2229        1727.00      7528.95
  276.29        2956.25           2232        1771.00      7720.86
  276.32        2956.50           2236        1798.00      7838.62
  276.35        2956.75           2239        1795.00      7825.53
  276.38        2957.00           2243        1791.00      7808.09
  276.41        2957.25           2246        1773.00      7729.58
  276.44        2957.50           2250        1768.00      7707.77
  276.47        2957.75           2254        1822.00      7943.30
  276.50        2958.00           2257        1824.00      7952.02
  276.53        2958.25           2261        1876.00      8178.82
  276.56        2958.50           2264        1881.00      8200.63
  276.60        2958.75           2268        1875.00      8174.46
  276.63        2959.00           2271        1890.00      8239.88
  276.66        2959.25           2275        1970.00      8588.82
  276.69        2959.50           2278        1976.00      8614.99
  276.72        2959.75           2282        1927.00      8401.27
  276.75        2960.00           2285        2001.00      8724.04
  276.78        2960.25           2289        1998.00      8710.95
  276.81        2960.50           2293        2088.00      9103.51
  276.84        2960.75           2296        2073.00      9038.09
  276.87        2961.00           2300        2237.00      9753.45
  276.90        2961.25           2303        2929.00     12772.33
  276.93        2961.50           2307        8092.00     35315.70
  276.96        2961.75           2310       17527.00     76601.60
  276.99        2962.00           2314       35556.00    155817.60
  277.02        2962.25           2317       50258.00    220733.70
  277.05        2962.50           2321       69353.00    305478.50
  277.08        2962.75           2324       84406.00    372632.50
  277.12        2963.00           2328      108239.00    479590.80
  277.15        2963.25           2331      128830.00    572635.30
  277.18        2963.50           2335      153265.00    683826.80
  277.21        2963.75           2339      175166.00    784215.50
  277.24        2964.00           2342      190676.00    855731.90
  277.27        2964.25           2346      211801.00    953710.20
  277.30        2964.50           2349      230582.00   1041378.00
  277.33        2964.75           2353      254217.00   1152466.00
  277.36        2965.00           2356      269252.00   1223580.00
  277.39        2965.25           2360      290021.00   1322398.00
  277.42        2965.50           2363      305176.00   1394936.00
  277.45        2965.75           2367      324716.00   1489006.00
  277.48        2966.00           2370      339302.00   1559632.00
  277.51        2966.25           2374      359722.00   1659096.00
  277.54        2966.50           2378      375499.00   1736421.00
  277.57        2966.75           2381      379902.00   1758076.00
  277.60        2967.00           2385      383001.00   1773337.00
  277.64        2967.25           2388      382158.00   1769184.00
  277.67        2967.50           2392      383171.00   1774175.00
  277.70        2967.75           2395      382491.00   1770824.00
  277.73        2968.00           2399      378681.00   1752067.00
  277.76        2968.25           2402      369620.00   1707558.00
  277.79        2968.50           2406      351745.00   1620158.00
  277.82        2968.75           2409      336162.00   1544399.00
  277.85        2969.00           2413      313533.00   1435093.00
  277.88        2969.25           2417      293197.00   1337569.00
  277.91        2969.50           2420      278774.00   1268801.00
  277.94        2969.75           2424      256679.00   1164087.00
  277.97        2970.00           2427      238944.00   1080583.00
  278.00        2970.25           2431      212492.00    956926.50
  278.03        2970.50           2434      194040.00    871289.90
  278.06        2970.75           2438      171321.00    766540.60
  278.09        2971.00           2441      154766.00    690685.00
  278.12        2971.25           2445      132177.00    587815.80
  278.16        2971.50           2449      108382.00    480234.90
  278.19        2971.75           2452       89486.00    395365.00
  278.22        2972.00           2456       66356.00    292145.20
  278.25        2972.25           2459       49634.00    217972.60
  278.28        2972.50           2463       29450.00    128941.10
  278.31        2972.75           2466       16269.00     71090.10
  278.34        2973.00           2470        5841.00     25482.84
  278.37        2973.25           2473        3126.00     13631.86
  278.40        2973.50           2477        2220.00      9679.30
  278.43        2973.75           2481        2118.00      9234.37
  278.46        2974.00           2484        2053.00      8950.85
  278.49        2974.25           2488        2031.00      8854.89
  278.52        2974.50           2491        1998.00      8710.95
  278.55        2974.75           2495        1920.00      8370.73
  278.58        2975.00           2498        1940.00      8457.97
  278.61        2975.25           2502        1911.00      8331.48
  278.64        2975.50           2505        1894.00      8257.33
  278.67        2975.75           2509        1897.00      8270.42
  278.71        2976.00           2512        1827.00      7965.10
  278.74        2976.25           2516        1863.00      8122.12
  278.77        2976.50           2520        1842.00      8030.53
  278.80        2976.75           2523        1781.00      7764.47
  278.83        2977.00           2527        1771.00      7720.86
  278.86        2977.25           2530        1693.00      7380.67
  278.89        2977.50           2534        1725.00      7520.23
  278.92        2977.75           2537        1739.00      7581.29
  278.95        2978.00           2541        1707.00      7441.73
  278.98        2978.25           2544        1698.00      7402.47
  279.01        2978.50           2548        1699.00      7406.83
  279.04        2978.75           2552        1683.00      7337.05
  279.07        2979.00           2555        1696.00      7393.75
  279.10        2979.25           2559        1646.00      7175.68
  279.13        2979.50           2562        1646.00      7175.68
  279.16        2979.75           2566        1671.00      7284.72
  279.20        2980.00           2569        1638.00      7140.79
  279.23        2980.25           2573        1577.00      6874.75
  279.26        2980.50           2577        1588.00      6922.73
  279.29        2980.75           2580        1671.00      7284.72
  279.32        2981.00           2584        1600.00      6975.06
  279.35        2981.25           2587        1621.00      7066.65
  279.38        2981.50           2591        1571.00      6848.59
  279.41        2981.75           2594        1521.00      6630.53
  279.44        2982.00           2598        1544.00      6730.83
  279.47        2982.25           2601        1591.00      6935.81
  279.50        2982.50           2605        1562.00      6809.34
  279.53        2982.75           2609        1529.00      6665.42
  279.56        2983.00           2612        1540.00      6713.39
  279.59        2983.25           2616        1536.00      6695.95
  279.62        2983.50           2619        1540.00      6713.39
  279.65        2983.75           2623        1511.00      6586.92
  279.68        2984.00           2626        1510.00      6582.55
HS scan finished at 04:39:55
end
************************************************************
  HS Scan of (1) Internal mercury lamp
************************************************************
Integration time is 0.2294 seconds per sample
dh160219Reading 51.44 .94 3.23pr1000
************************************************************
Dead Time -------------------------  3.4E-08 
Number of Cycles Used -------------  4 
Starting Wavelength (Angstroms) ---  2950 
Final Wavelength (Angstoms) -------  2984 
Wavelength Increment (Angstroms) --  .25 
Filter Wheel #1 Position ---------- (1) Ground quartz diffuser (ND=2.32)
Filter Wheel #2 Position ---------- (1) Neutral Density 0.494



************************************************************
HS scan start time = 18:07:23
Dark Count =  1.4 


Time (GMT)  Wavelength (Ang)  Step Number  Raw Counts  Counts/Second

 1088.29        2950.00           2144        1496.00      6516.70
 1088.48        2950.25           2147        1483.00      6460.01
 1088.51        2950.50           2151        1477.00      6433.84
 1088.54        2950.75           2155        1484.00      6464.37
 1088.57        2951.00           2158        1499.00      6529.78
 1088.60        2951.25           2162        1478.00      6438.20
 1088.63        2951.50           2165        1509.00      6573.40
 1088.66        2951.75           2169        1493.00      6503.62
 1088.70        2952.00           2172        1487.00      6477.45
 1088.73        2952.25           2176        1526.00      6647.54
 1088.76        2952.50           2179        1554.00      6769.65
 1088.79        2952.75           2183        1505.00      6555.95
 1088.82        2953.00           2186        1512.00      6586.48
 1088.85        2953.25           2190        1530.00      6664.98
 1088.88        2953.50           2193        1579.00      6878.68
 1088.91        2953.75           2197        1525.00      6643.17
 1088.94        2954.00           2200        1556.00      6778.37
 1088.97        2954.25           2204        1558.00      6787.09
 1089.00        2954.50           2208        1550.00      6752.20
 1089.03        2954.75           2211        1565.00      6817.62
 1089.06        2955.00           2215        1577.00      6869.96
 1089.09        2955.25           2218        1572.00      6848.15
 1089.14        2955.50           2222        1592.00      6935.38
 1089.17        2955.75           2225        1627.00      7088.02
 1089.20        2956.00           2229        1636.00      7127.27
 1089.23        2956.25           2232        1606.00      6996.43
 1089.26        2956.50           2236        1614.00      7031.32
 1089.29        2956.75           2239        1636.00      7127.27
 1089.32        2957.00           2243        1670.00      7275.56
 1089.35        2957.25           2246        1646.00      7170.88
 1089.39        2957.50           2250        1710.00      7450.01
 1089.42        2957.75           2254        1706.00      7432.57
 1089.45        2958.00           2257        1684.00      7336.62
 1089.48        2958.25           2261        1775.00      7733.51
 1089.51        2958.50           2264        1768.00      7702.98
 1089.54        2958.75           2268        1797.00      7829.46
 1089.57        2959.00           2271        1814.00      7903.61
 1089.60        2959.25           2275        1836.00      7999.56
 1089.63        2959.50           2278        1827.00      7960.31
 1089.66        2959.75           2282        1874.00      8165.30
 1089.69        2960.00           2285        1864.00      8121.68
 1089.72        2960.25           2289        1905.00      8300.51
 1089.75        2960.50           2293        1967.00      8570.94
 1089.78        2960.75           2296        2014.00      8775.94
 1089.81        2961.00           2300        2122.00      9247.02
 1089.84        2961.25           2303        2603.00     11345.27
 1089.88        2961.50           2307        7125.00     31086.02
 1089.91        2961.75           2310       16526.00     72211.08
 1089.94        2962.00           2314       33415.00    146383.20
 1089.97        2962.25           2317       48937.00    214884.20
 1090.00        2962.50           2321       71146.00    313456.40
 1090.03        2962.75           2324       88636.00    391554.00
 1090.06        2963.00           2328      115796.00    513664.70
 1090.09        2963.25           2331      137143.00    610363.30
 1090.12        2963.50           2335      160952.00    718978.10
 1090.15        2963.75           2339      183256.00    821469.20
 1090.18        2964.00           2342      201611.00    906360.80
 1090.21        2964.25           2346      228561.00   1031914.00
 1090.24        2964.50           2349      248869.00   1127249.00
 1090.27        2964.75           2353      272264.00   1237864.00
 1090.30        2965.00           2356      289000.00   1317519.00
 1090.33        2965.25           2360      310885.00   1422351.00
 1090.36        2965.50           2363      326330.00   1496799.00
 1090.40        2965.75           2367      347669.00   1600298.00
 1090.43        2966.00           2370      364432.00   1682131.00
 1090.46        2966.25           2374      384470.00   1780572.00
 1090.49        2966.50           2378      402189.00   1868190.00
 1090.52        2966.75           2381      408361.00   1898837.00
 1090.55        2967.00           2385      411492.00   1914409.00
 1090.58        2967.25           2388      411755.00   1915718.00
 1090.61        2967.50           2392      412131.00   1917589.00
 1090.64        2967.75           2395      411155.00   1912732.00
 1090.67        2968.00           2399      408439.00   1899225.00
 1090.70        2968.25           2402      398602.00   1850409.00
 1090.73        2968.50           2406      380151.00   1759296.00
 1090.76        2968.75           2409      364582.00   1682865.00
 1090.79        2969.00           2413      343488.00   1579960.00
 1090.82        2969.25           2417      321845.00   1475141.00
 1090.85        2969.50           2420      303439.00   1386598.00
 1090.88        2969.75           2424      278980.00   1269776.00
 1090.92        2970.00           2427      261491.00   1186822.00
 1090.95        2970.25           2431      238224.00   1077198.00
 1090.98        2970.50           2434      219995.00    991888.60
 1091.01        2970.75           2438      195053.00    875972.90
 1091.04        2971.00           2441      175707.00    786699.00
 1091.07        2971.25           2445      150130.00    669508.30
 1091.10        2971.50           2449      123860.00    550118.00
 1091.13        2971.75           2452      103296.00    457338.00
 1091.16        2972.00           2456       76912.00    339157.00
 1091.19        2972.25           2459       58733.00    258280.90
 1091.22        2972.50           2463       35802.00    156896.60
 1091.25        2972.75           2466       20984.00     91753.09
 1091.28        2973.00           2470        7498.00     32715.53
 1091.31        2973.25           2473        3478.00     15163.00
 1091.34        2973.50           2477        2233.00      9731.21
 1091.37        2973.75           2481        2097.00      9137.97
 1091.40        2974.00           2484        1992.00      8679.98
 1091.43        2974.25           2488        1929.00      8405.19
 1091.47        2974.50           2491        1949.00      8492.43
 1091.50        2974.75           2495        1894.00      8252.53
 1091.53        2975.00           2498        1884.00      8208.92
 1091.56        2975.25           2502        1833.00      7986.48
 1091.59        2975.50           2505        1836.00      7999.56
 1091.62        2975.75           2509        1809.00      7881.80
 1091.65        2976.00           2512        1765.00      7689.89
 1091.68        2976.25           2516        1728.00      7528.52
 1091.71        2976.50           2520        1713.00      7463.10
 1091.74        2976.75           2523        1730.00      7537.24
 1091.77        2977.00           2527        1704.00      7423.84
 1091.80        2977.25           2530        1627.00      7088.02
 1091.83        2977.50           2534        1685.00      7340.98
 1091.86        2977.75           2537        1652.00      7197.05
 1091.89        2978.00           2541        1648.00      7179.61
 1091.92        2978.25           2544        1644.00      7162.16
 1091.95        2978.50           2548        1635.00      7122.91
 1091.99        2978.75           2552        1560.00      6795.82
 1092.02        2979.00           2555        1587.00      6913.57
 1092.05        2979.25           2559        1578.00      6874.32
 1092.08        2979.50           2562        1554.00      6769.65
 1092.11        2979.75           2566        1546.00      6734.76
 1092.14        2980.00           2569        1510.00      6577.76
 1092.17        2980.25           2573        1532.00      6673.70
 1092.20        2980.50           2577        1506.00      6560.31
 1092.23        2980.75           2580        1547.00      6739.12
 1092.26        2981.00           2584        1472.00      6412.03
 1092.29        2981.25           2587        1482.00      6455.65
 1092.32        2981.50           2591        1509.00      6573.40
 1092.35        2981.75           2594        1456.00      6342.26
 1092.38        2982.00           2598        1499.00      6529.78
 1092.41        2982.25           2601        1472.00      6412.03
 1092.44        2982.50           2605        1468.00      6394.59
 1092.47        2982.75           2609        1473.00      6416.40
 1092.51        2983.00           2612        1446.00      6298.65
 1092.54        2983.25           2616        1457.00      6346.62
 1092.57        2983.50           2619        1450.00      6316.09
 1092.60        2983.75           2623        1452.00      6324.81
 1092.63        2984.00           2626        1452.00      6324.81
HS scan finished at 18:12:51
end
