************************************************************
  HS Scan of 
************************************************************
Integration time is 0.2294 seconds per sample
dh230217Reading 51.44 .94 2.96pr1000
************************************************************
Dead Time -------------------------  3.4E-08 
Number of Cycles Used -------------  4 
Starting Wavelength (Angstroms) ---  2950 
Final Wavelength (Angstoms) -------  2984 
Wavelength Increment (Angstroms) --  .25 
Filter Wheel #1 Position ---------- (1) Ground quartz diffuser (ND=2.32)
Filter Wheel #2 Position ---------- (1) Neutral Density 0.494



************************************************************
HS scan start time = 04:18:52
Dark Count =  .6 


Time (GMT)  Wavelength (Ang)  Step Number  Raw Counts  Counts/Second

  259.76        2950.00           2144         815.00      3550.56
  259.96        2950.25           2147         807.00      3515.68
  259.99        2950.50           2151         823.00      3585.44
  260.02        2950.75           2155         825.00      3594.16
  260.05        2951.00           2158         809.00      3524.40
  260.08        2951.25           2162         828.00      3607.24
  260.11        2951.50           2165         825.00      3594.16
  260.14        2951.75           2169         817.00      3559.28
  260.17        2952.00           2172         850.00      3703.17
  260.20        2952.25           2176         841.00      3663.93
  260.23        2952.50           2179         849.00      3698.81
  260.26        2952.75           2183         820.00      3572.36
  260.29        2953.00           2186         820.00      3572.36
  260.32        2953.25           2190         817.00      3559.28
  260.35        2953.50           2193         833.00      3629.04
  260.38        2953.75           2197         864.00      3764.21
  260.41        2954.00           2200         874.00      3807.82
  260.45        2954.25           2204         868.00      3781.65
  260.48        2954.50           2208         836.00      3642.13
  260.51        2954.75           2211         880.00      3833.98
  260.54        2955.00           2215         880.00      3833.98
  260.57        2955.25           2218         893.00      3890.66
  260.60        2955.50           2222         891.00      3881.94
  260.63        2955.75           2225         863.00      3759.85
  260.66        2956.00           2229         860.00      3746.77
  260.69        2956.25           2232         887.00      3864.50
  260.72        2956.50           2236         927.00      4038.92
  260.75        2956.75           2239         905.00      3942.99
  260.78        2957.00           2243         919.00      4004.03
  260.81        2957.25           2246         931.00      4056.36
  260.84        2957.50           2250         956.00      4165.37
  260.87        2957.75           2254         962.00      4191.53
  260.90        2958.00           2257         937.00      4082.52
  260.93        2958.25           2261        1013.00      4413.91
  260.97        2958.50           2264         941.00      4099.96
  261.00        2958.75           2268         989.00      4309.26
  261.03        2959.00           2271         981.00      4274.38
  261.06        2959.25           2275         976.00      4252.58
  261.09        2959.50           2278        1021.00      4448.80
  261.12        2959.75           2282        1034.00      4505.49
  261.15        2960.00           2285        1043.00      4544.73
  261.18        2960.25           2289        1048.00      4566.53
  261.21        2960.50           2293        1106.00      4819.45
  261.24        2960.75           2296        1120.00      4880.50
  261.27        2961.00           2300        1176.00      5124.69
  261.30        2961.25           2303        1521.00      6629.22
  261.33        2961.50           2307        5163.00     22521.16
  261.36        2961.75           2310       11544.00     50406.28
  261.39        2962.00           2314       24011.00    105040.60
  261.42        2962.25           2317       33092.00    144964.70
  261.45        2962.50           2321       45375.00    199139.80
  261.49        2962.75           2324       54908.00    241324.20
  261.52        2963.00           2328       68572.00    302001.40
  261.55        2963.25           2331       79600.00    351157.20
  261.58        2963.50           2335       94064.00    415880.10
  261.61        2963.75           2339      106484.00    471686.50
  261.64        2964.00           2342      115904.00    514155.90
  261.67        2964.25           2346      128941.00    573137.10
  261.70        2964.50           2349      139383.00    620551.20
  261.73        2964.75           2353      154255.00    688348.50
  261.76        2965.00           2356      163709.00    731611.60
  261.79        2965.25           2360      175418.00    785373.30
  261.82        2965.50           2363      184384.00    826675.60
  261.85        2965.75           2367      197292.00    886344.40
  261.88        2966.00           2370      206736.00    930156.80
  261.91        2966.25           2374      218967.00    987096.40
  261.94        2966.50           2378      228681.00   1032479.00
  261.97        2966.75           2381      230673.00   1041803.00
  262.00        2967.00           2385      231674.00   1046491.00
  262.04        2967.25           2388      231465.00   1045512.00
  262.07        2967.50           2392      231236.00   1044439.00
  262.10        2967.75           2395      230903.00   1042880.00
  262.13        2968.00           2399      228840.00   1033223.00
  262.16        2968.25           2402      222620.00   1004146.00
  262.19        2968.50           2406      210546.00    947869.70
  262.22        2968.75           2409      201240.00    904643.80
  262.25        2969.00           2413      188773.00    846936.80
  262.28        2969.25           2417      176444.00    790093.60
  262.31        2969.50           2420      166727.00    745449.60
  262.34        2969.75           2424      151985.00    677979.70
  262.37        2970.00           2427      140206.00    624294.80
  262.40        2970.25           2431      125549.00    557768.30
  262.43        2970.50           2434      114723.00    508824.70
  262.46        2970.75           2438      100985.00    446951.70
  262.49        2971.00           2441       90390.00    399412.70
  262.52        2971.25           2445       77352.00    341123.60
  262.56        2971.50           2449       64295.00    282981.60
  262.59        2971.75           2452       53571.00    235400.50
  262.62        2972.00           2456       39747.00    174292.20
  262.65        2972.25           2459       29703.00    130052.50
  262.68        2972.50           2463       17183.00     75092.97
  262.71        2972.75           2466        9291.00     40554.58
  262.74        2973.00           2470        3191.00     13914.17
  262.77        2973.25           2473        1634.00      7122.04
  262.80        2973.50           2477        1190.00      5185.74
  262.83        2973.75           2481        1157.00      5041.84
  262.86        2974.00           2484        1128.00      4915.38
  262.89        2974.25           2488        1091.00      4754.04
  262.92        2974.50           2491        1075.00      4684.27
  262.95        2974.75           2495        1047.00      4562.17
  262.98        2975.00           2498        1039.00      4527.29
  263.01        2975.25           2502         988.00      4304.90
  263.04        2975.50           2505        1030.00      4488.04
  263.08        2975.75           2509        1009.00      4396.47
  263.11        2976.00           2512         970.00      4226.41
  263.14        2976.25           2516         977.00      4256.94
  263.17        2976.50           2520         968.00      4217.69
  263.20        2976.75           2523         960.00      4182.81
  263.23        2977.00           2527         938.00      4086.88
  263.26        2977.25           2530         908.00      3956.07
  263.29        2977.50           2534         909.00      3960.43
  263.32        2977.75           2537         907.00      3951.71
  263.35        2978.00           2541         911.00      3969.15
  263.38        2978.25           2544         918.00      3999.67
  263.41        2978.50           2548         872.00      3799.10
  263.44        2978.75           2552         887.00      3864.50
  263.47        2979.00           2555         866.00      3772.93
  263.50        2979.25           2559         843.00      3672.65
  263.53        2979.50           2562         853.00      3716.25
  263.56        2979.75           2566         830.00      3615.96
  263.60        2980.00           2569         849.00      3698.81
  263.63        2980.25           2573         849.00      3698.81
  263.66        2980.50           2577         832.00      3624.68
  263.69        2980.75           2580         814.00      3546.20
  263.72        2981.00           2584         826.00      3598.52
  263.75        2981.25           2587         829.00      3611.60
  263.78        2981.50           2591         839.00      3655.21
  263.81        2981.75           2594         823.00      3585.44
  263.84        2982.00           2598         790.00      3441.55
  263.87        2982.25           2601         833.00      3629.04
  263.90        2982.50           2605         800.00      3485.16
  263.93        2982.75           2609         836.00      3642.13
  263.96        2983.00           2612         806.00      3511.32
  263.99        2983.25           2616         810.00      3528.76
  264.02        2983.50           2619         801.00      3489.52
  264.05        2983.75           2623         794.00      3458.99
  264.08        2984.00           2626         781.00      3402.31
HS scan finished at 04:24:18
end
************************************************************
  HS Scan of 
************************************************************
Integration time is 0.2294 seconds per sample
dh230217Reading 51.44 .94 2.84pr1000
************************************************************
Dead Time -------------------------  3.4E-08 
Number of Cycles Used -------------  4 
Starting Wavelength (Angstroms) ---  2950 
Final Wavelength (Angstoms) -------  2984 
Wavelength Increment (Angstroms) --  .25 
Filter Wheel #1 Position ---------- (1) Ground quartz diffuser (ND=2.32)
Filter Wheel #2 Position ---------- (1) Neutral Density 0.494



************************************************************
HS scan start time = 18:37:28
Dark Count =  .8 


Time (GMT)  Wavelength (Ang)  Step Number  Raw Counts  Counts/Second

 1118.36        2950.00           2144         806.00      3510.45
 1118.56        2950.25           2147         809.00      3523.53
 1118.59        2950.50           2151         835.00      3636.89
 1118.62        2950.75           2155         757.00      3296.80
 1118.65        2951.00           2158         786.00      3423.24
 1118.68        2951.25           2162         777.00      3384.00
 1118.71        2951.50           2165         795.00      3462.48
 1118.74        2951.75           2169         813.00      3540.97
 1118.77        2952.00           2172         805.00      3506.09
 1118.80        2952.25           2176         840.00      3658.69
 1118.83        2952.50           2179         814.00      3545.33
 1118.86        2952.75           2183         839.00      3654.33
 1118.89        2953.00           2186         851.00      3706.66
 1118.92        2953.25           2190         821.00      3575.85
 1118.95        2953.50           2193         833.00      3628.17
 1118.98        2953.75           2197         847.00      3689.22
 1119.01        2954.00           2200         835.00      3636.89
 1119.04        2954.25           2204         815.00      3549.69
 1119.08        2954.50           2208         828.00      3606.37
 1119.11        2954.75           2211         860.00      3745.90
 1119.14        2955.00           2215         830.00      3615.09
 1119.17        2955.25           2218         852.00      3711.02
 1119.20        2955.50           2222         864.00      3763.34
 1119.23        2955.75           2225         828.00      3606.37
 1119.26        2956.00           2229         850.00      3702.30
 1119.29        2956.25           2232         828.00      3606.37
 1119.32        2956.50           2236         858.00      3737.18
 1119.35        2956.75           2239         870.00      3789.50
 1119.38        2957.00           2243         855.00      3724.10
 1119.41        2957.25           2246         875.00      3811.31
 1119.44        2957.50           2250         863.00      3758.98
 1119.47        2957.75           2254         870.00      3789.50
 1119.50        2958.00           2257         896.00      3902.87
 1119.53        2958.25           2261         901.00      3924.67
 1119.56        2958.50           2264         927.00      4038.04
 1119.60        2958.75           2268         924.00      4024.96
 1119.63        2959.00           2271         911.00      3968.28
 1119.66        2959.25           2275         928.00      4042.40
 1119.69        2959.50           2278         963.00      4195.02
 1119.72        2959.75           2282         953.00      4151.41
 1119.75        2960.00           2285         961.00      4186.30
 1119.78        2960.25           2289         989.00      4308.39
 1119.81        2960.50           2293         996.00      4338.91
 1119.84        2960.75           2296        1010.00      4399.96
 1119.87        2961.00           2300        1075.00      4683.40
 1119.90        2961.25           2303        1201.00      5232.84
 1119.93        2961.50           2307        3070.00     13385.34
 1119.96        2961.75           2310        7623.00     33264.28
 1119.99        2962.00           2314       15754.00     68832.22
 1120.02        2962.25           2317       22611.00     98894.30
 1120.05        2962.50           2321       32065.00    140443.20
 1120.08        2962.75           2324       39904.00    174983.90
 1120.12        2963.00           2328       50841.00    223311.60
 1120.15        2963.25           2331       59010.00    259512.50
 1120.18        2963.50           2335       69312.00    305293.80
 1120.21        2963.75           2339       78842.00    347772.40
 1120.24        2964.00           2342       86786.00    383276.10
 1120.27        2964.25           2346       97424.00    430955.60
 1120.30        2964.50           2349      105541.00    467441.00
 1120.33        2964.75           2353      116606.00    517324.90
 1120.36        2965.00           2356      123960.00    550573.30
 1120.40        2965.25           2360      132344.00    588571.30
 1120.43        2965.50           2363      139604.00    621555.50
 1120.46        2965.75           2367      149249.00    665491.30
 1120.49        2966.00           2370      157007.00    700927.90
 1120.52        2966.25           2374      166635.00    745026.60
 1120.55        2966.50           2378      173013.00    774313.60
 1120.58        2966.75           2381      175358.00    785096.30
 1120.61        2967.00           2385      176241.00    789158.60
 1120.64        2967.25           2388      176253.00    789213.80
 1120.67        2967.50           2392      176003.00    788063.60
 1120.70        2967.75           2395      176136.00    788675.50
 1120.73        2968.00           2399      174599.00    781605.40
 1120.76        2968.25           2402      169641.00    758822.50
 1120.79        2968.50           2406      160962.00    719026.60
 1120.83        2968.75           2409      154181.00    688009.40
 1120.86        2969.00           2413      145507.00    648429.60
 1120.89        2969.25           2417      136395.00    606966.80
 1120.92        2969.50           2420      128602.00    571599.60
 1120.95        2969.75           2424      117279.00    520364.40
 1120.98        2970.00           2427      109476.00    485161.50
 1121.01        2970.25           2431       99153.00    438719.70
 1121.04        2970.50           2434       91418.00    404017.60
 1121.07        2970.75           2438       80428.00    354853.70
 1121.10        2971.00           2441       71716.00    315997.70
 1121.13        2971.25           2445       60805.00    267479.00
 1121.16        2971.50           2449       49651.00    218045.60
 1121.19        2971.75           2452       41662.00    182741.30
 1121.22        2972.00           2456       31429.00    137644.40
 1121.25        2972.25           2459       23994.00    104965.10
 1121.28        2972.50           2463       14847.00     64860.40
 1121.31        2972.75           2466        8759.00     38228.38
 1121.35        2973.00           2470        3149.00     13730.04
 1121.38        2973.25           2473        1544.00      6728.65
 1121.41        2973.50           2477        1079.00      4700.84
 1121.44        2973.75           2481        1000.00      4356.36
 1121.47        2974.00           2484         982.00      4277.87
 1121.50        2974.25           2488         972.00      4234.26
 1121.53        2974.50           2491         969.00      4221.18
 1121.56        2974.75           2495         934.00      4068.57
 1121.59        2975.00           2498         950.00      4138.33
 1121.62        2975.25           2502         931.00      4055.49
 1121.65        2975.50           2505         943.00      4107.81
 1121.68        2975.75           2509         904.00      3937.76
 1121.71        2976.00           2512         894.00      3894.15
 1121.74        2976.25           2516         870.00      3789.50
 1121.77        2976.50           2520         882.00      3841.83
 1121.81        2976.75           2523         845.00      3680.50
 1121.84        2977.00           2527         872.00      3798.22
 1121.87        2977.25           2530         847.00      3689.22
 1121.90        2977.50           2534         858.00      3737.18
 1121.93        2977.75           2537         830.00      3615.09
 1121.96        2978.00           2541         834.00      3632.53
 1121.99        2978.25           2544         823.00      3584.57
 1122.02        2978.50           2548         828.00      3606.37
 1122.05        2978.75           2552         834.00      3632.53
 1122.08        2979.00           2555         825.00      3593.29
 1122.11        2979.25           2559         816.00      3554.05
 1122.14        2979.50           2562         811.00      3532.25
 1122.17        2979.75           2566         804.00      3501.72
 1122.20        2980.00           2569         782.00      3405.80
 1122.23        2980.25           2573         807.00      3514.81
 1122.26        2980.50           2577         786.00      3423.24
 1122.30        2980.75           2580         790.00      3440.68
 1122.33        2981.00           2584         805.00      3506.09
 1122.36        2981.25           2587         760.00      3309.88
 1122.39        2981.50           2591         744.00      3240.11
 1122.42        2981.75           2594         770.00      3353.48
 1122.45        2982.00           2598         795.00      3462.48
 1122.48        2982.25           2601         771.00      3357.84
 1122.51        2982.50           2605         741.00      3227.03
 1122.54        2982.75           2609         761.00      3314.24
 1122.57        2983.00           2612         754.00      3283.71
 1122.60        2983.25           2616         757.00      3296.80
 1122.63        2983.50           2619         769.00      3349.12
 1122.66        2983.75           2623         758.00      3301.16
 1122.69        2984.00           2626         766.00      3336.04
HS scan finished at 18:42:55
end
