************************************************************
  HS Scan of (1) Internal mercury lamp
************************************************************
Integration time is 0.2294 seconds per sample
dh280218Reading 51.44 .94 2.17pr1000
************************************************************
Dead Time -------------------------  3.4E-08 
Number of Cycles Used -------------  4 
Starting Wavelength (Angstroms) ---  2950 
Final Wavelength (Angstoms) -------  2984 
Wavelength Increment (Angstroms) --  .25 
Filter Wheel #1 Position ---------- (1) Ground quartz diffuser (ND=2.32)
Filter Wheel #2 Position ---------- (1) Neutral Density 0.494



************************************************************
HS scan start time = 04:10:42
Dark Count =  0 


Time (GMT)  Wavelength (Ang)  Step Number  Raw Counts  Counts/Second

  251.60        2950.00           2144          89.00       387.97
  251.80        2950.25           2147          89.00       387.97
  251.83        2950.50           2151          85.00       370.54
  251.86        2950.75           2155          88.00       383.61
  251.89        2951.00           2158          89.00       387.97
  251.92        2951.25           2162          91.00       396.69
  251.95        2951.50           2165          91.00       396.69
  251.98        2951.75           2169         114.00       496.96
  252.01        2952.00           2172         124.00       540.55
  252.04        2952.25           2176          93.00       405.41
  252.07        2952.50           2179          86.00       374.90
  252.10        2952.75           2183          95.00       414.13
  252.13        2953.00           2186          87.00       379.26
  252.16        2953.25           2190          93.00       405.41
  252.19        2953.50           2193         111.00       483.88
  252.22        2953.75           2197         101.00       440.29
  252.25        2954.00           2200          95.00       414.13
  252.28        2954.25           2204         100.00       435.93
  252.32        2954.50           2208          90.00       392.33
  252.35        2954.75           2211          93.00       405.41
  252.38        2955.00           2215          86.00       374.90
  252.41        2955.25           2218          94.00       409.77
  252.44        2955.50           2222         111.00       483.88
  252.47        2955.75           2225         120.00       523.11
  252.50        2956.00           2229          96.00       418.49
  252.53        2956.25           2232         100.00       435.93
  252.56        2956.50           2236         104.00       453.36
  252.59        2956.75           2239          86.00       374.90
  252.62        2957.00           2243         123.00       536.19
  252.65        2957.25           2246         116.00       505.68
  252.68        2957.50           2250         115.00       501.32
  252.71        2957.75           2254         100.00       435.93
  252.74        2958.00           2257          93.00       405.41
  252.77        2958.25           2261          96.00       418.49
  252.80        2958.50           2264         150.00       653.89
  252.83        2958.75           2268         106.00       462.08
  252.87        2959.00           2271         128.00       557.99
  252.90        2959.25           2275         106.00       462.08
  252.93        2959.50           2278         126.00       549.27
  252.96        2959.75           2282         127.00       553.63
  252.99        2960.00           2285         116.00       505.68
  253.02        2960.25           2289         110.00       479.52
  253.05        2960.50           2293         124.00       540.55
  253.08        2960.75           2296         136.00       592.86
  253.11        2961.00           2300         128.00       557.99
  253.14        2961.25           2303         242.00      1054.96
  253.17        2961.50           2307         903.00      3936.88
  253.20        2961.75           2310        1675.00      7303.47
  253.23        2962.00           2314        2705.00     11796.36
  253.26        2962.25           2317        3525.00     15374.21
  253.29        2962.50           2321        4597.00     20052.90
  253.32        2962.75           2324        5569.00     24296.44
  253.35        2963.00           2328        6665.00     29082.80
  253.39        2963.25           2331        7805.00     34062.97
  253.42        2963.50           2335        9016.00     39355.16
  253.45        2963.75           2339       10283.00     44894.11
  253.48        2964.00           2342       11347.00     49547.22
  253.51        2964.25           2346       12560.00     54853.74
  253.54        2964.50           2349       13424.00     58634.65
  253.57        2964.75           2353       14584.00     63712.41
  253.60        2965.00           2356       15627.00     68279.52
  253.63        2965.25           2360       16724.00     73084.61
  253.66        2965.50           2363       17953.00     78469.75
  253.69        2965.75           2367       19050.00     83278.19
  253.72        2966.00           2370       19885.00     86939.27
  253.75        2966.25           2374       20789.00     90903.89
  253.78        2966.50           2378       21367.00     93439.36
  253.81        2966.75           2381       21762.00     95172.33
  253.84        2967.00           2385       21827.00     95457.53
  253.88        2967.25           2388       21874.00     95663.74
  253.91        2967.50           2392       21677.00     94799.41
  253.94        2967.75           2395       21958.00     96032.31
  253.97        2968.00           2399       21477.00     93921.94
  254.00        2968.25           2402       20354.00     88996.00
  254.03        2968.50           2406       19066.00     83348.34
  254.07        2968.75           2409       18206.00     79578.59
  254.10        2969.00           2413       16891.00     73816.25
  254.13        2969.25           2417       15445.00     67482.47
  254.16        2969.50           2420       14375.00     62797.41
  254.19        2969.75           2424       13257.00     57903.77
  254.22        2970.00           2427       12228.00     53401.15
  254.25        2970.25           2431       10885.00     47526.61
  254.28        2970.50           2434        9983.00     43582.41
  254.31        2970.75           2438        8643.00     37724.91
  254.34        2971.00           2441        7769.00     33905.67
  254.37        2971.25           2445        6488.00     28309.71
  254.40        2971.50           2449        5222.00     22781.37
  254.43        2971.75           2452        4378.00     19096.96
  254.46        2972.00           2456        3218.00     14034.60
  254.49        2972.25           2459        2231.00      9728.59
  254.52        2972.50           2463        1094.00      4769.74
  254.55        2972.75           2466         503.00      2192.84
  254.58        2973.00           2470         182.00       793.40
  254.62        2973.25           2473         132.00       575.43
  254.65        2973.50           2477         128.00       557.99
  254.68        2973.75           2481         107.00       466.44
  254.71        2974.00           2484         102.00       444.64
  254.74        2974.25           2488         131.00       571.07
  254.77        2974.50           2491         103.00       449.00
  254.80        2974.75           2495          97.00       422.85
  254.83        2975.00           2498         132.00       575.43
  254.86        2975.25           2502         105.00       457.72
  254.89        2975.50           2505         101.00       440.29
  254.92        2975.75           2509         123.00       536.19
  254.95        2976.00           2512         103.00       449.00
  254.98        2976.25           2516          97.00       422.85
  255.01        2976.50           2520          99.00       431.57
  255.04        2976.75           2523         113.00       492.60
  255.07        2977.00           2527          94.00       409.77
  255.11        2977.25           2530          93.00       405.41
  255.14        2977.50           2534          85.00       370.54
  255.17        2977.75           2537          92.00       401.05
  255.20        2978.00           2541          77.00       335.66
  255.23        2978.25           2544          90.00       392.33
  255.26        2978.50           2548          94.00       409.77
  255.29        2978.75           2552         111.00       483.88
  255.32        2979.00           2555          88.00       383.61
  255.35        2979.25           2559         106.00       462.08
  255.38        2979.50           2562          98.00       427.21
  255.41        2979.75           2566         104.00       453.36
  255.44        2980.00           2569         100.00       435.93
  255.47        2980.25           2573          85.00       370.54
  255.50        2980.50           2577          84.00       366.18
  255.53        2980.75           2580          80.00       348.74
  255.56        2981.00           2584          91.00       396.69
  255.59        2981.25           2587          87.00       379.26
  255.63        2981.50           2591          86.00       374.90
  255.66        2981.75           2594          75.00       326.94
  255.69        2982.00           2598          84.00       366.18
  255.72        2982.25           2601          88.00       383.61
  255.75        2982.50           2605          79.00       344.38
  255.78        2982.75           2609          82.00       357.46
  255.81        2983.00           2612          84.00       366.18
  255.84        2983.25           2616          78.00       340.02
  255.87        2983.50           2619          84.00       366.18
  255.90        2983.75           2623          87.00       379.26
  255.93        2984.00           2626          95.00       414.13
HS scan finished at 04:16:09
end
************************************************************
  HS Scan of (1) Internal mercury lamp
************************************************************
Integration time is 0.2294 seconds per sample
dh280218Reading 51.44 .94 2.29pr1000
************************************************************
Dead Time -------------------------  3.4E-08 
Number of Cycles Used -------------  4 
Starting Wavelength (Angstroms) ---  2950 
Final Wavelength (Angstoms) -------  2984 
Wavelength Increment (Angstroms) --  .25 
Filter Wheel #1 Position ---------- (1) Ground quartz diffuser (ND=2.32)
Filter Wheel #2 Position ---------- (1) Neutral Density 0.494



************************************************************
HS scan start time = 18:40:30
Dark Count =  .3 


Time (GMT)  Wavelength (Ang)  Step Number  Raw Counts  Counts/Second

 1121.40        2950.00           2144          79.00       343.07
 1121.60        2950.25           2147          86.00       373.59
 1121.63        2950.50           2151          84.00       364.87
 1121.66        2950.75           2155          91.00       395.38
 1121.69        2951.00           2158          89.00       386.67
 1121.72        2951.25           2162          84.00       364.87
 1121.75        2951.50           2165          82.00       356.15
 1121.78        2951.75           2169          84.00       364.87
 1121.81        2952.00           2172          86.00       373.59
 1121.84        2952.25           2176          86.00       373.59
 1121.87        2952.50           2179         105.00       456.42
 1121.90        2952.75           2183          92.00       399.74
 1121.93        2953.00           2186          85.00       369.23
 1121.96        2953.25           2190          75.00       325.64
 1121.99        2953.50           2193          84.00       364.87
 1122.02        2953.75           2197          84.00       364.87
 1122.06        2954.00           2200          82.00       356.15
 1122.09        2954.25           2204          89.00       386.67
 1122.12        2954.50           2208          93.00       404.10
 1122.15        2954.75           2211          88.00       382.31
 1122.18        2955.00           2215          87.00       377.95
 1122.21        2955.25           2218          88.00       382.31
 1122.24        2955.50           2222          89.00       386.67
 1122.27        2955.75           2225          82.00       356.15
 1122.30        2956.00           2229          88.00       382.31
 1122.33        2956.25           2232          86.00       373.59
 1122.36        2956.50           2236         107.00       465.13
 1122.39        2956.75           2239          89.00       386.67
 1122.42        2957.00           2243          93.00       404.10
 1122.45        2957.25           2246         103.00       447.70
 1122.48        2957.50           2250         104.00       452.06
 1122.51        2957.75           2254          95.00       412.82
 1122.54        2958.00           2257          94.00       408.46
 1122.57        2958.25           2261          96.00       417.18
 1122.61        2958.50           2264          93.00       404.10
 1122.64        2958.75           2268         106.00       460.77
 1122.67        2959.00           2271         106.00       460.77
 1122.70        2959.25           2275          99.00       430.26
 1122.73        2959.50           2278          99.00       430.26
 1122.76        2959.75           2282         103.00       447.70
 1122.79        2960.00           2285         108.00       469.49
 1122.82        2960.25           2289         100.00       434.62
 1122.85        2960.50           2293         110.00       478.21
 1122.88        2960.75           2296         111.00       482.57
 1122.91        2961.00           2300         139.00       604.63
 1122.94        2961.25           2303         154.00       670.02
 1122.97        2961.50           2307         428.00      1864.55
 1123.00        2961.75           2310        1028.00      4480.63
 1123.03        2962.00           2314        2116.00      9225.65
 1123.06        2962.25           2317        2920.00     12733.06
 1123.09        2962.50           2321        4108.00     17917.19
 1123.13        2962.75           2324        4943.00     21562.01
 1123.16        2963.00           2328        6113.00     26670.65
 1123.19        2963.25           2331        6982.00     30466.16
 1123.22        2963.50           2335        8132.00     35490.49
 1123.25        2963.75           2339        9420.00     41119.79
 1123.28        2964.00           2342       10286.00     44905.92
 1123.31        2964.25           2346       11611.00     50700.67
 1123.34        2964.50           2349       12653.00     55259.35
 1123.37        2964.75           2353       13734.00     59990.15
 1123.40        2965.00           2356       14614.00     63842.44
 1123.43        2965.25           2360       15505.00     67743.91
 1123.46        2965.50           2363       16321.00     71317.88
 1123.49        2965.75           2367       17553.00     76715.53
 1123.52        2966.00           2370       18288.00     79936.66
 1123.55        2966.25           2374       19306.00     84399.21
 1123.58        2966.50           2378       19722.00     86223.19
 1123.61        2966.75           2381       19644.00     85881.18
 1123.65        2967.00           2385       19777.00     86464.36
 1123.68        2967.25           2388       19588.00     85635.63
 1123.71        2967.50           2392       19577.00     85587.41
 1123.74        2967.75           2395       19675.00     86017.10
 1123.77        2968.00           2399       18814.00     82242.28
 1123.80        2968.25           2402       18234.00     79699.99
 1123.83        2968.50           2406       17386.00     75983.75
 1123.86        2968.75           2409       16547.00     72307.88
 1123.89        2969.00           2413       15385.00     67218.40
 1123.92        2969.25           2417       14096.00     61574.73
 1123.95        2969.50           2420       13161.00     57482.33
 1123.98        2969.75           2424       12172.00     53154.83
 1124.01        2970.00           2427       11259.00     49161.01
 1124.04        2970.25           2431       10241.00     44709.15
 1124.07        2970.50           2434        9551.00     41692.45
 1124.10        2970.75           2438        8329.00     36351.35
 1124.13        2971.00           2441        7426.00     32405.78
 1124.17        2971.25           2445        6200.00     27050.59
 1124.20        2971.50           2449        4978.00     21714.81
 1124.23        2971.75           2452        4174.00     18205.25
 1124.26        2972.00           2456        2985.00     13016.66
 1124.29        2972.25           2459        2247.00      9797.07
 1124.32        2972.50           2463        1346.00      5867.34
 1124.35        2972.75           2466         807.00      3516.99
 1124.38        2973.00           2470         269.00      1171.36
 1124.41        2973.25           2473         135.00       587.20
 1124.44        2973.50           2477         126.00       547.96
 1124.47        2973.75           2481         151.00       656.95
 1124.50        2974.00           2484         121.00       526.16
 1124.53        2974.25           2488         104.00       452.06
 1124.56        2974.50           2491         124.00       539.24
 1124.59        2974.75           2495         127.00       552.32
 1124.62        2975.00           2498         103.00       447.70
 1124.65        2975.25           2502         118.00       513.09
 1124.69        2975.50           2505         118.00       513.09
 1124.72        2975.75           2509         100.00       434.62
 1124.75        2976.00           2512          94.00       408.46
 1124.78        2976.25           2516         107.00       465.13
 1124.81        2976.50           2520          95.00       412.82
 1124.84        2976.75           2523          86.00       373.59
 1124.87        2977.00           2527          87.00       377.95
 1124.90        2977.25           2530         117.00       508.73
 1124.94        2977.50           2534          84.00       364.87
 1124.97        2977.75           2537          93.00       404.10
 1125.00        2978.00           2541          85.00       369.23
 1125.03        2978.25           2544          94.00       408.46
 1125.06        2978.50           2548          92.00       399.74
 1125.10        2978.75           2552          87.00       377.95
 1125.13        2979.00           2555          86.00       373.59
 1125.16        2979.25           2559          94.00       408.46
 1125.19        2979.50           2562          85.00       369.23
 1125.22        2979.75           2566          87.00       377.95
 1125.25        2980.00           2569          88.00       382.31
 1125.28        2980.25           2573          89.00       386.67
 1125.31        2980.50           2577          89.00       386.67
 1125.34        2980.75           2580          85.00       369.23
 1125.37        2981.00           2584          87.00       377.95
 1125.40        2981.25           2587          85.00       369.23
 1125.43        2981.50           2591          85.00       369.23
 1125.46        2981.75           2594          80.00       347.43
 1125.49        2982.00           2598          76.00       329.99
 1125.52        2982.25           2601          84.00       364.87
 1125.55        2982.50           2605          79.00       343.07
 1125.58        2982.75           2609          72.00       312.56
 1125.62        2983.00           2612          85.00       369.23
 1125.65        2983.25           2616          81.00       351.79
 1125.68        2983.50           2619          86.00       373.59
 1125.71        2983.75           2623          76.00       329.99
 1125.74        2984.00           2626          76.00       329.99
HS scan finished at 18:45:58
end
