************************************************************
  HS Scan of (1) Internal mercury lamp
************************************************************
Integration time is 0.2294 seconds per sample
dh240219Reading 51.44 .94 2.64pr1000
************************************************************
Dead Time -------------------------  3.4E-08 
Number of Cycles Used -------------  4 
Starting Wavelength (Angstroms) ---  2950 
Final Wavelength (Angstoms) -------  2984 
Wavelength Increment (Angstroms) --  .25 
Filter Wheel #1 Position ---------- (1) Ground quartz diffuser (ND=2.32)
Filter Wheel #2 Position ---------- (1) Neutral Density 0.494



************************************************************
HS scan start time = 04:17:40
Dark Count =  .4 


Time (GMT)  Wavelength (Ang)  Step Number  Raw Counts  Counts/Second

  258.56        2950.00           2144        1650.00      7192.69
  258.76        2950.25           2147        1584.00      6904.85
  258.79        2950.50           2151        1674.00      7297.36
  258.82        2950.75           2155        1643.00      7162.16
  258.85        2951.00           2158        1620.00      7061.85
  258.88        2951.25           2162        1633.00      7118.55
  258.91        2951.50           2165        1650.00      7192.69
  258.94        2951.75           2169        1649.00      7188.33
  258.97        2952.00           2172        1646.00      7175.25
  259.00        2952.25           2176        1640.00      7149.08
  259.03        2952.50           2179        1670.00      7279.92
  259.06        2952.75           2183        1686.00      7349.70
  259.09        2953.00           2186        1656.00      7218.86
  259.12        2953.25           2190        1667.00      7266.84
  259.15        2953.50           2193        1651.00      7197.05
  259.19        2953.75           2197        1734.00      7559.05
  259.22        2954.00           2200        1668.00      7271.20
  259.25        2954.25           2204        1688.00      7358.42
  259.28        2954.50           2208        1692.00      7375.87
  259.31        2954.75           2211        1682.00      7332.26
  259.34        2955.00           2215        1723.00      7511.07
  259.37        2955.25           2218        1729.00      7537.24
  259.40        2955.50           2222        1758.00      7663.72
  259.43        2955.75           2225        1720.00      7497.99
  259.46        2956.00           2229        1724.00      7515.43
  259.49        2956.25           2232        1689.00      7362.78
  259.52        2956.50           2236        1756.00      7655.00
  259.55        2956.75           2239        1778.00      7750.95
  259.58        2957.00           2243        1808.00      7881.80
  259.61        2957.25           2246        1779.00      7755.31
  259.64        2957.50           2250        1776.00      7742.23
  259.67        2957.75           2254        1836.00      8003.92
  259.71        2958.00           2257        1833.00      7990.84
  259.74        2958.25           2261        1829.00      7973.39
  259.77        2958.50           2264        1876.00      8178.39
  259.80        2958.75           2268        1880.00      8195.83
  259.83        2959.00           2271        1926.00      8396.47
  259.86        2959.25           2275        1906.00      8309.23
  259.89        2959.50           2278        1914.00      8344.13
  259.92        2959.75           2282        1945.00      8479.34
  259.95        2960.00           2285        1988.00      8666.89
  259.98        2960.25           2289        1976.00      8614.55
  260.01        2960.50           2293        2046.00      8919.88
  260.04        2960.75           2296        2089.00      9107.44
  260.07        2961.00           2300        2174.00      9478.21
  260.10        2961.25           2303        2592.00     11301.64
  260.13        2961.50           2307        5346.00     23321.01
  260.16        2961.75           2310       12046.00     52603.15
  260.20        2962.00           2314       28306.00    123910.60
  260.23        2962.25           2317       44907.00    197072.80
  260.26        2962.50           2321       66970.00    294875.30
  260.29        2962.75           2324       83327.00    367808.10
  260.32        2963.00           2328      106181.00    470323.40
  260.35        2963.25           2331      122638.00    544592.60
  260.38        2963.50           2335      147147.00    655906.50
  260.41        2963.75           2339      169596.00    758617.60
  260.44        2964.00           2342      185714.00    832813.30
  260.47        2964.25           2346      207966.00    935873.60
  260.50        2964.50           2349      225122.00   1015836.00
  260.53        2964.75           2353      249061.00   1128158.00
  260.56        2965.00           2356      267023.00   1213015.00
  260.59        2965.25           2360      289383.00   1319352.00
  260.62        2965.50           2363      304708.00   1392690.00
  260.65        2965.75           2367      324260.00   1486804.00
  260.68        2966.00           2370      341134.00   1568527.00
  260.72        2966.25           2374      363892.00   1679492.00
  260.75        2966.50           2378      377735.00   1747414.00
  260.78        2966.75           2381      381836.00   1767598.00
  260.81        2967.00           2385      383573.00   1776155.00
  260.84        2967.25           2388      383784.00   1777195.00
  260.87        2967.50           2392      383648.00   1776525.00
  260.90        2967.75           2395      382255.00   1769661.00
  260.93        2968.00           2399      376479.00   1741238.00
  260.96        2968.25           2402      365742.00   1688551.00
  260.99        2968.50           2406      347121.00   1597635.00
  261.02        2968.75           2409      332709.00   1527665.00
  261.05        2969.00           2413      312215.00   1428752.00
  261.08        2969.25           2417      292008.00   1331887.00
  261.11        2969.50           2420      277008.00   1260403.00
  261.14        2969.75           2424      253906.00   1150998.00
  261.17        2970.00           2427      235235.00   1063180.00
  261.20        2970.25           2431      209128.00    941275.60
  261.23        2970.50           2434      192216.00    862851.60
  261.27        2970.75           2438      170605.00    763251.20
  261.30        2971.00           2441      154671.00    690250.30
  261.33        2971.25           2445      131522.00    584843.30
  261.36        2971.50           2449      106844.00    473308.20
  261.39        2971.75           2452       89668.00    396179.70
  261.42        2972.00           2456       66439.00    292513.80
  261.45        2972.25           2459       49575.00    217711.10
  261.48        2972.50           2463       27924.00    122231.40
  261.51        2972.75           2466       14502.00     63351.65
  261.54        2973.00           2470        5253.00     22914.97
  261.57        2973.25           2473        2934.00     12793.71
  261.60        2973.50           2477        2194.00      9565.45
  261.63        2973.75           2481        2113.00      9212.13
  261.66        2974.00           2484        2048.00      8928.60
  261.69        2974.25           2488        2030.00      8850.09
  261.72        2974.50           2491        2020.00      8806.47
  261.75        2974.75           2495        1970.00      8588.38
  261.79        2975.00           2498        1972.00      8597.11
  261.82        2975.25           2502        1906.00      8309.23
  261.85        2975.50           2505        1898.00      8274.34
  261.88        2975.75           2509        1852.00      8073.71
  261.91        2976.00           2512        1838.00      8012.65
  261.94        2976.25           2516        1816.00      7916.69
  261.97        2976.50           2520        1823.00      7947.22
  262.00        2976.75           2523        1780.00      7759.68
  262.03        2977.00           2527        1783.00      7772.76
  262.06        2977.25           2530        1759.00      7668.08
  262.09        2977.50           2534        1774.00      7733.51
  262.12        2977.75           2537        1752.00      7637.55
  262.15        2978.00           2541        1718.00      7489.26
  262.18        2978.25           2544        1687.00      7354.06
  262.21        2978.50           2548        1719.00      7493.63
  262.24        2978.75           2552        1656.00      7218.86
  262.27        2979.00           2555        1664.00      7253.75
  262.31        2979.25           2559        1663.00      7249.39
  262.34        2979.50           2562        1639.00      7144.72
  262.37        2979.75           2566        1648.00      7183.97
  262.40        2980.00           2569        1625.00      7083.66
  262.43        2980.25           2573        1581.00      6891.76
  262.46        2980.50           2577        1564.00      6817.62
  262.49        2980.75           2580        1588.00      6922.29
  262.52        2981.00           2584        1613.00      7031.32
  262.55        2981.25           2587        1575.00      6865.60
  262.58        2981.50           2591        1570.00      6843.79
  262.61        2981.75           2594        1578.00      6878.68
  262.64        2982.00           2598        1555.00      6778.37
  262.67        2982.25           2601        1525.00      6647.54
  262.70        2982.50           2605        1508.00      6573.40
  262.73        2982.75           2609        1508.00      6573.40
  262.76        2983.00           2612        1586.00      6913.57
  262.79        2983.25           2616        1523.00      6638.81
  262.83        2983.50           2619        1549.00      6752.20
  262.86        2983.75           2623        1507.00      6569.04
  262.89        2984.00           2626        1497.00      6525.42
HS scan finished at 04:23:06
end
************************************************************
  HS Scan of (1) Internal mercury lamp
************************************************************
Integration time is 0.2294 seconds per sample
dh240219Reading 51.44 .94 3.27pr1000
************************************************************
Dead Time -------------------------  3.4E-08 
Number of Cycles Used -------------  4 
Starting Wavelength (Angstroms) ---  2950 
Final Wavelength (Angstoms) -------  2984 
Wavelength Increment (Angstroms) --  .25 
Filter Wheel #1 Position ---------- (1) Ground quartz diffuser (ND=2.32)
Filter Wheel #2 Position ---------- (1) Neutral Density 0.494



************************************************************
HS scan start time = 18:37:28
Dark Count =  1.5 


Time (GMT)  Wavelength (Ang)  Step Number  Raw Counts  Counts/Second

 1118.37        2950.00           2144        1500.00      6533.71
 1118.56        2950.25           2147        1476.00      6429.04
 1118.59        2950.50           2151        1470.00      6402.88
 1118.62        2950.75           2155        1560.00      6795.38
 1118.65        2951.00           2158        1539.00      6703.80
 1118.68        2951.25           2162        1533.00      6677.63
 1118.72        2951.50           2165        1515.00      6599.13
 1118.75        2951.75           2169        1549.00      6747.41
 1118.78        2952.00           2172        1527.00      6651.46
 1118.81        2952.25           2176        1516.00      6603.49
 1118.84        2952.50           2179        1518.00      6612.21
 1118.87        2952.75           2183        1523.00      6634.02
 1118.90        2953.00           2186        1499.00      6529.35
 1118.93        2953.25           2190        1559.00      6791.02
 1118.96        2953.50           2193        1578.00      6873.88
 1118.99        2953.75           2197        1542.00      6716.88
 1119.02        2954.00           2200        1572.00      6847.71
 1119.05        2954.25           2204        1566.00      6821.55
 1119.08        2954.50           2208        1579.00      6878.24
 1119.11        2954.75           2211        1549.00      6747.41
 1119.14        2955.00           2215        1599.00      6965.47
 1119.17        2955.25           2218        1578.00      6873.88
 1119.20        2955.50           2222        1614.00      7030.89
 1119.24        2955.75           2225        1613.00      7026.53
 1119.27        2956.00           2229        1656.00      7214.06
 1119.30        2956.25           2232        1645.00      7166.09
 1119.33        2956.50           2236        1619.00      7052.69
 1119.36        2956.75           2239        1634.00      7118.11
 1119.39        2957.00           2243        1691.00      7366.71
 1119.42        2957.25           2246        1681.00      7323.10
 1119.45        2957.50           2250        1692.00      7371.07
 1119.48        2957.75           2254        1739.00      7576.06
 1119.51        2958.00           2257        1695.00      7384.16
 1119.54        2958.25           2261        1757.00      7654.56
 1119.57        2958.50           2264        1783.00      7767.96
 1119.60        2958.75           2268        1759.00      7663.29
 1119.63        2959.00           2271        1810.00      7885.72
 1119.66        2959.25           2275        1809.00      7881.36
 1119.69        2959.50           2278        1834.00      7990.40
 1119.72        2959.75           2282        1880.00      8191.03
 1119.76        2960.00           2285        1956.00      8522.52
 1119.79        2960.25           2289        1923.00      8378.59
 1119.82        2960.50           2293        1979.00      8622.84
 1119.85        2960.75           2296        2040.00      8888.91
 1119.88        2961.00           2300        2108.00      9185.52
 1119.91        2961.25           2303        2367.00     10315.30
 1119.94        2961.50           2307        5341.00     23294.38
 1119.97        2961.75           2310       13547.00     59166.42
 1120.00        2962.00           2314       32251.00    141258.80
 1120.03        2962.25           2317       50302.00    220923.10
 1120.06        2962.50           2321       73957.00    325979.70
 1120.09        2962.75           2324       90435.00    399610.20
 1120.12        2963.00           2328      114132.00    506153.50
 1120.15        2963.25           2331      133732.00    594868.40
 1120.18        2963.50           2335      160827.00    718405.20
 1120.21        2963.75           2339      186184.00    834977.50
 1120.24        2964.00           2342      204577.00    920124.90
 1120.27        2964.25           2346      228993.00   1033935.00
 1120.31        2964.50           2349      248571.00   1125845.00
 1120.34        2964.75           2353      273392.00   1243218.00
 1120.37        2965.00           2356      291342.00   1328700.00
 1120.40        2965.25           2360      316032.00   1447117.00
 1120.43        2965.50           2363      335052.00   1539012.00
 1120.46        2965.75           2367      359012.00   1655620.00
 1120.49        2966.00           2370      374800.00   1732981.00
 1120.52        2966.25           2374      395164.00   1833387.00
 1120.55        2966.50           2378      410831.00   1911119.00
 1120.58        2966.75           2381      415828.00   1936002.00
 1120.61        2967.00           2385      418868.00   1951161.00
 1120.64        2967.25           2388      419829.00   1955956.00
 1120.67        2967.50           2392      419825.00   1955936.00
 1120.70        2967.75           2395      419009.00   1951864.00
 1120.73        2968.00           2399      415062.00   1932185.00
 1120.76        2968.25           2402      406017.00   1887189.00
 1120.79        2968.50           2406      386742.00   1791776.00
 1120.83        2968.75           2409      369701.00   1707950.00
 1120.86        2969.00           2413      347430.00   1599134.00
 1120.89        2969.25           2417      326003.00   1495218.00
 1120.92        2969.50           2420      309123.00   1413882.00
 1120.95        2969.75           2424      285998.00   1303198.00
 1120.98        2970.00           2427      269022.00   1222484.00
 1121.01        2970.25           2431      246937.00   1118152.00
 1121.04        2970.50           2434      224578.00   1013289.00
 1121.07        2970.75           2438      198072.00    889953.80
 1121.10        2971.00           2441      177722.00    795971.40
 1121.13        2971.25           2445      152171.00    678824.90
 1121.16        2971.50           2449      128942.00    573137.60
 1121.19        2971.75           2452      112128.00    497113.20
 1121.22        2972.00           2456       86486.00    381930.60
 1121.25        2972.25           2459       67713.00    298175.50
 1121.28        2972.50           2463       42652.00    187108.50
 1121.31        2972.75           2466       26249.00    114865.80
 1121.35        2973.00           2470        9699.00     42334.22
 1121.38        2973.25           2473        4130.00     18007.97
 1121.41        2973.50           2477        2291.00      9983.77
 1121.44        2973.75           2481        2082.00      9072.11
 1121.47        2974.00           2484        2083.00      9076.47
 1121.50        2974.25           2488        1957.00      8526.88
 1121.53        2974.50           2491        1959.00      8535.61
 1121.56        2974.75           2495        1917.00      8352.42
 1121.59        2975.00           2498        1877.00      8177.95
 1121.62        2975.25           2502        1831.00      7977.32
 1121.65        2975.50           2505        1830.00      7972.95
 1121.68        2975.75           2509        1806.00      7868.28
 1121.71        2976.00           2512        1784.00      7772.32
 1121.74        2976.25           2516        1793.00      7811.58
 1121.77        2976.50           2520        1749.00      7619.67
 1121.80        2976.75           2523        1718.00      7484.47
 1121.83        2977.00           2527        1680.00      7318.74
 1121.87        2977.25           2530        1701.00      7410.32
 1121.90        2977.50           2534        1682.00      7327.46
 1121.93        2977.75           2537        1649.00      7183.53
 1121.96        2978.00           2541        1630.00      7100.67
 1121.99        2978.25           2544        1650.00      7187.89
 1122.02        2978.50           2548        1631.00      7105.03
 1122.06        2978.75           2552        1613.00      7026.53
 1122.09        2979.00           2555        1604.00      6987.27
 1122.13        2979.25           2559        1546.00      6734.32
 1122.16        2979.50           2562        1553.00      6764.85
 1122.19        2979.75           2566        1530.00      6664.54
 1122.22        2980.00           2569        1549.00      6747.41
 1122.25        2980.25           2573        1560.00      6795.38
 1122.28        2980.50           2577        1507.00      6564.24
 1122.31        2980.75           2580        1497.00      6520.63
 1122.34        2981.00           2584        1484.00      6463.93
 1122.37        2981.25           2587        1484.00      6463.93
 1122.40        2981.50           2591        1450.00      6315.65
 1122.43        2981.75           2594        1440.00      6272.04
 1122.46        2982.00           2598        1451.00      6320.02
 1122.49        2982.25           2601        1495.00      6511.90
 1122.52        2982.50           2605        1436.00      6254.60
 1122.55        2982.75           2609        1447.00      6302.57
 1122.58        2983.00           2612        1442.00      6280.77
 1122.61        2983.25           2616        1434.00      6245.88
 1122.65        2983.50           2619        1422.00      6193.55
 1122.68        2983.75           2623        1427.00      6215.35
 1122.71        2984.00           2626        1461.00      6363.63
HS scan finished at 18:42:56
end
