************************************************************
  HS Scan of 
************************************************************
Integration time is 0.2294 seconds per sample
dh220217Reading 51.44 .94 3.03pr1000
************************************************************
Dead Time -------------------------  3.4E-08 
Number of Cycles Used -------------  4 
Starting Wavelength (Angstroms) ---  2950 
Final Wavelength (Angstoms) -------  2984 
Wavelength Increment (Angstroms) --  .25 
Filter Wheel #1 Position ---------- (1) Ground quartz diffuser (ND=2.32)
Filter Wheel #2 Position ---------- (1) Neutral Density 0.494



************************************************************
HS scan start time = 04:21:06
Dark Count =  .9 


Time (GMT)  Wavelength (Ang)  Step Number  Raw Counts  Counts/Second

  261.99        2950.00           2144         777.00      3383.56
  262.19        2950.25           2147         793.00      3453.33
  262.22        2950.50           2151         780.00      3396.64
  262.25        2950.75           2155         799.00      3479.49
  262.28        2951.00           2158         780.00      3396.64
  262.31        2951.25           2162         797.00      3470.77
  262.34        2951.50           2165         791.00      3444.61
  262.37        2951.75           2169         798.00      3475.13
  262.40        2952.00           2172         818.00      3562.33
  262.43        2952.25           2176         803.00      3496.93
  262.46        2952.50           2179         797.00      3470.77
  262.49        2952.75           2183         800.00      3483.85
  262.52        2953.00           2186         824.00      3588.49
  262.56        2953.25           2190         844.00      3675.70
  262.59        2953.50           2193         838.00      3649.54
  262.62        2953.75           2197         844.00      3675.70
  262.65        2954.00           2200         828.00      3605.94
  262.68        2954.25           2204         833.00      3627.74
  262.71        2954.50           2208         855.00      3723.66
  262.74        2954.75           2211         863.00      3758.54
  262.77        2955.00           2215         868.00      3780.35
  262.80        2955.25           2218         860.00      3745.46
  262.83        2955.50           2222         862.00      3754.18
  262.86        2955.75           2225         874.00      3806.51
  262.89        2956.00           2229         882.00      3841.39
  262.92        2956.25           2232         845.00      3680.06
  262.95        2956.50           2236         893.00      3889.35
  262.98        2956.75           2239         912.00      3972.20
  263.01        2957.00           2243         925.00      4028.89
  263.04        2957.25           2246         902.00      3928.60
  263.08        2957.50           2250         928.00      4041.97
  263.11        2957.75           2254         916.00      3989.64
  263.14        2958.00           2257         923.00      4020.17
  263.17        2958.25           2261         956.00      4164.06
  263.20        2958.50           2264         937.00      4081.21
  263.23        2958.75           2268         974.00      4242.55
  263.26        2959.00           2271         973.00      4238.19
  263.29        2959.25           2275         991.00      4316.68
  263.32        2959.50           2278        1004.00      4373.36
  263.35        2959.75           2282         988.00      4303.59
  263.38        2960.00           2285         999.00      4351.56
  263.41        2960.25           2289        1042.00      4539.06
  263.44        2960.50           2293        1035.00      4508.54
  263.47        2960.75           2296        1071.00      4665.52
  263.50        2961.00           2300        1193.00      5197.52
  263.53        2961.25           2303        1590.00      6928.83
  263.56        2961.50           2307        5808.00     25336.11
  263.59        2961.75           2310       12855.00     56140.62
  263.63        2962.00           2314       24228.00    105992.00
  263.66        2962.25           2317       32371.00    141789.60
  263.69        2962.50           2321       44932.00    197181.10
  263.72        2962.75           2324       54474.00    239399.70
  263.75        2963.00           2328       70085.00    308734.30
  263.78        2963.25           2331       81834.00    361133.80
  263.81        2963.50           2335       96034.00    424716.30
  263.84        2963.75           2339      108657.00    481471.00
  263.87        2964.00           2342      118610.00    526377.30
  263.90        2964.25           2346      131734.00    585802.80
  263.93        2964.50           2349      143067.00    637314.70
  263.96        2964.75           2353      157024.00    701005.10
  264.00        2965.00           2356      166843.00    745980.40
  264.03        2965.25           2360      179542.00    804354.60
  264.06        2965.50           2363      188466.00    845517.20
  264.09        2965.75           2367      200694.00    902110.20
  264.12        2966.00           2370      209850.00    944630.90
  264.15        2966.25           2374      221986.00   1001184.00
  264.18        2966.50           2378      231055.00   1043590.00
  264.21        2966.75           2381      233630.00   1055653.00
  264.24        2967.00           2385      234431.00   1059408.00
  264.27        2967.25           2388      234381.00   1059174.00
  264.31        2967.50           2392      234619.00   1060289.00
  264.34        2967.75           2395      234427.00   1059389.00
  264.37        2968.00           2399      231497.00   1045660.00
  264.40        2968.25           2402      224519.00   1013016.00
  264.43        2968.50           2406      211608.00    952809.40
  264.46        2968.75           2409      201859.00    907513.50
  264.49        2969.00           2413      189645.00    850964.20
  264.52        2969.25           2417      176282.00    789346.80
  264.55        2969.50           2420      166580.00    744773.90
  264.58        2969.75           2424      152801.00    681704.80
  264.61        2970.00           2427      141763.00    631378.30
  264.64        2970.25           2431      127165.00    565086.80
  264.67        2970.50           2434      116530.00    516981.20
  264.70        2970.75           2438      101804.00    450631.60
  264.73        2971.00           2441       90820.00    401337.70
  264.76        2971.25           2445       78063.00    344295.00
  264.79        2971.50           2449       63883.00    281149.50
  264.83        2971.75           2452       52773.00    231864.70
  264.86        2972.00           2456       38773.00    169995.00
  264.89        2972.25           2459       29130.00    127531.30
  264.92        2972.50           2463       16578.00     72441.06
  264.95        2972.75           2466        8538.00     37262.08
  264.98        2973.00           2470        2794.00     12180.72
  265.01        2973.25           2473        1493.00      6505.80
  265.04        2973.50           2477        1143.00      4979.48
  265.07        2973.75           2481        1114.00      4853.02
  265.10        2974.00           2484        1095.00      4770.17
  265.13        2974.25           2488        1086.00      4730.93
  265.16        2974.50           2491        1047.00      4560.86
  265.19        2974.75           2495        1021.00      4447.49
  265.22        2975.00           2498        1041.00      4534.70
  265.25        2975.25           2502        1016.00      4425.69
  265.28        2975.50           2505         981.00      4273.07
  265.31        2975.75           2509         950.00      4137.90
  265.35        2976.00           2512         956.00      4164.06
  265.38        2976.25           2516         960.00      4181.50
  265.41        2976.50           2520         924.00      4024.53
  265.44        2976.75           2523         936.00      4076.85
  265.47        2977.00           2527         920.00      4007.08
  265.50        2977.25           2530         900.00      3919.88
  265.53        2977.50           2534         907.00      3950.40
  265.56        2977.75           2537         864.00      3762.90
  265.59        2978.00           2541         913.00      3976.56
  265.62        2978.25           2544         866.00      3771.63
  265.65        2978.50           2548         876.00      3815.23
  265.68        2978.75           2552         865.00      3767.27
  265.71        2979.00           2555         849.00      3697.50
  265.74        2979.25           2559         855.00      3723.66
  265.78        2979.50           2562         840.00      3658.26
  265.81        2979.75           2566         837.00      3645.18
  265.84        2980.00           2569         827.00      3601.57
  265.87        2980.25           2573         834.00      3632.10
  265.90        2980.50           2577         810.00      3527.45
  265.93        2980.75           2580         814.00      3544.89
  265.96        2981.00           2584         773.00      3366.12
  265.99        2981.25           2587         839.00      3653.90
  266.02        2981.50           2591         819.00      3566.69
  266.05        2981.75           2594         816.00      3553.61
  266.09        2982.00           2598         812.00      3536.17
  266.12        2982.25           2601         784.00      3414.08
  266.15        2982.50           2605         801.00      3488.21
  266.18        2982.75           2609         787.00      3427.16
  266.21        2983.00           2612         781.00      3401.00
  266.24        2983.25           2616         824.00      3588.49
  266.27        2983.50           2619         772.00      3361.76
  266.30        2983.75           2623         789.00      3435.89
  266.33        2984.00           2626         759.00      3305.08
HS scan finished at 04:26:33
end
************************************************************
  HS Scan of 
************************************************************
Integration time is 0.2294 seconds per sample
dh220217Reading 51.44 .94 3.15pr1000
************************************************************
Dead Time -------------------------  3.4E-08 
Number of Cycles Used -------------  4 
Starting Wavelength (Angstroms) ---  2950 
Final Wavelength (Angstoms) -------  2984 
Wavelength Increment (Angstroms) --  .25 
Filter Wheel #1 Position ---------- (1) Ground quartz diffuser (ND=2.32)
Filter Wheel #2 Position ---------- (1) Neutral Density 0.494



************************************************************
HS scan start time = 18:37:28
Dark Count =  1.6 


Time (GMT)  Wavelength (Ang)  Step Number  Raw Counts  Counts/Second

 1118.36        2950.00           2144         732.00      3184.30
 1118.56        2950.25           2147         765.00      3328.19
 1118.59        2950.50           2151         779.00      3389.23
 1118.62        2950.75           2155         759.00      3302.03
 1118.65        2951.00           2158         773.00      3363.07
 1118.68        2951.25           2162         796.00      3463.36
 1118.71        2951.50           2165         774.00      3367.43
 1118.74        2951.75           2169         843.00      3668.29
 1118.77        2952.00           2172         783.00      3406.67
 1118.80        2952.25           2176         782.00      3402.31
 1118.83        2952.50           2179         784.00      3411.03
 1118.86        2952.75           2183         793.00      3450.27
 1118.89        2953.00           2186         754.00      3280.23
 1118.92        2953.25           2190         810.00      3524.40
 1118.96        2953.50           2193         830.00      3611.60
 1118.99        2953.75           2197         801.00      3485.16
 1119.02        2954.00           2200         789.00      3432.83
 1119.05        2954.25           2204         830.00      3611.60
 1119.08        2954.50           2208         821.00      3572.36
 1119.11        2954.75           2211         811.00      3528.76
 1119.14        2955.00           2215         817.00      3554.92
 1119.17        2955.25           2218         807.00      3511.32
 1119.20        2955.50           2222         838.00      3646.49
 1119.23        2955.75           2225         838.00      3646.49
 1119.26        2956.00           2229         816.00      3550.56
 1119.29        2956.25           2232         849.00      3694.45
 1119.32        2956.50           2236         843.00      3668.29
 1119.35        2956.75           2239         843.00      3668.29
 1119.38        2957.00           2243         852.00      3707.53
 1119.41        2957.25           2246         868.00      3777.29
 1119.44        2957.50           2250         882.00      3838.34
 1119.48        2957.75           2254         932.00      4056.36
 1119.51        2958.00           2257         886.00      3855.78
 1119.54        2958.25           2261         889.00      3868.86
 1119.57        2958.50           2264         909.00      3956.07
 1119.60        2958.75           2268         937.00      4078.16
 1119.63        2959.00           2271         921.00      4008.39
 1119.66        2959.25           2275         930.00      4047.64
 1119.69        2959.50           2278         941.00      4095.60
 1119.72        2959.75           2282         935.00      4069.44
 1119.75        2960.00           2285         963.00      4191.53
 1119.78        2960.25           2289         984.00      4283.10
 1119.81        2960.50           2293         988.00      4300.54
 1119.84        2960.75           2296        1037.00      4514.21
 1119.87        2961.00           2300        1099.00      4784.56
 1119.90        2961.25           2303        1273.00      5543.33
 1119.93        2961.50           2307        3531.00     15393.41
 1119.96        2961.75           2310        8645.00     37726.65
 1119.99        2962.00           2314       17806.00     77818.53
 1120.03        2962.25           2317       25917.00    113406.80
 1120.06        2962.50           2321       37915.00    166208.60
 1120.09        2962.75           2324       47063.00    206596.10
 1120.12        2963.00           2328       58984.00    259393.60
 1120.15        2963.25           2331       67735.00    298272.90
 1120.18        2963.50           2335       78974.00    348358.00
 1120.21        2963.75           2339       91304.00    403503.10
 1120.24        2964.00           2342      101199.00    447909.00
 1120.27        2964.25           2346      114126.00    506125.90
 1120.30        2964.50           2349      122756.00    545121.00
 1120.33        2964.75           2353      133822.00    595276.60
 1120.36        2965.00           2356      142103.00    632922.80
 1120.39        2965.25           2360      152251.00    679189.80
 1120.42        2965.50           2363      159685.00    713176.70
 1120.45        2965.75           2367      171529.00    767490.30
 1120.48        2966.00           2370      179951.00    806235.50
 1120.51        2966.25           2374      190327.00    854112.70
 1120.55        2966.50           2378      197670.00    888090.90
 1120.58        2966.75           2381      199373.00    895982.60
 1120.61        2967.00           2385      200118.00    899436.20
 1120.64        2967.25           2388      200263.00    900108.50
 1120.67        2967.50           2392      200048.00    899111.70
 1120.70        2967.75           2395      199929.00    898560.00
 1120.73        2968.00           2399      197317.00    886455.60
 1120.76        2968.25           2402      191940.00    861569.70
 1120.79        2968.50           2406      182636.00    818609.50
 1120.82        2968.75           2409      174340.00    780410.70
 1120.85        2969.00           2413      163307.00    729764.80
 1120.88        2969.25           2417      152884.00    682080.60
 1120.91        2969.50           2420      144141.00    642202.60
 1120.94        2969.75           2424      132490.00    589230.30
 1120.97        2970.00           2427      123599.00    548935.80
 1121.00        2970.25           2431      111294.00    493352.10
 1121.03        2970.50           2434      102676.00    454549.00
 1121.07        2970.75           2438       91406.00    403960.20
 1121.10        2971.00           2441       82761.00    365273.00
 1121.13        2971.25           2445       69541.00    306309.50
 1121.16        2971.50           2449       57054.00    250832.80
 1121.19        2971.75           2452       47789.00    209806.00
 1121.22        2972.00           2456       36175.00    158539.30
 1121.25        2972.25           2459       28019.00    122643.80
 1121.28        2972.50           2463       16998.00     74278.03
 1121.31        2972.75           2466        9457.00     41275.85
 1121.34        2973.00           2470        2971.00     12949.90
 1121.37        2973.25           2473        1408.00      6132.05
 1121.40        2973.50           2477        1086.00      4727.87
 1121.43        2973.75           2481        1022.00      4448.80
 1121.46        2974.00           2484        1018.00      4431.36
 1121.49        2974.25           2488        1016.00      4422.64
 1121.52        2974.50           2491         982.00      4274.38
 1121.56        2974.75           2495         976.00      4248.22
 1121.59        2975.00           2498         971.00      4226.41
 1121.62        2975.25           2502         933.00      4060.72
 1121.65        2975.50           2505         917.00      3990.95
 1121.68        2975.75           2509         914.00      3977.87
 1121.71        2976.00           2512         928.00      4038.92
 1121.74        2976.25           2516         932.00      4056.36
 1121.77        2976.50           2520         880.00      3829.62
 1121.80        2976.75           2523         897.00      3903.74
 1121.83        2977.00           2527         873.00      3799.10
 1121.86        2977.25           2530         892.00      3881.94
 1121.89        2977.50           2534         833.00      3624.68
 1121.92        2977.75           2537         842.00      3663.93
 1121.95        2978.00           2541         826.00      3594.16
 1121.98        2978.25           2544         823.00      3581.08
 1122.01        2978.50           2548         803.00      3493.88
 1122.04        2978.75           2552         819.00      3563.64
 1122.08        2979.00           2555         845.00      3677.01
 1122.11        2979.25           2559         799.00      3476.44
 1122.14        2979.50           2562         807.00      3511.32
 1122.17        2979.75           2566         823.00      3581.08
 1122.20        2980.00           2569         783.00      3406.67
 1122.23        2980.25           2573         807.00      3511.32
 1122.26        2980.50           2577         797.00      3467.71
 1122.29        2980.75           2580         796.00      3463.36
 1122.32        2981.00           2584         769.00      3345.63
 1122.35        2981.25           2587         766.00      3332.55
 1122.38        2981.50           2591         769.00      3345.63
 1122.41        2981.75           2594         791.00      3441.55
 1122.44        2982.00           2598         781.00      3397.95
 1122.47        2982.25           2601         798.00      3472.08
 1122.50        2982.50           2605         751.00      3267.15
 1122.53        2982.75           2609         788.00      3428.47
 1122.56        2983.00           2612         759.00      3302.03
 1122.60        2983.25           2616         779.00      3389.23
 1122.63        2983.50           2619         782.00      3402.31
 1122.66        2983.75           2623         758.00      3297.67
 1122.69        2984.00           2626         754.00      3280.23
HS scan finished at 18:42:55
end
