************************************************************
  HS Scan of 
************************************************************
Integration time is 0.2294 seconds per sample
dh250217Reading 51.44 .94 2.74pr1000
************************************************************
Dead Time -------------------------  3.4E-08 
Number of Cycles Used -------------  4 
Starting Wavelength (Angstroms) ---  2950 
Final Wavelength (Angstoms) -------  2984 
Wavelength Increment (Angstroms) --  .25 
Filter Wheel #1 Position ---------- (1) Ground quartz diffuser (ND=2.32)
Filter Wheel #2 Position ---------- (1) Neutral Density 0.494



************************************************************
HS scan start time = 04:14:16
Dark Count =  .4 


Time (GMT)  Wavelength (Ang)  Step Number  Raw Counts  Counts/Second

  255.17        2950.00           2144         849.00      3699.68
  255.36        2950.25           2147         838.00      3651.72
  255.39        2950.50           2151         848.00      3695.32
  255.42        2950.75           2155         876.00      3817.41
  255.45        2951.00           2158         857.00      3734.56
  255.48        2951.25           2162         872.00      3799.97
  255.51        2951.50           2165         852.00      3712.76
  255.54        2951.75           2169         890.00      3878.45
  255.57        2952.00           2172         858.00      3738.92
  255.60        2952.25           2176         864.00      3765.09
  255.64        2952.50           2179         853.00      3717.12
  255.67        2952.75           2183         897.00      3908.98
  255.70        2953.00           2186         876.00      3817.41
  255.73        2953.25           2190         917.00      3996.18
  255.76        2953.50           2193         911.00      3970.02
  255.79        2953.75           2197         918.00      4000.54
  255.82        2954.00           2200         938.00      4087.75
  255.85        2954.25           2204         932.00      4061.59
  255.88        2954.50           2208         893.00      3891.54
  255.91        2954.75           2211         920.00      4009.27
  255.94        2955.00           2215         886.00      3861.01
  255.97        2955.25           2218         939.00      4092.11
  256.00        2955.50           2222         927.00      4039.79
  256.03        2955.75           2225         963.00      4196.76
  256.06        2956.00           2229         917.00      3996.18
  256.09        2956.25           2232         962.00      4192.40
  256.12        2956.50           2236         965.00      4205.48
  256.16        2956.75           2239         954.00      4157.52
  256.19        2957.00           2243         972.00      4236.01
  256.22        2957.25           2246         963.00      4196.76
  256.25        2957.50           2250         967.00      4214.20
  256.28        2957.75           2254         998.00      4349.38
  256.31        2958.00           2257        1023.00      4458.39
  256.34        2958.25           2261        1020.00      4445.31
  256.37        2958.50           2264         991.00      4318.86
  256.40        2958.75           2268        1006.00      4384.26
  256.43        2959.00           2271        1055.00      4597.93
  256.46        2959.25           2275        1015.00      4423.51
  256.49        2959.50           2278        1071.00      4667.70
  256.52        2959.75           2282        1065.00      4641.53
  256.55        2960.00           2285        1081.00      4711.30
  256.58        2960.25           2289        1123.00      4894.45
  256.61        2960.50           2293        1136.00      4951.14
  256.64        2960.75           2296        1177.00      5129.93
  256.68        2961.00           2300        1162.00      5064.52
  256.71        2961.25           2303        1325.00      5775.33
  256.74        2961.50           2307        3106.00     13544.16
  256.77        2961.75           2310        7670.00     33471.38
  256.80        2962.00           2314       18741.00     81921.85
  256.83        2962.25           2317       28168.00    123304.00
  256.86        2962.50           2321       40035.00    175563.60
  256.89        2962.75           2324       49020.00    215255.80
  256.92        2963.00           2328       62263.00    273954.90
  256.95        2963.25           2331       73085.00    322098.40
  256.98        2963.50           2335       87561.00    386746.20
  257.01        2963.75           2339      101036.00    447181.80
  257.04        2964.00           2342      110675.00    490567.00
  257.07        2964.25           2346      123384.00    547968.20
  257.10        2964.50           2349      134627.00    598937.40
  257.13        2964.75           2353      149736.00    667715.00
  257.16        2965.00           2356      159665.00    713090.60
  257.20        2965.25           2360      171206.00    766011.80
  257.23        2965.50           2363      180989.00    811023.50
  257.26        2965.75           2367      193949.00    870868.20
  257.29        2966.00           2370      203668.00    915910.10
  257.32        2966.25           2374      214783.00    967594.10
  257.35        2966.50           2378      223129.00   1006524.00
  257.38        2966.75           2381      226853.00   1023929.00
  257.41        2967.00           2385      228148.00   1029986.00
  257.44        2967.25           2388      228400.00   1031165.00
  257.47        2967.50           2392      228378.00   1031062.00
  257.50        2967.75           2395      228461.00   1031450.00
  257.53        2968.00           2399      226343.00   1021544.00
  257.56        2968.25           2402      221397.00    998436.40
  257.59        2968.50           2406      209972.00    945200.60
  257.62        2968.75           2409      200084.00    899284.10
  257.65        2969.00           2413      188015.00    843436.40
  257.68        2969.25           2417      175277.00    784725.50
  257.71        2969.50           2420      166459.00    744221.20
  257.75        2969.75           2424      154680.00    690291.40
  257.78        2970.00           2427      143878.00    641010.20
  257.81        2970.25           2431      129585.00    576057.80
  257.84        2970.50           2434      119481.00    530316.00
  257.87        2970.75           2438      105656.00    467960.40
  257.90        2971.00           2441       95028.00    420204.90
  257.93        2971.25           2445       82046.00    362083.30
  257.96        2971.50           2449       69438.00    305856.40
  257.99        2971.75           2452       60555.00    266371.00
  258.02        2972.00           2456       47217.00    207282.20
  258.06        2972.25           2459       36913.00    161797.00
  258.10        2972.50           2463       23537.00    102960.50
  258.13        2972.75           2466       14241.00     62209.04
  258.16        2973.00           2470        5221.00     22775.26
  258.19        2973.25           2473        2354.00     10263.39
  258.22        2973.50           2477        1324.00      5770.97
  258.25        2973.75           2481        1174.00      5116.84
  258.28        2974.00           2484        1195.00      5208.42
  258.31        2974.25           2488        1139.00      4964.22
  258.34        2974.50           2491        1144.00      4986.02
  258.37        2974.75           2495        1100.00      4794.16
  258.40        2975.00           2498        1103.00      4807.24
  258.43        2975.25           2502        1060.00      4619.73
  258.46        2975.50           2505        1085.00      4728.75
  258.50        2975.75           2509        1071.00      4667.70
  258.53        2976.00           2512         992.00      4323.22
  258.56        2976.25           2516        1011.00      4406.07
  258.59        2976.50           2520         992.00      4323.22
  258.62        2976.75           2523        1001.00      4362.46
  258.65        2977.00           2527         969.00      4222.93
  258.68        2977.25           2530        1005.00      4379.90
  258.71        2977.50           2534         964.00      4201.12
  258.74        2977.75           2537         935.00      4074.67
  258.77        2978.00           2541         960.00      4183.68
  258.80        2978.25           2544         965.00      4205.48
  258.83        2978.50           2548         929.00      4048.51
  258.86        2978.75           2552         938.00      4087.75
  258.89        2979.00           2555         913.00      3978.74
  258.92        2979.25           2559         905.00      3943.86
  258.95        2979.50           2562         919.00      4004.90
  258.98        2979.75           2566         913.00      3978.74
  259.01        2980.00           2569         881.00      3839.21
  259.05        2980.25           2573         904.00      3939.50
  259.08        2980.50           2577         914.00      3983.10
  259.11        2980.75           2580         878.00      3826.13
  259.14        2981.00           2584         845.00      3682.24
  259.17        2981.25           2587         882.00      3843.57
  259.20        2981.50           2591         863.00      3760.73
  259.23        2981.75           2594         859.00      3743.28
  259.26        2982.00           2598         862.00      3756.36
  259.29        2982.25           2601         866.00      3773.81
  259.32        2982.50           2605         840.00      3660.44
  259.35        2982.75           2609         862.00      3756.36
  259.38        2983.00           2612         835.00      3638.64
  259.41        2983.25           2616         848.00      3695.32
  259.44        2983.50           2619         832.00      3625.56
  259.47        2983.75           2623         859.00      3743.28
  259.50        2984.00           2626         852.00      3712.76
HS scan finished at 04:19:44
end
************************************************************
  HS Scan of 
************************************************************
Integration time is 0.2294 seconds per sample
dh250217Reading 51.44 .94 2.88pr1000
************************************************************
Dead Time -------------------------  3.4E-08 
Number of Cycles Used -------------  4 
Starting Wavelength (Angstroms) ---  2950 
Final Wavelength (Angstoms) -------  2984 
Wavelength Increment (Angstroms) --  .25 
Filter Wheel #1 Position ---------- (1) Ground quartz diffuser (ND=2.32)
Filter Wheel #2 Position ---------- (1) Neutral Density 0.494



************************************************************
HS scan start time = 18:37:30
Dark Count =  .7 


Time (GMT)  Wavelength (Ang)  Step Number  Raw Counts  Counts/Second

 1118.40        2950.00           2144         795.00      3462.92
 1118.59        2950.25           2147         878.00      3824.82
 1118.62        2950.50           2151         853.00      3715.81
 1118.65        2950.75           2155         838.00      3650.41
 1118.68        2951.00           2158         820.00      3571.92
 1118.71        2951.25           2162         839.00      3654.77
 1118.74        2951.50           2165         836.00      3641.69
 1118.78        2951.75           2169         837.00      3646.05
 1118.81        2952.00           2172         792.00      3449.84
 1118.84        2952.25           2176         871.00      3794.30
 1118.87        2952.50           2179         846.00      3685.29
 1118.90        2952.75           2183         862.00      3755.06
 1118.93        2953.00           2186         829.00      3611.17
 1118.96        2953.25           2190         859.00      3741.98
 1118.99        2953.50           2193         882.00      3842.26
 1119.02        2953.75           2197         853.00      3715.81
 1119.05        2954.00           2200         861.00      3750.70
 1119.08        2954.25           2204         864.00      3763.78
 1119.11        2954.50           2208         852.00      3711.45
 1119.14        2954.75           2211         884.00      3850.98
 1119.17        2955.00           2215         872.00      3798.66
 1119.20        2955.25           2218         888.00      3868.42
 1119.23        2955.50           2222         880.00      3833.54
 1119.26        2955.75           2225         876.00      3816.10
 1119.30        2956.00           2229         873.00      3803.02
 1119.33        2956.25           2232         917.00      3994.88
 1119.36        2956.50           2236         911.00      3968.71
 1119.39        2956.75           2239         870.00      3789.94
 1119.42        2957.00           2243         930.00      4051.56
 1119.45        2957.25           2246         906.00      3946.91
 1119.48        2957.50           2250         910.00      3964.35
 1119.51        2957.75           2254         926.00      4034.12
 1119.54        2958.00           2257         925.00      4029.76
 1119.57        2958.25           2261         945.00      4116.97
 1119.60        2958.50           2264         943.00      4108.25
 1119.63        2958.75           2268         960.00      4182.37
 1119.66        2959.00           2271         971.00      4230.34
 1119.69        2959.25           2275         947.00      4125.69
 1119.72        2959.50           2278         989.00      4308.83
 1119.75        2959.75           2282         997.00      4343.71
 1119.78        2960.00           2285        1023.00      4457.08
 1119.81        2960.25           2289        1009.00      4396.04
 1119.85        2960.50           2293        1024.00      4461.44
 1119.88        2960.75           2296        1065.00      4640.23
 1119.91        2961.00           2300        1107.00      4823.37
 1119.94        2961.25           2303        1150.00      5010.88
 1119.97        2961.50           2307        2167.00      9446.37
 1120.00        2961.75           2310        6179.00     26957.13
 1120.03        2962.00           2314       15575.00     68048.71
 1120.06        2962.25           2317       23309.00    101958.30
 1120.09        2962.50           2321       32750.00    143458.70
 1120.12        2962.75           2324       39833.00    174671.20
 1120.15        2963.00           2328       51332.00    225485.40
 1120.18        2963.25           2331       59977.00    263804.20
 1120.21        2963.50           2335       72517.00    319566.30
 1120.24        2963.75           2339       83880.00    370278.90
 1120.29        2964.00           2342       92825.00    410324.20
 1120.32        2964.25           2346      103823.00    459711.50
 1120.35        2964.50           2349      112353.00    498131.50
 1120.38        2964.75           2353      124006.00    550781.90
 1120.41        2965.00           2356      133049.00    591771.50
 1120.44        2965.25           2360      143766.00    640498.70
 1120.47        2965.50           2363      151536.00    675929.20
 1120.50        2965.75           2367      161649.00    722173.10
 1120.53        2966.00           2370      169610.00    758680.50
 1120.56        2966.25           2374      179339.00    803420.60
 1120.59        2966.50           2378      187565.00    841356.90
 1120.63        2966.75           2381      190052.00    852845.90
 1120.66        2967.00           2385      191701.00    860468.80
 1120.69        2967.25           2388      191699.00    860459.40
 1120.72        2967.50           2392      191604.00    860020.10
 1120.75        2967.75           2395      191478.00    859437.60
 1120.78        2968.00           2399      189782.00    851598.10
 1120.81        2968.25           2402      185247.00    830656.80
 1120.85        2968.50           2406      174943.00    783188.00
 1120.89        2968.75           2409      167876.00    750721.00
 1120.92        2969.00           2413      158242.00    706577.40
 1120.95        2969.25           2417      147537.00    657683.40
 1120.98        2969.50           2420      140290.00    624676.40
 1121.01        2969.75           2424      130392.00    579716.10
 1121.04        2970.00           2427      121925.00    541365.60
 1121.07        2970.25           2431      108894.00    482539.60
 1121.10        2970.50           2434      100190.00    443378.80
 1121.13        2970.75           2438       88825.00    392403.30
 1121.16        2971.00           2441       80649.00    355841.20
 1121.19        2971.25           2445       69631.00    306714.10
 1121.22        2971.50           2449       58800.00    258581.20
 1121.25        2971.75           2452       50636.00    222404.70
 1121.28        2972.00           2456       40148.00    176060.80
 1121.31        2972.25           2459       31828.00    139400.60
 1121.34        2972.50           2463       21030.00     91957.96
 1121.37        2972.75           2466       12822.00     55997.10
 1121.41        2973.00           2470        4388.00     19137.56
 1121.44        2973.25           2473        1882.00      8203.25
 1121.47        2973.50           2477        1211.00      5276.88
 1121.50        2973.75           2481        1087.00      4736.16
 1121.53        2974.00           2484        1062.00      4627.15
 1121.56        2974.25           2488        1082.00      4714.36
 1121.59        2974.50           2491        1015.00      4422.20
 1121.62        2974.75           2495         996.00      4339.35
 1121.65        2975.00           2498         995.00      4334.99
 1121.68        2975.25           2502         985.00      4291.39
 1121.71        2975.50           2505         952.00      4147.49
 1121.74        2975.75           2509         960.00      4182.37
 1121.77        2976.00           2512         933.00      4064.64
 1121.80        2976.25           2516         917.00      3994.88
 1121.83        2976.50           2520         917.00      3994.88
 1121.86        2976.75           2523         909.00      3959.99
 1121.89        2977.00           2527         912.00      3973.07
 1121.93        2977.25           2530         945.00      4116.97
 1121.96        2977.50           2534         909.00      3959.99
 1121.99        2977.75           2537         865.00      3768.14
 1122.02        2978.00           2541         889.00      3872.79
 1122.05        2978.25           2544         849.00      3698.37
 1122.08        2978.50           2548         853.00      3715.81
 1122.11        2978.75           2552         876.00      3816.10
 1122.14        2979.00           2555         866.00      3772.50
 1122.17        2979.25           2559         849.00      3698.37
 1122.20        2979.50           2562         838.00      3650.41
 1122.23        2979.75           2566         839.00      3654.77
 1122.26        2980.00           2569         824.00      3589.37
 1122.29        2980.25           2573         837.00      3646.05
 1122.32        2980.50           2577         863.00      3759.42
 1122.35        2980.75           2580         852.00      3711.45
 1122.38        2981.00           2584         816.00      3554.48
 1122.41        2981.25           2587         795.00      3462.92
 1122.45        2981.50           2591         853.00      3715.81
 1122.48        2981.75           2594         804.00      3502.16
 1122.51        2982.00           2598         807.00      3515.24
 1122.54        2982.25           2601         819.00      3567.56
 1122.57        2982.50           2605         786.00      3423.68
 1122.60        2982.75           2609         782.00      3406.24
 1122.63        2983.00           2612         816.00      3554.48
 1122.66        2983.25           2616         795.00      3462.92
 1122.69        2983.50           2619         798.00      3476.00
 1122.72        2983.75           2623         791.00      3445.48
 1122.75        2984.00           2626         805.00      3506.52
HS scan finished at 18:42:59
end
