************************************************************
  HS Scan of (1) Internal mercury lamp
************************************************************
Integration time is 0.2294 seconds per sample
dh230219Reading 51.44 .94 2.8pr1000
************************************************************
Dead Time -------------------------  3.4E-08 
Number of Cycles Used -------------  4 
Starting Wavelength (Angstroms) ---  2950 
Final Wavelength (Angstoms) -------  2984 
Wavelength Increment (Angstroms) --  .25 
Filter Wheel #1 Position ---------- (1) Ground quartz diffuser (ND=2.32)
Filter Wheel #2 Position ---------- (1) Neutral Density 0.494



************************************************************
HS scan start time = 04:19:56
Dark Count =  .7 


Time (GMT)  Wavelength (Ang)  Step Number  Raw Counts  Counts/Second

  260.83        2950.00           2144        1579.00      6881.73
  261.02        2950.25           2147        1575.00      6864.29
  261.05        2950.50           2151        1587.00      6916.62
  261.08        2950.75           2155        1586.00      6912.26
  261.11        2951.00           2158        1667.00      7265.53
  261.14        2951.25           2162        1629.00      7099.80
  261.17        2951.50           2165        1660.00      7235.00
  261.20        2951.75           2169        1639.00      7143.41
  261.23        2952.00           2172        1605.00      6995.12
  261.26        2952.25           2176        1637.00      7134.69
  261.29        2952.50           2179        1666.00      7261.16
  261.33        2952.75           2183        1652.00      7200.11
  261.36        2953.00           2186        1656.00      7217.55
  261.39        2953.25           2190        1637.00      7134.69
  261.42        2953.50           2193        1673.00      7291.70
  261.45        2953.75           2197        1660.00      7235.00
  261.48        2954.00           2200        1632.00      7112.88
  261.51        2954.25           2204        1662.00      7243.72
  261.54        2954.50           2208        1691.00      7370.20
  261.57        2954.75           2211        1699.00      7405.09
  261.60        2955.00           2215        1707.00      7439.98
  261.63        2955.25           2218        1735.00      7562.10
  261.66        2955.50           2222        1744.00      7601.35
  261.69        2955.75           2225        1755.00      7649.33
  261.72        2956.00           2229        1743.00      7596.99
  261.75        2956.25           2232        1733.00      7553.38
  261.78        2956.50           2236        1768.00      7706.03
  261.81        2956.75           2239        1780.00      7758.37
  261.84        2957.00           2243        1756.00      7653.69
  261.88        2957.25           2246        1818.00      7924.11
  261.91        2957.50           2250        1807.00      7876.13
  261.94        2957.75           2254        1815.00      7911.02
  261.97        2958.00           2257        1803.00      7858.68
  262.00        2958.25           2261        1872.00      8159.63
  262.03        2958.50           2264        1830.00      7976.44
  262.06        2958.75           2268        1873.00      8163.99
  262.09        2959.00           2271        1922.00      8377.71
  262.12        2959.25           2275        1918.00      8360.27
  262.15        2959.50           2278        1937.00      8443.14
  262.18        2959.75           2282        1995.00      8696.12
  262.21        2960.00           2285        2010.00      8761.55
  262.24        2960.25           2289        2038.00      8883.68
  262.27        2960.50           2293        2062.00      8988.36
  262.30        2960.75           2296        2101.00      9158.48
  262.33        2961.00           2300        2330.00     10157.39
  262.37        2961.25           2303        3119.00     13599.57
  262.40        2961.50           2307        8784.00     38338.09
  262.43        2961.75           2310       18494.00     80837.85
  262.46        2962.00           2314       37901.00    166150.90
  262.49        2962.25           2317       55472.00    243823.40
  262.52        2962.50           2321       79691.00    351563.10
  262.55        2962.75           2324       98089.00    433941.70
  262.58        2963.00           2328      120494.00    534894.00
  262.61        2963.25           2331      138197.00    615157.60
  262.64        2963.50           2335      161051.00    719434.60
  262.67        2963.75           2339      186648.00    837123.00
  262.70        2964.00           2342      206533.00    929213.10
  262.73        2964.25           2346      230914.00   1042931.00
  262.76        2964.50           2349      248569.00   1125840.00
  262.79        2964.75           2353      270077.00   1227491.00
  262.82        2965.00           2356      285478.00   1300723.00
  262.85        2965.25           2360      306482.00   1401202.00
  262.89        2965.50           2363      324369.00   1487329.00
  262.92        2965.75           2367      348492.00   1604308.00
  262.95        2966.00           2370      364984.00   1684837.00
  262.98        2966.25           2374      383787.00   1777208.00
  263.01        2966.50           2378      394989.00   1832525.00
  263.04        2966.75           2381      398440.00   1849610.00
  263.07        2967.00           2385      399415.00   1854441.00
  263.10        2967.25           2388      400190.00   1858282.00
  263.13        2967.50           2392      399936.00   1857022.00
  263.16        2967.75           2395      398947.00   1852122.00
  263.19        2968.00           2399      392237.00   1818916.00
  263.22        2968.25           2402      380682.00   1761914.00
  263.25        2968.50           2406      361964.00   1670057.00
  263.28        2968.75           2409      348778.00   1605701.00
  263.31        2969.00           2413      327664.00   1503251.00
  263.34        2969.25           2417      305174.00   1394924.00
  263.37        2969.50           2420      287560.00   1310651.00
  263.40        2969.75           2424      264471.00   1200927.00
  263.44        2970.00           2427      247138.00   1119102.00
  263.47        2970.25           2431      224076.00   1010947.00
  263.50        2970.50           2434      206175.00    927550.00
  263.53        2970.75           2438      181247.00    812211.00
  263.56        2971.00           2441      161723.00    722512.10
  263.59        2971.25           2445      137148.00    610389.30
  263.62        2971.50           2449      113978.00    505462.10
  263.65        2971.75           2452       96761.00    427979.90
  263.68        2972.00           2456       74251.00    327293.70
  263.71        2972.25           2459       56540.00    248557.70
  263.74        2972.50           2463       34253.00    150076.40
  263.77        2972.75           2466       18624.00     81407.68
  263.80        2973.00           2470        5920.00     25826.07
  263.83        2973.25           2473        2949.00     12857.84
  263.86        2973.50           2477        2187.00      9533.60
  263.89        2973.75           2481        2166.00      9442.00
  263.92        2974.00           2484        2067.00      9010.17
  263.96        2974.25           2488        2021.00      8809.53
  263.99        2974.50           2491        2018.00      8796.44
  264.02        2974.75           2495        1979.00      8626.33
  264.05        2975.00           2498        1950.00      8499.84
  264.08        2975.25           2502        1897.00      8268.67
  264.11        2975.50           2505        1897.00      8268.67
  264.14        2975.75           2509        1878.00      8185.80
  264.17        2976.00           2512        1820.00      7932.83
  264.20        2976.25           2516        1826.00      7959.00
  264.23        2976.50           2520        1816.00      7915.38
  264.26        2976.75           2523        1789.00      7797.62
  264.29        2977.00           2527        1768.00      7706.03
  264.32        2977.25           2530        1772.00      7723.48
  264.35        2977.50           2534        1768.00      7706.03
  264.38        2977.75           2537        1762.00      7679.86
  264.41        2978.00           2541        1693.00      7378.92
  264.44        2978.25           2544        1745.00      7605.72
  264.48        2978.50           2548        1688.00      7357.12
  264.51        2978.75           2552        1623.00      7073.63
  264.54        2979.00           2555        1677.00      7309.14
  264.57        2979.25           2559        1636.00      7130.33
  264.60        2979.50           2562        1593.00      6942.79
  264.63        2979.75           2566        1612.00      7025.65
  264.66        2980.00           2569        1640.00      7147.77
  264.69        2980.25           2573        1609.00      7012.57
  264.72        2980.50           2577        1595.00      6951.51
  264.75        2980.75           2580        1578.00      6877.37
  264.78        2981.00           2584        1587.00      6916.62
  264.81        2981.25           2587        1600.00      6973.32
  264.84        2981.50           2591        1562.00      6807.59
  264.87        2981.75           2594        1574.00      6859.93
  264.90        2982.00           2598        1530.00      6668.03
  264.93        2982.25           2601        1560.00      6798.87
  264.97        2982.50           2605        1555.00      6777.06
  265.00        2982.75           2609        1547.00      6742.17
  265.03        2983.00           2612        1549.00      6750.90
  265.06        2983.25           2616        1543.00      6724.73
  265.09        2983.50           2619        1534.00      6685.48
  265.12        2983.75           2623        1482.00      6458.70
  265.15        2984.00           2626        1525.00      6646.23
HS scan finished at 04:25:22
end
************************************************************
  HS Scan of (1) Internal mercury lamp
************************************************************
Integration time is 0.2294 seconds per sample
dh230219Reading 51.44 .94 3.29pr1000
************************************************************
Dead Time -------------------------  3.4E-08 
Number of Cycles Used -------------  4 
Starting Wavelength (Angstroms) ---  2950 
Final Wavelength (Angstoms) -------  2984 
Wavelength Increment (Angstroms) --  .25 
Filter Wheel #1 Position ---------- (1) Ground quartz diffuser (ND=2.32)
Filter Wheel #2 Position ---------- (1) Neutral Density 0.494



************************************************************
HS scan start time = 18:37:28
Dark Count =  1.6 


Time (GMT)  Wavelength (Ang)  Step Number  Raw Counts  Counts/Second

 1118.37        2950.00           2144        1492.00      6498.39
 1118.56        2950.25           2147        1488.00      6480.94
 1118.59        2950.50           2151        1502.00      6542.00
 1118.62        2950.75           2155        1463.00      6371.91
 1118.66        2951.00           2158        1500.00      6533.27
 1118.69        2951.25           2162        1491.00      6494.02
 1118.72        2951.50           2165        1515.00      6598.69
 1118.75        2951.75           2169        1529.00      6659.75
 1118.78        2952.00           2172        1508.00      6568.16
 1118.81        2952.25           2176        1500.00      6533.27
 1118.84        2952.50           2179        1494.00      6507.11
 1118.87        2952.75           2183        1518.00      6611.77
 1118.90        2953.00           2186        1546.00      6733.89
 1118.93        2953.25           2190        1559.00      6790.58
 1118.96        2953.50           2193        1591.00      6930.14
 1118.99        2953.75           2197        1552.00      6760.05
 1119.02        2954.00           2200        1538.00      6699.00
 1119.05        2954.25           2204        1568.00      6829.83
 1119.08        2954.50           2208        1608.00      7004.28
 1119.11        2954.75           2211        1573.00      6851.64
 1119.14        2955.00           2215        1563.00      6808.03
 1119.18        2955.25           2218        1628.00      7091.51
 1119.21        2955.50           2222        1610.00      7013.01
 1119.24        2955.75           2225        1588.00      6917.06
 1119.27        2956.00           2229        1645.00      7165.65
 1119.30        2956.25           2232        1598.00      6960.67
 1119.33        2956.50           2236        1635.00      7122.04
 1119.36        2956.75           2239        1657.00      7217.99
 1119.39        2957.00           2243        1645.00      7165.65
 1119.42        2957.25           2246        1642.00      7152.57
 1119.45        2957.50           2250        1712.00      7457.86
 1119.48        2957.75           2254        1733.00      7549.45
 1119.51        2958.00           2257        1749.00      7619.24
 1119.54        2958.25           2261        1730.00      7536.37
 1119.57        2958.50           2264        1744.00      7597.43
 1119.60        2958.75           2268        1771.00      7715.19
 1119.63        2959.00           2271        1816.00      7911.46
 1119.66        2959.25           2275        1846.00      8042.30
 1119.70        2959.50           2278        1868.00      8138.26
 1119.73        2959.75           2282        1870.00      8146.98
 1119.76        2960.00           2285        1870.00      8146.98
 1119.79        2960.25           2289        1892.00      8242.94
 1119.82        2960.50           2293        1955.00      8517.72
 1119.85        2960.75           2296        2008.00      8748.90
 1119.88        2961.00           2300        2074.00      9036.78
 1119.91        2961.25           2303        2431.00     10594.05
 1119.94        2961.50           2307        5304.00     23132.40
 1119.97        2961.75           2310       13453.00     58754.57
 1120.00        2962.00           2314       32021.00    140246.10
 1120.03        2962.25           2317       49211.00    216095.40
 1120.06        2962.50           2321       72310.00    318640.10
 1120.09        2962.75           2324       89904.00    397231.20
 1120.12        2963.00           2328      113538.00    503472.80
 1120.15        2963.25           2331      131269.00    583690.10
 1120.18        2963.50           2335      155481.00    693947.00
 1120.21        2963.75           2339      180284.00    807769.50
 1120.25        2964.00           2342      198418.00    891556.50
 1120.28        2964.25           2346      225606.00   1018093.00
 1120.31        2964.50           2349      244955.00   1108825.00
 1120.34        2964.75           2353      268760.00   1221241.00
 1120.37        2965.00           2356      284841.00   1297682.00
 1120.40        2965.25           2360      309337.00   1414910.00
 1120.43        2965.50           2363      327621.00   1503039.00
 1120.46        2965.75           2367      350885.00   1615961.00
 1120.49        2966.00           2370      367785.00   1698555.00
 1120.52        2966.25           2374      389016.00   1802999.00
 1120.55        2966.50           2378      406349.00   1888838.00
 1120.58        2966.75           2381      413953.00   1926660.00
 1120.61        2967.00           2385      417969.00   1946676.00
 1120.64        2967.25           2388      419008.00   1951859.00
 1120.67        2967.50           2392      419240.00   1953017.00
 1120.70        2967.75           2395      419098.00   1952308.00
 1120.73        2968.00           2399      415143.00   1932588.00
 1120.77        2968.25           2402      406187.00   1888033.00
 1120.80        2968.50           2406      387992.00   1797944.00
 1120.83        2968.75           2409      373112.00   1724689.00
 1120.86        2969.00           2413      349401.00   1608731.00
 1120.89        2969.25           2417      325079.00   1490754.00
 1120.92        2969.50           2420      307643.00   1406772.00
 1120.95        2969.75           2424      282213.00   1285162.00
 1120.98        2970.00           2427      261728.00   1187942.00
 1121.01        2970.25           2431      236454.00   1068892.00
 1121.04        2970.50           2434      219914.00    991509.80
 1121.07        2970.75           2438      196050.00    880587.80
 1121.10        2971.00           2441      175997.00    788032.30
 1121.13        2971.25           2445      149453.00    666418.40
 1121.16        2971.50           2449      123403.00    548048.80
 1121.19        2971.75           2452      105259.00    466168.20
 1121.22        2972.00           2456       83466.00    368424.10
 1121.25        2972.25           2459       65264.00    287284.20
 1121.29        2972.50           2463       38055.00    166825.90
 1121.32        2972.75           2466       20847.00     91151.28
 1121.35        2973.00           2470        6713.00     29285.47
 1121.38        2973.25           2473        3340.00     14559.95
 1121.41        2973.50           2477        2249.00      9800.13
 1121.44        2973.75           2481        2043.00      8901.56
 1121.47        2974.00           2484        2017.00      8788.15
 1121.50        2974.25           2488        1960.00      8539.53
 1121.53        2974.50           2491        1929.00      8404.32
 1121.56        2974.75           2495        1894.00      8251.66
 1121.59        2975.00           2498        1839.00      8011.77
 1121.62        2975.25           2502        1833.00      7985.60
 1121.65        2975.50           2505        1845.00      8037.94
 1121.68        2975.75           2509        1761.00      7671.57
 1121.71        2976.00           2512        1759.00      7662.85
 1121.74        2976.25           2516        1745.00      7601.79
 1121.77        2976.50           2520        1689.00      7357.55
 1121.81        2976.75           2523        1721.00      7497.12
 1121.84        2977.00           2527        1723.00      7505.84
 1121.87        2977.25           2530        1663.00      7244.16
 1121.90        2977.50           2534        1684.00      7335.75
 1121.93        2977.75           2537        1656.00      7213.63
 1121.96        2978.00           2541        1616.00      7039.17
 1121.99        2978.25           2544        1630.00      7100.23
 1122.02        2978.50           2548        1571.00      6842.92
 1122.05        2978.75           2552        1580.00      6882.17
 1122.08        2979.00           2555        1592.00      6934.50
 1122.11        2979.25           2559        1590.00      6925.78
 1122.14        2979.50           2562        1568.00      6829.83
 1122.17        2979.75           2566        1518.00      6611.77
 1122.20        2980.00           2569        1571.00      6842.92
 1122.23        2980.25           2573        1527.00      6651.02
 1122.26        2980.50           2577        1494.00      6507.11
 1122.29        2980.75           2580        1539.00      6703.36
 1122.33        2981.00           2584        1533.00      6677.19
 1122.36        2981.25           2587        1496.00      6515.83
 1122.39        2981.50           2591        1468.00      6393.72
 1122.42        2981.75           2594        1470.00      6402.44
 1122.45        2982.00           2598        1472.00      6411.16
 1122.48        2982.25           2601        1462.00      6367.55
 1122.51        2982.50           2605        1456.00      6341.39
 1122.54        2982.75           2609        1461.00      6363.19
 1122.58        2983.00           2612        1454.00      6332.66
 1122.61        2983.25           2616        1460.00      6358.83
 1122.64        2983.50           2619        1435.00      6249.80
 1122.67        2983.75           2623        1427.00      6214.91
 1122.70        2984.00           2626        1383.00      6023.03
HS scan finished at 18:42:55
end
