************************************************************
  HS Scan of 
************************************************************
Integration time is 0.2294 seconds per sample
dh260217Reading 51.44 .94 2.96pr1000
************************************************************
Dead Time -------------------------  3.4E-08 
Number of Cycles Used -------------  4 
Starting Wavelength (Angstroms) ---  2950 
Final Wavelength (Angstoms) -------  2984 
Wavelength Increment (Angstroms) --  .25 
Filter Wheel #1 Position ---------- (1) Ground quartz diffuser (ND=2.32)
Filter Wheel #2 Position ---------- (1) Neutral Density 0.494



************************************************************
HS scan start time = 04:11:55
Dark Count =  .7 


Time (GMT)  Wavelength (Ang)  Step Number  Raw Counts  Counts/Second

  252.81        2950.00           2144         859.00      3741.98
  253.01        2950.25           2147         838.00      3650.41
  253.04        2950.50           2151         824.00      3589.37
  253.07        2950.75           2155         842.00      3667.85
  253.10        2951.00           2158         859.00      3741.98
  253.13        2951.25           2162         875.00      3811.74
  253.16        2951.50           2165         860.00      3746.34
  253.19        2951.75           2169         884.00      3850.98
  253.22        2952.00           2172         855.00      3724.53
  253.25        2952.25           2176         867.00      3776.86
  253.28        2952.50           2179         862.00      3755.06
  253.31        2952.75           2183         860.00      3746.34
  253.34        2953.00           2186         903.00      3933.83
  253.37        2953.25           2190         876.00      3816.10
  253.40        2953.50           2193         901.00      3925.11
  253.43        2953.75           2197         905.00      3942.55
  253.47        2954.00           2200         910.00      3964.35
  253.50        2954.25           2204         899.00      3916.39
  253.53        2954.50           2208         905.00      3942.55
  253.56        2954.75           2211         881.00      3837.90
  253.59        2955.00           2215         914.00      3981.79
  253.62        2955.25           2218         892.00      3885.87
  253.65        2955.50           2222         932.00      4060.28
  253.68        2955.75           2225         935.00      4073.36
  253.71        2956.00           2229         918.00      3999.24
  253.74        2956.25           2232         943.00      4108.25
  253.77        2956.50           2236         963.00      4195.46
  253.80        2956.75           2239         942.00      4103.89
  253.83        2957.00           2243         945.00      4116.97
  253.86        2957.25           2246         946.00      4121.33
  253.89        2957.50           2250         959.00      4178.01
  253.92        2957.75           2254         978.00      4260.86
  253.95        2958.00           2257        1035.00      4509.41
  253.99        2958.25           2261        1010.00      4400.40
  254.02        2958.50           2264        1015.00      4422.20
  254.05        2958.75           2268        1012.00      4409.12
  254.08        2959.00           2271        1035.00      4509.41
  254.11        2959.25           2275        1080.00      4705.64
  254.14        2959.50           2278        1051.00      4579.18
  254.17        2959.75           2282        1085.00      4727.44
  254.20        2960.00           2285        1081.00      4710.00
  254.23        2960.25           2289        1096.00      4775.41
  254.26        2960.50           2293        1106.00      4819.01
  254.29        2960.75           2296        1178.00      5132.98
  254.32        2961.00           2300        1213.00      5285.61
  254.35        2961.25           2303        1405.00      6122.90
  254.38        2961.50           2307        3469.00     15126.78
  254.41        2961.75           2310        8830.00     38539.13
  254.44        2962.00           2314       21359.00     93401.21
  254.47        2962.25           2317       32248.00    141249.10
  254.51        2962.50           2321       45256.00    198613.50
  254.54        2962.75           2324       54403.00    239086.00
  254.57        2963.00           2328       67403.00    296800.00
  254.60        2963.25           2331       78444.00    345996.30
  254.63        2963.50           2335       93607.00    413830.30
  254.66        2963.75           2339      107781.00    477526.10
  254.69        2964.00           2342      117709.00    522307.30
  254.72        2964.25           2346      131586.00    585132.30
  254.75        2964.50           2349      142091.00    632872.20
  254.78        2964.75           2353      155313.00    693183.10
  254.81        2965.00           2356      165568.00    740133.40
  254.84        2965.25           2360      179769.00    805401.30
  254.87        2965.50           2363      190191.00    853488.30
  254.90        2965.75           2367      203734.00    916215.10
  254.93        2966.00           2370      212452.00    956738.40
  254.96        2966.25           2374      223896.00   1010106.00
  254.99        2966.50           2378      231815.00   1047150.00
  255.02        2966.75           2381      235507.00   1064454.00
  255.06        2967.00           2385      236719.00   1070139.00
  255.09        2967.25           2388      236128.00   1067367.00
  255.12        2967.50           2392      236272.00   1068042.00
  255.15        2967.75           2395      235406.00   1063980.00
  255.18        2968.00           2399      231857.00   1047347.00
  255.21        2968.25           2402      225987.00   1019878.00
  255.24        2968.50           2406      214943.00    968338.00
  255.27        2968.75           2409      204662.00    920523.30
  255.30        2969.00           2413      191262.00    858439.00
  255.33        2969.25           2417      178536.00    799722.60
  255.36        2969.50           2420      169344.00    757459.20
  255.39        2969.75           2424      157174.00    701692.00
  255.42        2970.00           2427      146100.00    651132.50
  255.45        2970.25           2431      131984.00    586938.10
  255.48        2970.50           2434      121146.00    537842.30
  255.51        2970.75           2438      106089.00    469907.90
  255.54        2971.00           2441       95676.00    423110.80
  255.58        2971.25           2445       82174.00    362653.90
  255.61        2971.50           2449       68911.00    303509.50
  255.64        2971.75           2452       58901.00    259029.40
  255.67        2972.00           2456       46099.00    202338.90
  255.70        2972.25           2459       36356.00    159340.90
  255.73        2972.50           2463       22648.00     99057.12
  255.76        2972.75           2466       13005.00     56797.90
  255.79        2973.00           2470        4072.00     17758.32
  255.82        2973.25           2473        1875.00      8172.72
  255.85        2973.50           2477        1291.00      5625.75
  255.88        2973.75           2481        1191.00      5189.67
  255.91        2974.00           2484        1173.00      5111.18
  255.94        2974.25           2488        1149.00      5006.52
  255.97        2974.50           2491        1122.00      4888.78
  256.00        2974.75           2495        1103.00      4805.93
  256.03        2975.00           2498        1074.00      4679.47
  256.06        2975.25           2502        1074.00      4679.47
  256.10        2975.50           2505        1034.00      4505.05
  256.13        2975.75           2509        1017.00      4430.92
  256.16        2976.00           2512        1018.00      4435.28
  256.19        2976.25           2516         997.00      4343.71
  256.22        2976.50           2520         984.00      4287.02
  256.25        2976.75           2523        1006.00      4382.95
  256.28        2977.00           2527         965.00      4204.18
  256.31        2977.25           2530         979.00      4265.22
  256.34        2977.50           2534         948.00      4130.05
  256.37        2977.75           2537         946.00      4121.33
  256.40        2978.00           2541         934.00      4069.00
  256.43        2978.25           2544         926.00      4034.12
  256.46        2978.50           2548         947.00      4125.69
  256.49        2978.75           2552         922.00      4016.68
  256.52        2979.00           2555         919.00      4003.60
  256.55        2979.25           2559         913.00      3977.43
  256.58        2979.50           2562         880.00      3833.54
  256.62        2979.75           2566         913.00      3977.43
  256.65        2980.00           2569         885.00      3855.34
  256.68        2980.25           2573         871.00      3794.30
  256.71        2980.50           2577         869.00      3785.58
  256.74        2980.75           2580         874.00      3807.38
  256.77        2981.00           2584         887.00      3864.06
  256.80        2981.25           2587         877.00      3820.46
  256.83        2981.50           2591         848.00      3694.01
  256.86        2981.75           2594         837.00      3646.05
  256.89        2982.00           2598         856.00      3728.90
  256.92        2982.25           2601         831.00      3619.89
  256.95        2982.50           2605         843.00      3672.21
  256.98        2982.75           2609         845.00      3680.93
  257.01        2983.00           2612         848.00      3694.01
  257.04        2983.25           2616         832.00      3624.25
  257.07        2983.50           2619         845.00      3680.93
  257.10        2983.75           2623         801.00      3489.08
  257.14        2984.00           2626         785.00      3419.32
HS scan finished at 04:17:21
end
************************************************************
  HS Scan of 
************************************************************
Integration time is 0.2294 seconds per sample
dh260217Reading 51.44 .94 3.01pr1000
************************************************************
Dead Time -------------------------  3.4E-08 
Number of Cycles Used -------------  4 
Starting Wavelength (Angstroms) ---  2950 
Final Wavelength (Angstoms) -------  2984 
Wavelength Increment (Angstroms) --  .25 
Filter Wheel #1 Position ---------- (1) Ground quartz diffuser (ND=2.32)
Filter Wheel #2 Position ---------- (1) Neutral Density 0.494



************************************************************
HS scan start time = 18:37:30
Dark Count =  .9 


Time (GMT)  Wavelength (Ang)  Step Number  Raw Counts  Counts/Second

 1118.39        2950.00           2144         694.00      3021.67
 1118.59        2950.25           2147         723.00      3148.11
 1118.62        2950.50           2151         728.00      3169.91
 1118.65        2950.75           2155         740.00      3222.24
 1118.68        2951.00           2158         724.00      3152.47
 1118.71        2951.25           2162         749.00      3261.48
 1118.74        2951.50           2165         729.00      3174.27
 1118.77        2951.75           2169         760.00      3309.44
 1118.80        2952.00           2172         736.00      3204.80
 1118.83        2952.25           2176         754.00      3283.28
 1118.86        2952.50           2179         771.00      3357.40
 1118.89        2952.75           2183         752.00      3274.56
 1118.92        2953.00           2186         769.00      3348.68
 1118.95        2953.25           2190         750.00      3265.84
 1118.98        2953.50           2193         745.00      3244.04
 1119.01        2953.75           2197         744.00      3239.68
 1119.05        2954.00           2200         750.00      3265.84
 1119.08        2954.25           2204         750.00      3265.84
 1119.11        2954.50           2208         762.00      3318.16
 1119.14        2954.75           2211         746.00      3248.40
 1119.17        2955.00           2215         747.00      3252.76
 1119.20        2955.25           2218         785.00      3418.44
 1119.23        2955.50           2222         782.00      3405.36
 1119.26        2955.75           2225         810.00      3527.45
 1119.29        2956.00           2229         793.00      3453.33
 1119.32        2956.25           2232         790.00      3440.25
 1119.35        2956.50           2236         787.00      3427.16
 1119.38        2956.75           2239         783.00      3409.72
 1119.41        2957.00           2243         804.00      3501.29
 1119.44        2957.25           2246         786.00      3422.80
 1119.47        2957.50           2250         792.00      3448.97
 1119.50        2957.75           2254         818.00      3562.33
 1119.53        2958.00           2257         824.00      3588.49
 1119.57        2958.25           2261         854.00      3719.30
 1119.60        2958.50           2264         848.00      3693.14
 1119.63        2958.75           2268         841.00      3662.62
 1119.66        2959.00           2271         890.00      3876.27
 1119.69        2959.25           2275         898.00      3911.16
 1119.72        2959.50           2278         868.00      3780.35
 1119.75        2959.75           2282         873.00      3802.15
 1119.78        2960.00           2285         876.00      3815.23
 1119.81        2960.25           2289         931.00      4055.05
 1119.84        2960.50           2293         936.00      4076.85
 1119.87        2960.75           2296         947.00      4124.82
 1119.90        2961.00           2300         975.00      4246.91
 1119.93        2961.25           2303        1121.00      4883.55
 1119.96        2961.50           2307        3084.00     13445.99
 1119.99        2961.75           2310        7429.00     32416.27
 1120.02        2962.00           2314       15323.00     66944.26
 1120.05        2962.25           2317       22729.00     99411.72
 1120.09        2962.50           2321       33004.00    144576.00
 1120.12        2962.75           2324       40508.00    177648.30
 1120.15        2963.00           2328       51122.00    224554.90
 1120.18        2963.25           2331       59803.00    263031.00
 1120.21        2963.50           2335       69528.00    306254.80
 1120.24        2963.75           2339       79095.00    348901.30
 1120.27        2964.00           2342       86941.00    383969.30
 1120.30        2964.25           2346       98101.00    433994.80
 1120.33        2964.50           2349      106537.00    471923.80
 1120.36        2964.75           2353      116508.00    516881.90
 1120.39        2965.00           2356      123430.00    548174.10
 1120.42        2965.25           2360      132944.00    591293.90
 1120.45        2965.50           2363      139927.00    623024.20
 1120.48        2965.75           2367      149946.00    668671.00
 1120.51        2966.00           2370      157750.00    704325.80
 1120.54        2966.25           2374      166703.00    745338.10
 1120.57        2966.50           2378      173970.00    778712.60
 1120.60        2966.75           2381      175989.00    787998.60
 1120.64        2967.00           2385      176920.00    792282.70
 1120.67        2967.25           2388      177102.00    793120.40
 1120.70        2967.50           2392      177096.00    793092.60
 1120.73        2967.75           2395      176806.00    791758.00
 1120.76        2968.00           2399      175658.00    786475.90
 1120.79        2968.25           2402      170872.00    764475.30
 1120.82        2968.50           2406      162697.00    726973.00
 1120.85        2968.75           2409      155307.00    693154.80
 1120.88        2969.00           2413      145495.00    648374.40
 1120.91        2969.25           2417      135867.00    604567.50
 1120.94        2969.50           2420      128318.00    570311.80
 1120.97        2969.75           2424      116981.00    519018.00
 1121.00        2970.00           2427      109767.00    486472.30
 1121.03        2970.25           2431       99529.00    440408.20
 1121.06        2970.50           2434       92585.00    409247.50
 1121.09        2970.75           2438       82740.00    365182.30
 1121.12        2971.00           2441       74431.00    328095.20
 1121.16        2971.25           2445       62184.00    273601.90
 1121.19        2971.50           2449       50485.00    221735.60
 1121.23        2971.75           2452       42705.00    187345.20
 1121.26        2972.00           2456       32733.00    143383.00
 1121.29        2972.25           2459       25592.00    111982.20
 1121.32        2972.50           2463       16247.00     70991.11
 1121.35        2972.75           2466        9415.00     41095.31
 1121.38        2973.00           2470        3207.00     13982.67
 1121.42        2973.25           2473        1373.00      5982.47
 1121.45        2973.50           2477        1017.00      4430.05
 1121.48        2973.75           2481         963.00      4194.58
 1121.51        2974.00           2484         924.00      4024.53
 1121.54        2974.25           2488         906.00      3946.04
 1121.57        2974.50           2491         923.00      4020.17
 1121.60        2974.75           2495         889.00      3871.91
 1121.63        2975.00           2498         900.00      3919.88
 1121.66        2975.25           2502         880.00      3832.67
 1121.69        2975.50           2505         850.00      3701.86
 1121.72        2975.75           2509         864.00      3762.90
 1121.75        2976.00           2512         823.00      3584.13
 1121.78        2976.25           2516         806.00      3510.01
 1121.81        2976.50           2520         822.00      3579.77
 1121.85        2976.75           2523         814.00      3544.89
 1121.88        2977.00           2527         824.00      3588.49
 1121.91        2977.25           2530         818.00      3562.33
 1121.94        2977.50           2534         783.00      3409.72
 1121.97        2977.75           2537         794.00      3457.69
 1122.01        2978.00           2541         800.00      3483.85
 1122.04        2978.25           2544         756.00      3292.00
 1122.07        2978.50           2548         791.00      3444.61
 1122.10        2978.75           2552         766.00      3335.60
 1122.13        2979.00           2555         738.00      3213.52
 1122.16        2979.25           2559         747.00      3252.76
 1122.19        2979.50           2562         771.00      3357.40
 1122.22        2979.75           2566         766.00      3335.60
 1122.25        2980.00           2569         781.00      3401.00
 1122.28        2980.25           2573         764.00      3326.88
 1122.31        2980.50           2577         732.00      3187.36
 1122.34        2980.75           2580         722.00      3143.75
 1122.37        2981.00           2584         716.00      3117.59
 1122.40        2981.25           2587         726.00      3161.19
 1122.43        2981.50           2591         691.00      3008.59
 1122.46        2981.75           2594         720.00      3135.03
 1122.49        2982.00           2598         698.00      3039.11
 1122.53        2982.25           2601         713.00      3104.51
 1122.56        2982.50           2605         723.00      3148.11
 1122.59        2982.75           2609         716.00      3117.59
 1122.62        2983.00           2612         709.00      3087.07
 1122.65        2983.25           2616         696.00      3030.39
 1122.68        2983.50           2619         725.00      3156.83
 1122.71        2983.75           2623         715.00      3113.23
 1122.74        2984.00           2626         713.00      3104.51
HS scan finished at 18:42:58
end
