************************************************************
  HS Scan of 
************************************************************
Integration time is 0.2294 seconds per sample
dh270217Reading 51.44 .94 2.76pr1000
************************************************************
Dead Time -------------------------  3.4E-08 
Number of Cycles Used -------------  4 
Starting Wavelength (Angstroms) ---  2950 
Final Wavelength (Angstoms) -------  2984 
Wavelength Increment (Angstroms) --  .25 
Filter Wheel #1 Position ---------- (1) Ground quartz diffuser (ND=2.32)
Filter Wheel #2 Position ---------- (1) Neutral Density 0.494



************************************************************
HS scan start time = 04:09:28
Dark Count =  .4 


Time (GMT)  Wavelength (Ang)  Step Number  Raw Counts  Counts/Second

  250.36        2950.00           2144         891.00      3882.81
  250.55        2950.25           2147         879.00      3830.49
  250.58        2950.50           2151         867.00      3778.17
  250.61        2950.75           2155         901.00      3926.42
  250.64        2951.00           2158         873.00      3804.33
  250.67        2951.25           2162         903.00      3935.14
  250.71        2951.50           2165         906.00      3948.22
  250.74        2951.75           2169         918.00      4000.54
  250.77        2952.00           2172         891.00      3882.81
  250.80        2952.25           2176         895.00      3900.26
  250.83        2952.50           2179         882.00      3843.57
  250.86        2952.75           2183         912.00      3974.38
  250.89        2953.00           2186         894.00      3895.90
  250.92        2953.25           2190         932.00      4061.59
  250.95        2953.50           2193         917.00      3996.18
  250.98        2953.75           2197         953.00      4153.16
  251.01        2954.00           2200         942.00      4105.19
  251.04        2954.25           2204         934.00      4070.31
  251.07        2954.50           2208         901.00      3926.42
  251.10        2954.75           2211         956.00      4166.24
  251.13        2955.00           2215         960.00      4183.68
  251.16        2955.25           2218         941.00      4100.83
  251.19        2955.50           2222         981.00      4275.25
  251.23        2955.75           2225         965.00      4205.48
  251.26        2956.00           2229         962.00      4192.40
  251.29        2956.25           2232         976.00      4253.45
  251.32        2956.50           2236         976.00      4253.45
  251.35        2956.75           2239        1013.00      4414.79
  251.38        2957.00           2243        1016.00      4427.87
  251.41        2957.25           2246         991.00      4318.86
  251.44        2957.50           2250        1028.00      4480.19
  251.47        2957.75           2254        1029.00      4484.55
  251.50        2958.00           2257        1049.00      4571.77
  251.53        2958.25           2261        1041.00      4536.88
  251.56        2958.50           2264        1049.00      4571.77
  251.59        2958.75           2268        1038.00      4523.80
  251.62        2959.00           2271        1074.00      4680.78
  251.65        2959.25           2275        1062.00      4628.45
  251.68        2959.50           2278        1107.00      4824.68
  251.71        2959.75           2282        1131.00      4929.34
  251.74        2960.00           2285        1119.00      4877.01
  251.78        2960.25           2289        1161.00      5060.16
  251.81        2960.50           2293        1180.00      5143.01
  251.84        2960.75           2296        1211.00      5278.19
  251.87        2961.00           2300        1293.00      5635.78
  251.90        2961.25           2303        1901.00      8287.43
  251.93        2961.50           2307        7026.00     30657.93
  251.96        2961.75           2310       14246.00     62230.92
  251.99        2962.00           2314       26345.00    115292.40
  252.02        2962.25           2317       36255.00    158897.10
  252.05        2962.50           2321       49808.00    218742.00
  252.08        2962.75           2324       59376.00    261138.30
  252.11        2963.00           2328       72348.00    318814.80
  252.14        2963.25           2331       82585.00    364491.80
  252.17        2963.50           2335       97793.00    432614.00
  252.21        2963.75           2339      112564.00    499084.50
  252.24        2964.00           2342      123053.00    546470.40
  252.27        2964.25           2346      135497.00    602888.90
  252.30        2964.50           2349      145075.00    646463.00
  252.33        2964.75           2353      158821.00    709228.00
  252.36        2965.00           2356      169214.00    756863.80
  252.39        2965.25           2360      183797.00    823968.80
  252.42        2965.50           2363      192597.00    864613.60
  252.45        2965.75           2367      204194.00    918351.90
  252.49        2966.00           2370      213164.00    960054.40
  252.52        2966.25           2374      226307.00   1021376.00
  252.55        2966.50           2378      234060.00   1057671.00
  252.58        2966.75           2381      236165.00   1067542.00
  252.61        2967.00           2385      237073.00   1071801.00
  252.64        2967.25           2388      236618.00   1069666.00
  252.67        2967.50           2392      237296.00   1072847.00
  252.70        2967.75           2395      236331.00   1068320.00
  252.73        2968.00           2399      231976.00   1047906.00
  252.76        2968.25           2402      224803.00   1014345.00
  252.79        2968.50           2406      213376.00    961041.30
  252.82        2968.75           2409      202922.00    912448.00
  252.85        2969.00           2413      187528.00    841187.40
  252.88        2969.25           2417      173592.00    776977.00
  252.91        2969.50           2420      163742.00    731763.70
  252.94        2969.75           2424      149885.00    668394.90
  252.97        2970.00           2427      139546.00    621293.50
  253.01        2970.25           2431      124117.00    551285.80
  253.04        2970.50           2434      113445.00    503058.70
  253.07        2970.75           2438       99781.00    441542.60
  253.10        2971.00           2441       89586.00    395812.40
  253.13        2971.25           2445       75565.00    333153.50
  253.16        2971.50           2449       61462.00    270397.80
  253.19        2971.75           2452       51058.00    224273.90
  253.22        2972.00           2456       38041.00    166769.50
  253.25        2972.25           2459       28612.00    125255.90
  253.28        2972.50           2463       14937.00     65256.23
  253.31        2972.75           2466        7008.00     30579.29
  253.34        2973.00           2470        2308.00     10062.73
  253.37        2973.25           2473        1515.00      6603.92
  253.40        2973.50           2477        1281.00      5583.45
  253.43        2973.75           2481        1205.00      5252.03
  253.46        2974.00           2484        1145.00      4990.38
  253.49        2974.25           2488        1138.00      4959.86
  253.53        2974.50           2491        1120.00      4881.37
  253.56        2974.75           2495        1124.00      4898.81
  253.59        2975.00           2498        1096.00      4776.71
  253.62        2975.25           2502        1082.00      4715.66
  253.65        2975.50           2505        1051.00      4580.49
  253.68        2975.75           2509        1033.00      4502.00
  253.71        2976.00           2512        1037.00      4519.44
  253.74        2976.25           2516        1033.00      4502.00
  253.77        2976.50           2520        1017.00      4432.23
  253.80        2976.75           2523        1056.00      4602.29
  253.83        2977.00           2527         994.00      4331.94
  253.86        2977.25           2530         974.00      4244.73
  253.89        2977.50           2534         969.00      4222.93
  253.93        2977.75           2537         980.00      4270.89
  253.97        2978.00           2541         978.00      4262.17
  254.00        2978.25           2544         998.00      4349.38
  254.03        2978.50           2548         971.00      4231.65
  254.06        2978.75           2552         933.00      4065.95
  254.09        2979.00           2555         945.00      4118.28
  254.12        2979.25           2559         937.00      4083.39
  254.15        2979.50           2562         929.00      4048.51
  254.18        2979.75           2566         902.00      3930.78
  254.21        2980.00           2569         903.00      3935.14
  254.24        2980.25           2573         926.00      4035.43
  254.27        2980.50           2577         926.00      4035.43
  254.30        2980.75           2580         889.00      3874.09
  254.33        2981.00           2584         921.00      4013.63
  254.36        2981.25           2587         889.00      3874.09
  254.39        2981.50           2591         878.00      3826.13
  254.43        2981.75           2594         879.00      3830.49
  254.46        2982.00           2598         848.00      3695.32
  254.49        2982.25           2601         905.00      3943.86
  254.52        2982.50           2605         862.00      3756.36
  254.55        2982.75           2609         866.00      3773.81
  254.58        2983.00           2612         874.00      3808.69
  254.61        2983.25           2616         847.00      3690.96
  254.64        2983.50           2619         856.00      3730.20
  254.67        2983.75           2623         839.00      3656.08
  254.70        2984.00           2626         838.00      3651.72
HS scan finished at 04:14:55
end
************************************************************
  HS Scan of 
************************************************************
Integration time is 0.2294 seconds per sample
dh270217Reading 51.44 .94 2.7pr1000
************************************************************
Dead Time -------------------------  3.4E-08 
Number of Cycles Used -------------  4 
Starting Wavelength (Angstroms) ---  2950 
Final Wavelength (Angstoms) -------  2984 
Wavelength Increment (Angstroms) --  .25 
Filter Wheel #1 Position ---------- (1) Ground quartz diffuser (ND=2.32)
Filter Wheel #2 Position ---------- (1) Neutral Density 0.494



************************************************************
HS scan start time = 18:37:25
Dark Count =  .5 


Time (GMT)  Wavelength (Ang)  Step Number  Raw Counts  Counts/Second

 1118.32        2950.00           2144         842.00      3668.72
 1118.52        2950.25           2147         845.00      3681.80
 1118.55        2950.50           2151         843.00      3673.08
 1118.58        2950.75           2155         845.00      3681.80
 1118.61        2951.00           2158         837.00      3646.92
 1118.64        2951.25           2162         871.00      3795.17
 1118.67        2951.50           2165         857.00      3734.13
 1118.70        2951.75           2169         869.00      3786.45
 1118.73        2952.00           2172         879.00      3830.05
 1118.76        2952.25           2176         851.00      3707.97
 1118.79        2952.50           2179         868.00      3782.09
 1118.82        2952.75           2183         877.00      3821.33
 1118.85        2953.00           2186         856.00      3729.77
 1118.88        2953.25           2190         860.00      3747.21
 1118.91        2953.50           2193         868.00      3782.09
 1118.94        2953.75           2197         865.00      3769.01
 1118.97        2954.00           2200         865.00      3769.01
 1119.00        2954.25           2204         880.00      3834.41
 1119.04        2954.50           2208         885.00      3856.22
 1119.07        2954.75           2211         877.00      3821.33
 1119.10        2955.00           2215         918.00      4000.11
 1119.13        2955.25           2218         875.00      3812.61
 1119.16        2955.50           2222         899.00      3917.26
 1119.19        2955.75           2225         905.00      3943.42
 1119.22        2956.00           2229         934.00      4069.87
 1119.25        2956.25           2232         912.00      3973.95
 1119.28        2956.50           2236         916.00      3991.39
 1119.31        2956.75           2239         935.00      4074.23
 1119.34        2957.00           2243         929.00      4048.07
 1119.37        2957.25           2246         954.00      4157.08
 1119.40        2957.50           2250         949.00      4135.28
 1119.43        2957.75           2254         916.00      3991.39
 1119.46        2958.00           2257         965.00      4205.05
 1119.49        2958.25           2261         961.00      4187.61
 1119.52        2958.50           2264         985.00      4292.26
 1119.55        2958.75           2268         949.00      4135.28
 1119.59        2959.00           2271         965.00      4205.05
 1119.62        2959.25           2275         987.00      4300.98
 1119.65        2959.50           2278         992.00      4322.78
 1119.68        2959.75           2282        1001.00      4362.02
 1119.71        2960.00           2285        1024.00      4462.32
 1119.74        2960.25           2289        1026.00      4471.04
 1119.77        2960.50           2293        1037.00      4519.00
 1119.80        2960.75           2296        1092.00      4758.83
 1119.83        2961.00           2300        1082.00      4715.23
 1119.86        2961.25           2303        1193.00      5199.26
 1119.89        2961.50           2307        2808.00     12243.54
 1119.92        2961.75           2310        6791.00     29630.97
 1119.95        2962.00           2314       14758.00     64472.03
 1119.98        2962.25           2317       21715.00     94963.93
 1120.01        2962.50           2321       31814.00    139339.90
 1120.04        2962.75           2324       40099.00    175845.50
 1120.07        2963.00           2328       51031.00    224153.90
 1120.11        2963.25           2331       59761.00    262846.40
 1120.14        2963.50           2335       70237.00    309412.80
 1120.17        2963.75           2339       80583.00    355547.30
 1120.20        2964.00           2342       89287.00    394473.00
 1120.23        2964.25           2346      100969.00    446880.20
 1120.26        2964.50           2349      108425.00    480427.70
 1120.29        2964.75           2353      118634.00    526487.50
 1120.32        2965.00           2356      126280.00    561079.50
 1120.35        2965.25           2360      136016.00    605246.20
 1120.38        2965.50           2363      143665.00    640039.60
 1120.41        2965.75           2367      153745.00    686018.80
 1120.44        2966.00           2370      161203.00    720131.60
 1120.47        2966.25           2374      171122.00    765625.50
 1120.50        2966.50           2378      177408.00    794530.60
 1120.53        2966.75           2381      179832.00    805692.30
 1120.56        2967.00           2385      180478.00    808668.40
 1120.59        2967.25           2388      181336.00    812622.10
 1120.63        2967.50           2392      180460.00    808585.50
 1120.66        2967.75           2395      180618.00    809313.50
 1120.69        2968.00           2399      178616.00    800091.90
 1120.72        2968.25           2402      173282.00    775551.40
 1120.75        2968.50           2406      164098.00    733394.90
 1120.78        2968.75           2409      157867.00    704862.80
 1120.81        2969.00           2413      148718.00    663070.30
 1120.84        2969.25           2417      139943.00    623098.80
 1120.87        2969.50           2420      131448.00    584507.10
 1120.90        2969.75           2424      119924.00    532318.00
 1120.93        2970.00           2427      111429.00    493965.70
 1120.96        2970.25           2431      100437.00    444489.50
 1120.99        2970.50           2434       92887.00    410603.00
 1121.02        2970.75           2438       82434.00    363816.60
 1121.05        2971.00           2441       73885.00    325663.20
 1121.08        2971.25           2445       62125.00    273341.60
 1121.11        2971.50           2449       50531.00    221940.90
 1121.15        2971.75           2452       42749.00    187541.20
 1121.18        2972.00           2456       32851.00    143904.20
 1121.21        2972.25           2459       25168.00    110121.70
 1121.24        2972.50           2463       15605.00     68180.99
 1121.27        2972.75           2466        8893.00     38815.36
 1121.31        2973.00           2470        3261.00     14220.04
 1121.34        2973.25           2473        1667.00      7266.40
 1121.37        2973.50           2477        1122.00      4889.65
 1121.41        2973.75           2481        1073.00      4675.98
 1121.44        2974.00           2484        1048.00      4566.97
 1121.47        2974.25           2488        1038.00      4523.36
 1121.50        2974.50           2491        1005.00      4379.47
 1121.53        2974.75           2495        1003.00      4370.75
 1121.56        2975.00           2498        1020.00      4444.87
 1121.59        2975.25           2502        1018.00      4436.15
 1121.62        2975.50           2505         969.00      4222.49
 1121.65        2975.75           2509         923.00      4021.91
 1121.68        2976.00           2512         957.00      4170.16
 1121.71        2976.25           2516         949.00      4135.28
 1121.74        2976.50           2520         952.00      4148.36
 1121.77        2976.75           2523         939.00      4091.68
 1121.80        2977.00           2527         956.00      4165.80
 1121.83        2977.25           2530         906.00      3947.78
 1121.86        2977.50           2534         905.00      3943.42
 1121.89        2977.75           2537         883.00      3847.50
 1121.92        2978.00           2541         909.00      3960.86
 1121.96        2978.25           2544         887.00      3864.94
 1121.99        2978.50           2548         863.00      3760.29
 1122.02        2978.75           2552         887.00      3864.94
 1122.05        2979.00           2555         875.00      3812.61
 1122.08        2979.25           2559         872.00      3799.53
 1122.11        2979.50           2562         866.00      3773.37
 1122.14        2979.75           2566         854.00      3721.05
 1122.17        2980.00           2569         845.00      3681.80
 1122.20        2980.25           2573         832.00      3625.12
 1122.23        2980.50           2577         853.00      3716.69
 1122.26        2980.75           2580         858.00      3738.49
 1122.29        2981.00           2584         838.00      3651.28
 1122.32        2981.25           2587         844.00      3677.44
 1122.35        2981.50           2591         800.00      3485.59
 1122.38        2981.75           2594         814.00      3546.64
 1122.41        2982.00           2598         802.00      3494.31
 1122.44        2982.25           2601         815.00      3551.00
 1122.48        2982.50           2605         815.00      3551.00
 1122.51        2982.75           2609         790.00      3441.99
 1122.54        2983.00           2612         797.00      3472.51
 1122.57        2983.25           2616         805.00      3507.39
 1122.60        2983.50           2619         811.00      3533.55
 1122.63        2983.75           2623         810.00      3529.19
 1122.66        2984.00           2626         839.00      3655.64
HS scan finished at 18:42:53
end
