************************************************************
  HS Scan of (1) Internal mercury lamp
************************************************************
Integration time is 0.2294 seconds per sample
dh270219Reading 51.44 .94 2.68pr1000
************************************************************
Dead Time -------------------------  3.4E-08 
Number of Cycles Used -------------  4 
Starting Wavelength (Angstroms) ---  2950 
Final Wavelength (Angstoms) -------  2984 
Wavelength Increment (Angstroms) --  .25 
Filter Wheel #1 Position ---------- (1) Ground quartz diffuser (ND=2.32)
Filter Wheel #2 Position ---------- (1) Neutral Density 0.494



************************************************************
HS scan start time = 04:10:43
Dark Count =  .4 


Time (GMT)  Wavelength (Ang)  Step Number  Raw Counts  Counts/Second

  251.61        2950.00           2144        1639.00      7144.72
  251.81        2950.25           2147        1642.00      7157.80
  251.84        2950.50           2151        1632.00      7114.19
  251.87        2950.75           2155        1652.00      7201.41
  251.90        2951.00           2158        1709.00      7450.01
  251.93        2951.25           2162        1700.00      7410.76
  251.96        2951.50           2165        1644.00      7166.52
  251.99        2951.75           2169        1713.00      7467.46
  252.02        2952.00           2172        1674.00      7297.36
  252.05        2952.25           2176        1686.00      7349.70
  252.08        2952.50           2179        1670.00      7279.92
  252.11        2952.75           2183        1678.00      7314.81
  252.14        2953.00           2186        1694.00      7384.59
  252.17        2953.25           2190        1685.00      7345.34
  252.20        2953.50           2193        1710.00      7454.37
  252.23        2953.75           2197        1706.00      7436.93
  252.27        2954.00           2200        1732.00      7550.33
  252.30        2954.25           2204        1691.00      7371.51
  252.33        2954.50           2208        1730.00      7541.60
  252.36        2954.75           2211        1758.00      7663.72
  252.39        2955.00           2215        1751.00      7633.19
  252.42        2955.25           2218        1788.00      7794.57
  252.45        2955.50           2222        1754.00      7646.28
  252.48        2955.75           2225        1742.00      7593.94
  252.51        2956.00           2229        1787.00      7790.21
  252.54        2956.25           2232        1763.00      7685.53
  252.57        2956.50           2236        1827.00      7964.67
  252.60        2956.75           2239        1782.00      7768.40
  252.63        2957.00           2243        1802.00      7855.63
  252.66        2957.25           2246        1823.00      7947.22
  252.69        2957.50           2250        1812.00      7899.24
  252.72        2957.75           2254        1878.00      8187.11
  252.76        2958.00           2257        1861.00      8112.96
  252.79        2958.25           2261        1887.00      8226.36
  252.82        2958.50           2264        1923.00      8383.38
  252.85        2958.75           2268        1933.00      8427.00
  252.88        2959.00           2271        1908.00      8317.96
  252.91        2959.25           2275        1960.00      8544.77
  252.94        2959.50           2278        1961.00      8549.13
  252.97        2959.75           2282        1963.00      8557.85
  253.00        2960.00           2285        2006.00      8745.41
  253.03        2960.25           2289        2038.00      8884.98
  253.06        2960.50           2293        2043.00      8906.80
  253.09        2960.75           2296        2104.00      9172.87
  253.12        2961.00           2300        2199.00      9587.26
  253.15        2961.25           2303        2669.00     11637.56
  253.18        2961.50           2307        7764.00     33882.08
  253.21        2961.75           2310       17559.00     76741.38
  253.24        2962.00           2314       34816.00    152557.40
  253.28        2962.25           2317       50465.00    221649.30
  253.31        2962.50           2321       71403.00    314605.40
  253.34        2962.75           2324       87866.00    388111.40
  253.37        2963.00           2328      110689.00    490630.10
  253.40        2963.25           2331      127487.00    566548.10
  253.43        2963.50           2335      150347.00    670503.10
  253.46        2963.75           2339      174001.00    778857.40
  253.49        2964.00           2342      192666.00    864932.90
  253.52        2964.25           2346      218642.00    985581.40
  253.55        2964.50           2349      235821.00   1065928.00
  253.58        2964.75           2353      257593.00   1168403.00
  253.61        2965.00           2356      272057.00   1236886.00
  253.64        2965.25           2360      293415.00   1338611.00
  253.67        2965.50           2363      311780.00   1426660.00
  253.70        2965.75           2367      334231.00   1535038.00
  253.73        2966.00           2370      349836.00   1610855.00
  253.76        2966.25           2374      369326.00   1706116.00
  253.80        2966.50           2378      383996.00   1778240.00
  253.83        2966.75           2381      389485.00   1805320.00
  253.86        2967.00           2385      392720.00   1821305.00
  253.89        2967.25           2388      393109.00   1823228.00
  253.92        2967.50           2392      393179.00   1823574.00
  253.95        2967.75           2395      391518.00   1815363.00
  253.98        2968.00           2399      385581.00   1786054.00
  254.01        2968.25           2402      374455.00   1731291.00
  254.04        2968.50           2406      356033.00   1641075.00
  254.07        2968.75           2409      342132.00   1573375.00
  254.10        2969.00           2413      320678.00   1469515.00
  254.13        2969.25           2417      297127.00   1356364.00
  254.16        2969.50           2420      279728.00   1273339.00
  254.19        2969.75           2424      256266.00   1162136.00
  254.22        2970.00           2427      239011.00   1080897.00
  254.25        2970.25           2431      215776.00    972220.40
  254.28        2970.50           2434      199750.00    897735.60
  254.32        2970.75           2438      174806.00    782559.30
  254.35        2971.00           2441      155694.00    694926.10
  254.38        2971.25           2445      131265.00    583677.30
  254.41        2971.50           2449      108147.00    479175.90
  254.44        2971.75           2452       90985.00    402079.20
  254.47        2972.00           2456       68959.00    303724.50
  254.50        2972.25           2459       53988.00    237248.70
  254.53        2972.50           2463       31768.00    139137.90
  254.56        2972.75           2466       16715.00     73043.43
  254.59        2973.00           2470        5757.00     25115.60
  254.62        2973.25           2473        3143.00     13705.60
  254.65        2973.50           2477        2260.00      9853.35
  254.68        2973.75           2481        2137.00      9316.81
  254.71        2974.00           2484        2178.00      9495.66
  254.74        2974.25           2488        2011.00      8767.22
  254.79        2974.50           2491        2054.00      8954.78
  254.82        2974.75           2495        2006.00      8745.41
  254.85        2975.00           2498        1966.00      8570.94
  254.88        2975.25           2502        1957.00      8531.68
  254.91        2975.50           2505        1930.00      8413.92
  254.94        2975.75           2509        1906.00      8309.23
  254.97        2976.00           2512        1892.00      8248.17
  255.00        2976.25           2516        1868.00      8143.49
  255.03        2976.50           2520        1803.00      7859.99
  255.06        2976.75           2523        1853.00      8078.07
  255.09        2977.00           2527        1819.00      7929.78
  255.13        2977.25           2530        1763.00      7685.53
  255.16        2977.50           2534        1769.00      7711.70
  255.19        2977.75           2537        1766.00      7698.61
  255.22        2978.00           2541        1692.00      7375.87
  255.25        2978.25           2544        1732.00      7550.33
  255.28        2978.50           2548        1711.00      7458.74
  255.31        2978.75           2552        1703.00      7423.84
  255.34        2979.00           2555        1657.00      7223.22
  255.37        2979.25           2559        1717.00      7484.90
  255.40        2979.50           2562        1664.00      7253.75
  255.43        2979.75           2566        1680.00      7323.53
  255.46        2980.00           2569        1650.00      7192.69
  255.49        2980.25           2573        1643.00      7162.16
  255.52        2980.50           2577        1628.00      7096.74
  255.55        2980.75           2580        1581.00      6891.76
  255.58        2981.00           2584        1616.00      7044.41
  255.61        2981.25           2587        1625.00      7083.66
  255.65        2981.50           2591        1554.00      6774.01
  255.68        2981.75           2594        1578.00      6878.68
  255.71        2982.00           2598        1577.00      6874.32
  255.74        2982.25           2601        1621.00      7066.21
  255.77        2982.50           2605        1562.00      6808.90
  255.80        2982.75           2609        1594.00      6948.46
  255.83        2983.00           2612        1594.00      6948.46
  255.86        2983.25           2616        1575.00      6865.60
  255.89        2983.50           2619        1582.00      6896.12
  255.92        2983.75           2623        1512.00      6590.84
  255.95        2984.00           2626        1531.00      6673.70
HS scan finished at 04:16:10
end
************************************************************
  HS Scan of (1) Internal mercury lamp
************************************************************
Integration time is 0.2294 seconds per sample
dh270219Reading 51.44 .94 3.41pr1000
************************************************************
Dead Time -------------------------  3.4E-08 
Number of Cycles Used -------------  4 
Starting Wavelength (Angstroms) ---  2950 
Final Wavelength (Angstoms) -------  2984 
Wavelength Increment (Angstroms) --  .25 
Filter Wheel #1 Position ---------- (1) Ground quartz diffuser (ND=2.32)
Filter Wheel #2 Position ---------- (1) Neutral Density 0.494



************************************************************
HS scan start time = 18:37:28
Dark Count =  3 


Time (GMT)  Wavelength (Ang)  Step Number  Raw Counts  Counts/Second

 1118.36        2950.00           2144        1476.00      6422.50
 1118.55        2950.25           2147        1435.00      6243.70
 1118.58        2950.50           2151        1531.00      6662.36
 1118.61        2950.75           2155        1437.00      6252.42
 1118.64        2951.00           2158        1497.00      6514.08
 1118.67        2951.25           2162        1493.00      6496.64
 1118.70        2951.50           2165        1490.00      6483.56
 1118.74        2951.75           2169        1479.00      6435.58
 1118.78        2952.00           2172        1474.00      6413.78
 1118.81        2952.25           2176        1489.00      6479.20
 1118.84        2952.50           2179        1484.00      6457.39
 1118.87        2952.75           2183        1457.00      6339.64
 1118.90        2953.00           2186        1501.00      6531.53
 1118.93        2953.25           2190        1497.00      6514.08
 1118.96        2953.50           2193        1504.00      6544.61
 1118.99        2953.75           2197        1514.00      6588.22
 1119.02        2954.00           2200        1512.00      6579.50
 1119.05        2954.25           2204        1531.00      6662.36
 1119.08        2954.50           2208        1542.00      6710.34
 1119.12        2954.75           2211        1566.00      6815.01
 1119.15        2955.00           2215        1548.00      6736.50
 1119.18        2955.25           2218        1563.00      6801.92
 1119.21        2955.50           2222        1590.00      6919.68
 1119.24        2955.75           2225        1610.00      7006.90
 1119.27        2956.00           2229        1614.00      7024.35
 1119.31        2956.25           2232        1571.00      6836.81
 1119.34        2956.50           2236        1573.00      6845.53
 1119.38        2956.75           2239        1616.00      7033.07
 1119.41        2957.00           2243        1648.00      7172.63
 1119.44        2957.25           2246        1646.00      7163.91
 1119.47        2957.50           2250        1695.00      7377.61
 1119.50        2957.75           2254        1696.00      7381.97
 1119.53        2958.00           2257        1718.00      7477.93
 1119.56        2958.25           2261        1718.00      7477.93
 1119.59        2958.50           2264        1732.00      7538.99
 1119.62        2958.75           2268        1770.00      7704.72
 1119.65        2959.00           2271        1829.00      7962.05
 1119.68        2959.25           2275        1803.00      7848.65
 1119.71        2959.50           2278        1793.00      7805.04
 1119.74        2959.75           2282        1856.00      8079.81
 1119.77        2960.00           2285        1903.00      8284.81
 1119.80        2960.25           2289        1908.00      8306.62
 1119.83        2960.50           2293        1940.00      8446.19
 1119.86        2960.75           2296        1977.00      8607.58
 1119.90        2961.00           2300        2101.00      9148.44
 1119.93        2961.25           2303        2425.00     10561.77
 1119.96        2961.50           2307        6608.00     28820.73
 1119.99        2961.75           2310       16385.00     71586.41
 1120.02        2962.00           2314       35014.00    153418.10
 1120.05        2962.25           2317       51729.00    227232.70
 1120.08        2962.50           2321       76054.00    335322.70
 1120.11        2962.75           2324       95608.00    422795.30
 1120.14        2963.00           2328      120346.00    534214.50
 1120.17        2963.25           2331      138146.00    614915.40
 1120.20        2963.50           2335      162780.00    727343.60
 1120.23        2963.75           2339      188037.00    843526.00
 1120.26        2964.00           2342      207545.00    933904.80
 1120.29        2964.25           2346      235101.00   1062539.00
 1120.32        2964.50           2349      254783.00   1155124.00
 1120.35        2964.75           2353      278616.00   1268037.00
 1120.38        2965.00           2356      295900.00   1350481.00
 1120.42        2965.25           2360      321252.00   1472272.00
 1120.45        2965.50           2363      339496.00   1560561.00
 1120.48        2965.75           2367      363444.00   1677287.00
 1120.51        2966.00           2370      382163.00   1769195.00
 1120.54        2966.25           2374      402577.00   1870106.00
 1120.57        2966.50           2378      418980.00   1951712.00
 1120.60        2966.75           2381      428798.00   2000783.00
 1120.63        2967.00           2385      432661.00   2020136.00
 1120.66        2967.25           2388      433144.00   2022558.00
 1120.69        2967.50           2392      433439.00   2024037.00
 1120.72        2967.75           2395      433193.00   2022804.00
 1120.75        2968.00           2399      428855.00   2001068.00
 1120.78        2968.25           2402      418668.00   1950156.00
 1120.81        2968.50           2406      398354.00   1849172.00
 1120.84        2968.75           2409      383303.00   1774812.00
 1120.87        2969.00           2413      360601.00   1663380.00
 1120.90        2969.25           2417      334293.00   1535326.00
 1120.94        2969.50           2420      314662.00   1440514.00
 1120.97        2969.75           2424      288286.00   1314104.00
 1121.00        2970.00           2427      270299.00   1228533.00
 1121.03        2970.25           2431      246091.00   1114163.00
 1121.06        2970.50           2434      228029.00   1029417.00
 1121.09        2970.75           2438      201432.00    905523.10
 1121.12        2971.00           2441      178369.00    798943.10
 1121.15        2971.25           2445      151782.00    677041.80
 1121.18        2971.50           2449      126593.00    562486.00
 1121.21        2971.75           2452      107736.00    477313.10
 1121.24        2972.00           2456       83811.00    369960.10
 1121.27        2972.25           2459       65120.00    286637.80
 1121.30        2972.50           2463       38162.00    167291.50
 1121.33        2972.75           2466       20703.00     90513.52
 1121.36        2973.00           2470        6717.00     29296.83
 1121.39        2973.25           2473        3282.00     14300.76
 1121.42        2973.50           2477        2239.00      9750.40
 1121.45        2973.75           2481        2069.00      9008.86
 1121.49        2974.00           2484        2034.00      8856.20
 1121.52        2974.25           2488        1981.00      8625.02
 1121.55        2974.50           2491        1922.00      8367.68
 1121.58        2974.75           2495        1857.00      8084.18
 1121.61        2975.00           2498        1848.00      8044.92
 1121.64        2975.25           2502        1802.00      7844.29
 1121.67        2975.50           2505        1837.00      7996.94
 1121.70        2975.75           2509        1810.00      7879.18
 1121.73        2976.00           2512        1777.00      7735.25
 1121.76        2976.25           2516        1732.00      7538.99
 1121.80        2976.50           2520        1736.00      7556.43
 1121.84        2976.75           2523        1685.00      7334.00
 1121.87        2977.00           2527        1680.00      7312.19
 1121.90        2977.25           2530        1666.00      7251.13
 1121.93        2977.50           2534        1666.00      7251.13
 1121.96        2977.75           2537        1618.00      7041.79
 1121.99        2978.00           2541        1623.00      7063.60
 1122.02        2978.25           2544        1614.00      7024.35
 1122.05        2978.50           2548        1566.00      6815.01
 1122.08        2978.75           2552        1618.00      7041.79
 1122.11        2979.00           2555        1556.00      6771.39
 1122.14        2979.25           2559        1582.00      6884.79
 1122.17        2979.50           2562        1508.00      6562.06
 1122.20        2979.75           2566        1528.00      6649.28
 1122.23        2980.00           2569        1555.00      6767.03
 1122.27        2980.25           2573        1527.00      6644.92
 1122.30        2980.50           2577        1476.00      6422.50
 1122.33        2980.75           2580        1483.00      6453.03
 1122.36        2981.00           2584        1459.00      6348.36
 1122.39        2981.25           2587        1459.00      6348.36
 1122.42        2981.50           2591        1444.00      6282.95
 1122.45        2981.75           2594        1462.00      6361.45
 1122.48        2982.00           2598        1498.00      6518.45
 1122.51        2982.25           2601        1454.00      6326.56
 1122.54        2982.50           2605        1438.00      6256.78
 1122.57        2982.75           2609        1449.00      6304.75
 1122.60        2983.00           2612        1423.00      6191.36
 1122.63        2983.25           2616        1428.00      6213.17
 1122.66        2983.50           2619        1438.00      6256.78
 1122.69        2983.75           2623        1441.00      6269.86
 1122.72        2984.00           2626        1356.00      5899.18
HS scan finished at 18:42:57
end
