************************************************************
  HS Scan of 
************************************************************
Integration time is 0.2294 seconds per sample
dh240217Reading 51.44 .94 2.47pr1000
************************************************************
Dead Time -------------------------  3.4E-08 
Number of Cycles Used -------------  4 
Starting Wavelength (Angstroms) ---  2950 
Final Wavelength (Angstoms) -------  2984 
Wavelength Increment (Angstroms) --  .25 
Filter Wheel #1 Position ---------- (1) Ground quartz diffuser (ND=2.32)
Filter Wheel #2 Position ---------- (1) Neutral Density 0.494



************************************************************
HS scan start time = 04:19:34
Dark Count =  .4 


Time (GMT)  Wavelength (Ang)  Step Number  Raw Counts  Counts/Second

  260.46        2950.00           2144         907.00      3952.58
  260.65        2950.25           2147         878.00      3826.13
  260.68        2950.50           2151         902.00      3930.78
  260.71        2950.75           2155         885.00      3856.65
  260.74        2951.00           2158         906.00      3948.22
  260.77        2951.25           2162         895.00      3900.26
  260.80        2951.50           2165         916.00      3991.82
  260.83        2951.75           2169         918.00      4000.54
  260.87        2952.00           2172         917.00      3996.18
  260.90        2952.25           2176         881.00      3839.21
  260.93        2952.50           2179         903.00      3935.14
  260.96        2952.75           2183         853.00      3717.12
  260.99        2953.00           2186         907.00      3952.58
  261.02        2953.25           2190         898.00      3913.34
  261.05        2953.50           2193         913.00      3978.74
  261.08        2953.75           2197         936.00      4079.03
  261.11        2954.00           2200         922.00      4017.99
  261.14        2954.25           2204         916.00      3991.82
  261.17        2954.50           2208         933.00      4065.95
  261.20        2954.75           2211         928.00      4044.15
  261.23        2955.00           2215         931.00      4057.23
  261.26        2955.25           2218         916.00      3991.82
  261.29        2955.50           2222         928.00      4044.15
  261.32        2955.75           2225         945.00      4118.28
  261.35        2956.00           2229         975.00      4249.09
  261.39        2956.25           2232         952.00      4148.80
  261.42        2956.50           2236         967.00      4214.20
  261.45        2956.75           2239         976.00      4253.45
  261.48        2957.00           2243        1007.00      4388.62
  261.51        2957.25           2246         982.00      4279.61
  261.54        2957.50           2250         980.00      4270.89
  261.57        2957.75           2254         992.00      4323.22
  261.60        2958.00           2257         992.00      4323.22
  261.63        2958.25           2261        1011.00      4406.07
  261.66        2958.50           2264        1033.00      4502.00
  261.69        2958.75           2268        1034.00      4506.36
  261.72        2959.00           2271        1055.00      4597.93
  261.75        2959.25           2275        1020.00      4445.31
  261.78        2959.50           2278        1076.00      4689.50
  261.81        2959.75           2282        1090.00      4750.55
  261.84        2960.00           2285        1082.00      4715.66
  261.87        2960.25           2289        1102.00      4802.88
  261.90        2960.50           2293        1105.00      4815.96
  261.94        2960.75           2296        1141.00      4972.94
  261.97        2961.00           2300        1193.00      5199.70
  262.00        2961.25           2303        1346.00      5866.91
  262.03        2961.50           2307        3700.00     16136.14
  262.06        2961.75           2310        8900.00     38846.39
  262.09        2962.00           2314       18025.00     78783.55
  262.12        2962.25           2317       26111.00    114264.30
  262.15        2962.50           2321       37025.00    162290.60
  262.18        2962.75           2324       45487.00    199635.60
  262.21        2963.00           2328       57053.00    250833.70
  262.24        2963.25           2331       66962.00    294839.80
  262.27        2963.50           2335       80164.00    353676.50
  262.30        2963.75           2339       93167.00    411858.80
  262.33        2964.00           2342      101728.00    450292.20
  262.36        2964.25           2346      112980.00    500960.90
  262.39        2964.50           2349      121859.00    541068.50
  262.42        2964.75           2353      133889.00    595586.10
  262.46        2965.00           2356      142851.00    636333.50
  262.49        2965.25           2360      154772.00    690711.80
  262.52        2965.50           2363      163011.00    728413.80
  262.55        2965.75           2367      173551.00    776788.40
  262.58        2966.00           2370      181528.00    813507.40
  262.61        2966.25           2374      192426.00    863822.80
  262.64        2966.50           2378      201620.00    906407.20
  262.67        2966.75           2381      204958.00    921899.10
  262.70        2967.00           2385      205678.00    925242.90
  262.73        2967.25           2388      205949.00    926501.60
  262.76        2967.50           2392      205628.00    925010.60
  262.79        2967.75           2395      205558.00    924685.50
  262.82        2968.00           2399      204039.00    917632.30
  262.85        2968.25           2402      199188.00    895130.60
  262.88        2968.50           2406      189210.00    848956.60
  262.91        2968.75           2409      180864.00    810447.50
  262.94        2969.00           2413      168908.00    755458.90
  262.98        2969.25           2417      157215.00    701881.00
  263.01        2969.50           2420      148958.00    664165.50
  263.04        2969.75           2424      135890.00    604674.20
  263.07        2970.00           2427      126802.00    563444.60
  263.10        2970.25           2431      113291.00    502363.90
  263.13        2970.50           2434      104128.00    461084.80
  263.16        2970.75           2438       91700.00    405283.10
  263.19        2971.00           2441       82060.00    362145.80
  263.22        2971.25           2445       70227.00    309368.70
  263.25        2971.50           2449       58599.00    257690.80
  263.28        2971.75           2452       49966.00    219441.10
  263.31        2972.00           2456       37635.00    164979.50
  263.34        2972.25           2459       28020.00    122653.40
  263.37        2972.50           2463       16509.00     72141.00
  263.40        2972.75           2466        9091.00     39681.22
  263.43        2973.00           2470        3142.00     13701.24
  263.46        2973.25           2473        1662.00      7245.03
  263.50        2973.50           2477        1236.00      5387.21
  263.53        2973.75           2481        1131.00      4929.34
  263.56        2974.00           2484        1146.00      4994.75
  263.59        2974.25           2488        1099.00      4789.79
  263.62        2974.50           2491        1122.00      4890.09
  263.65        2974.75           2495        1114.00      4855.20
  263.68        2975.00           2498        1083.00      4720.03
  263.71        2975.25           2502        1081.00      4711.30
  263.74        2975.50           2505        1047.00      4563.04
  263.77        2975.75           2509        1056.00      4602.29
  263.80        2976.00           2512         991.00      4318.86
  263.83        2976.25           2516        1022.00      4454.03
  263.86        2976.50           2520         997.00      4345.02
  263.89        2976.75           2523         953.00      4153.16
  263.92        2977.00           2527         985.00      4292.69
  263.95        2977.25           2530         944.00      4113.91
  263.98        2977.50           2534         940.00      4096.47
  264.02        2977.75           2537         968.00      4218.57
  264.05        2978.00           2541         960.00      4183.68
  264.08        2978.25           2544         930.00      4052.87
  264.11        2978.50           2548         965.00      4205.48
  264.14        2978.75           2552         934.00      4070.31
  264.17        2979.00           2555         927.00      4039.79
  264.20        2979.25           2559         947.00      4127.00
  264.23        2979.50           2562         907.00      3952.58
  264.26        2979.75           2566         893.00      3891.54
  264.29        2980.00           2569         895.00      3900.26
  264.32        2980.25           2573         904.00      3939.50
  264.35        2980.50           2577         900.00      3922.06
  264.38        2980.75           2580         879.00      3830.49
  264.41        2981.00           2584         909.00      3961.30
  264.44        2981.25           2587         857.00      3734.56
  264.47        2981.50           2591         889.00      3874.09
  264.50        2981.75           2594         858.00      3738.92
  264.54        2982.00           2598         872.00      3799.97
  264.57        2982.25           2601         866.00      3773.81
  264.60        2982.50           2605         859.00      3743.28
  264.63        2982.75           2609         855.00      3725.84
  264.66        2983.00           2612         847.00      3690.96
  264.69        2983.25           2616         861.00      3752.00
  264.72        2983.50           2619         836.00      3643.00
  264.75        2983.75           2623         833.00      3629.92
  264.78        2984.00           2626         793.00      3455.51
HS scan finished at 04:25:00
end
************************************************************
  HS Scan of 
************************************************************
Integration time is 0.2294 seconds per sample
dh240217Reading 51.44 .94 2.94pr1000
************************************************************
Dead Time -------------------------  3.4E-08 
Number of Cycles Used -------------  4 
Starting Wavelength (Angstroms) ---  2950 
Final Wavelength (Angstoms) -------  2984 
Wavelength Increment (Angstroms) --  .25 
Filter Wheel #1 Position ---------- (1) Ground quartz diffuser (ND=2.32)
Filter Wheel #2 Position ---------- (1) Neutral Density 0.494



************************************************************
HS scan start time = 18:37:27
Dark Count =  .8 


Time (GMT)  Wavelength (Ang)  Step Number  Raw Counts  Counts/Second

 1118.35        2950.00           2144         814.00      3545.33
 1118.54        2950.25           2147         831.00      3619.45
 1118.57        2950.50           2151         824.00      3588.93
 1118.60        2950.75           2155         829.00      3610.73
 1118.63        2951.00           2158         823.00      3584.57
 1118.66        2951.25           2162         797.00      3471.20
 1118.69        2951.50           2165         827.00      3602.01
 1118.72        2951.75           2169         817.00      3558.41
 1118.75        2952.00           2172         823.00      3584.57
 1118.78        2952.25           2176         824.00      3588.93
 1118.81        2952.50           2179         837.00      3645.61
 1118.84        2952.75           2183         844.00      3676.14
 1118.88        2953.00           2186         854.00      3719.74
 1118.91        2953.25           2190         830.00      3615.09
 1118.94        2953.50           2193         851.00      3706.66
 1118.97        2953.75           2197         814.00      3545.33
 1119.00        2954.00           2200         825.00      3593.29
 1119.03        2954.25           2204         844.00      3676.14
 1119.06        2954.50           2208         847.00      3689.22
 1119.09        2954.75           2211         823.00      3584.57
 1119.12        2955.00           2215         853.00      3715.38
 1119.15        2955.25           2218         869.00      3785.14
 1119.18        2955.50           2222         864.00      3763.34
 1119.21        2955.75           2225         863.00      3758.98
 1119.24        2956.00           2229         880.00      3833.11
 1119.27        2956.25           2232         857.00      3732.82
 1119.30        2956.50           2236         867.00      3776.42
 1119.33        2956.75           2239         904.00      3937.76
 1119.36        2957.00           2243         913.00      3977.00
 1119.40        2957.25           2246         907.00      3950.84
 1119.43        2957.50           2250         902.00      3929.03
 1119.46        2957.75           2254         905.00      3942.12
 1119.49        2958.00           2257         920.00      4007.52
 1119.52        2958.25           2261         957.00      4168.86
 1119.55        2958.50           2264         953.00      4151.41
 1119.58        2958.75           2268         955.00      4160.14
 1119.61        2959.00           2271         940.00      4094.73
 1119.64        2959.25           2275         928.00      4042.40
 1119.67        2959.50           2278         971.00      4229.90
 1119.70        2959.75           2282        1009.00      4395.60
 1119.73        2960.00           2285         987.00      4299.67
 1119.76        2960.25           2289        1003.00      4369.44
 1119.79        2960.50           2293        1029.00      4482.81
 1119.82        2960.75           2296        1050.00      4574.38
 1119.85        2961.00           2300        1057.00      4604.91
 1119.88        2961.25           2303        1184.00      5158.71
 1119.92        2961.50           2307        3109.00     13555.51
 1119.95        2961.75           2310        8325.00     36331.69
 1119.98        2962.00           2314       18344.00     80179.93
 1120.01        2962.25           2317       25978.00    113678.30
 1120.04        2962.50           2321       35797.00    156877.30
 1120.07        2962.75           2324       43473.00    190736.90
 1120.10        2963.00           2328       54819.00    240928.90
 1120.13        2963.25           2331       64216.00    282629.70
 1120.16        2963.50           2335       75631.00    333446.00
 1120.19        2963.75           2339       86499.00    381991.90
 1120.22        2964.00           2342       95052.00    420310.80
 1120.25        2964.25           2346      105853.00    468845.20
 1120.28        2964.50           2349      113746.00    504414.90
 1120.31        2964.75           2353      124236.00    551822.70
 1120.34        2965.00           2356      132205.00    587940.50
 1120.37        2965.25           2360      143351.00    638608.40
 1120.40        2965.50           2363      151865.00    677430.80
 1120.43        2965.75           2367      162057.00    724041.50
 1120.47        2966.00           2370      169918.00    760094.40
 1120.50        2966.25           2374      178900.00    801398.40
 1120.53        2966.50           2378      185408.00    831399.30
 1120.56        2966.75           2381      187478.00    840954.80
 1120.59        2967.00           2385      188290.00    844704.80
 1120.62        2967.25           2388      188160.00    844104.30
 1120.65        2967.50           2392      188010.00    843411.60
 1120.68        2967.75           2395      187621.00    841615.10
 1120.71        2968.00           2399      184740.00    828317.10
 1120.74        2968.25           2402      179071.00    802185.90
 1120.77        2968.50           2406      169543.00    758372.50
 1120.80        2968.75           2409      161889.00    723272.00
 1120.83        2969.00           2413      152098.00    678494.80
 1120.86        2969.25           2417      142153.00    633154.00
 1120.89        2969.50           2420      134281.00    597364.30
 1120.92        2969.75           2424      123534.00    548645.20
 1120.96        2970.00           2427      115238.00    511148.30
 1120.99        2970.25           2431      104476.00    462648.70
 1121.02        2970.50           2434       95785.00    423599.50
 1121.05        2970.75           2438       83939.00    370542.20
 1121.08        2971.00           2441       75798.00    334190.80
 1121.11        2971.25           2445       64756.00    285029.60
 1121.14        2971.50           2449       54285.00    238562.80
 1121.17        2971.75           2452       46437.00    203832.30
 1121.20        2972.00           2456       35963.00    157608.70
 1121.23        2972.25           2459       27951.00    122348.40
 1121.26        2972.50           2463       17326.00     75718.66
 1121.29        2972.75           2466        9945.00     43412.77
 1121.32        2973.00           2470        3393.00     14794.71
 1121.35        2973.25           2473        1600.00      6972.88
 1121.38        2973.50           2477        1152.00      5019.17
 1121.41        2973.75           2481        1052.00      4583.10
 1121.44        2974.00           2484        1049.00      4570.02
 1121.48        2974.25           2488        1009.00      4395.60
 1121.51        2974.50           2491        1035.00      4508.97
 1121.54        2974.75           2495        1003.00      4369.44
 1121.57        2975.00           2498         956.00      4164.50
 1121.60        2975.25           2502         971.00      4229.90
 1121.63        2975.50           2505         980.00      4269.15
 1121.66        2975.75           2509         947.00      4125.25
 1121.69        2976.00           2512         931.00      4055.49
 1121.72        2976.25           2516         911.00      3968.28
 1121.75        2976.50           2520         890.00      3876.71
 1121.78        2976.75           2523         853.00      3715.38
 1121.81        2977.00           2527         909.00      3959.56
 1121.84        2977.25           2530         877.00      3820.03
 1121.87        2977.50           2534         913.00      3977.00
 1121.90        2977.75           2537         903.00      3933.39
 1121.93        2978.00           2541         907.00      3950.84
 1121.96        2978.25           2544         862.00      3754.62
 1122.00        2978.50           2548         835.00      3636.89
 1122.03        2978.75           2552         846.00      3684.86
 1122.06        2979.00           2555         858.00      3737.18
 1122.09        2979.25           2559         820.00      3571.49
 1122.12        2979.50           2562         825.00      3593.29
 1122.15        2979.75           2566         832.00      3623.81
 1122.18        2980.00           2569         844.00      3676.14
 1122.21        2980.25           2573         826.00      3597.65
 1122.24        2980.50           2577         778.00      3388.36
 1122.27        2980.75           2580         797.00      3471.20
 1122.30        2981.00           2584         828.00      3606.37
 1122.33        2981.25           2587         786.00      3423.24
 1122.36        2981.50           2591         802.00      3493.00
 1122.39        2981.75           2594         764.00      3327.32
 1122.42        2982.00           2598         793.00      3453.76
 1122.45        2982.25           2601         803.00      3497.36
 1122.48        2982.50           2605         811.00      3532.25
 1122.52        2982.75           2609         774.00      3370.92
 1122.55        2983.00           2612         757.00      3296.80
 1122.58        2983.25           2616         784.00      3414.52
 1122.61        2983.50           2619         782.00      3405.80
 1122.64        2983.75           2623         751.00      3270.63
 1122.67        2984.00           2626         774.00      3370.92
HS scan finished at 18:42:54
end
