************************************************************
  HS Scan of (1) Internal mercury lamp
************************************************************
Integration time is 0.2294 seconds per sample
dh210219Reading 51.44 .94 3.01pr1000
************************************************************
Dead Time -------------------------  3.4E-08 
Number of Cycles Used -------------  4 
Starting Wavelength (Angstroms) ---  2950 
Final Wavelength (Angstoms) -------  2984 
Wavelength Increment (Angstroms) --  .25 
Filter Wheel #1 Position ---------- (1) Ground quartz diffuser (ND=2.32)
Filter Wheel #2 Position ---------- (1) Neutral Density 0.494



************************************************************
HS scan start time = 04:24:14
Dark Count =  .5 


Time (GMT)  Wavelength (Ang)  Step Number  Raw Counts  Counts/Second

  265.14        2950.00           2144        1515.00      6603.49
  265.33        2950.25           2147        1480.00      6450.85
  265.36        2950.50           2151        1517.00      6612.21
  265.39        2950.75           2155        1479.00      6446.49
  265.42        2951.00           2158        1506.00      6564.24
  265.45        2951.25           2162        1534.00      6686.35
  265.48        2951.50           2165        1481.00      6455.21
  265.51        2951.75           2169        1518.00      6616.57
  265.54        2952.00           2172        1558.00      6791.02
  265.57        2952.25           2176        1545.00      6734.32
  265.61        2952.50           2179        1532.00      6677.63
  265.64        2952.75           2183        1539.00      6708.16
  265.67        2953.00           2186        1525.00      6647.10
  265.70        2953.25           2190        1520.00      6625.29
  265.73        2953.50           2193        1559.00      6795.38
  265.76        2953.75           2197        1562.00      6808.46
  265.79        2954.00           2200        1587.00      6917.49
  265.82        2954.25           2204        1598.00      6965.47
  265.85        2954.50           2208        1562.00      6808.46
  265.88        2954.75           2211        1584.00      6904.41
  265.91        2955.00           2215        1623.00      7074.50
  265.94        2955.25           2218        1639.00      7144.28
  265.97        2955.50           2222        1591.00      6934.94
  266.00        2955.75           2225        1679.00      7318.74
  266.03        2956.00           2229        1662.00      7244.59
  266.06        2956.25           2232        1672.00      7288.21
  266.09        2956.50           2236        1678.00      7314.37
  266.12        2956.75           2239        1705.00      7432.13
  266.16        2957.00           2243        1668.00      7270.76
  266.19        2957.25           2246        1693.00      7379.79
  266.22        2957.50           2250        1762.00      7680.73
  266.25        2957.75           2254        1758.00      7663.29
  266.28        2958.00           2257        1761.00      7676.37
  266.31        2958.25           2261        1789.00      7798.49
  266.34        2958.50           2264        1783.00      7772.32
  266.37        2958.75           2268        1863.00      8121.25
  266.40        2959.00           2271        1824.00      7951.15
  266.43        2959.25           2275        1862.00      8116.89
  266.46        2959.50           2278        1881.00      8199.76
  266.49        2959.75           2282        1925.00      8391.67
  266.52        2960.00           2285        1976.00      8614.12
  266.55        2960.25           2289        2005.00      8740.61
  266.58        2960.50           2293        2061.00      8984.87
  266.61        2960.75           2296        2090.00      9111.37
  266.64        2961.00           2300        2239.00      9761.30
  266.68        2961.25           2303        2874.00     12531.49
  266.71        2961.50           2307        8794.00     38382.67
  266.74        2961.75           2310       19001.00     83061.19
  266.77        2962.00           2314       39263.00    172157.80
  266.80        2962.25           2317       56216.00    247122.20
  266.83        2962.50           2321       81635.00    360246.50
  266.86        2962.75           2324      101867.00    450916.60
  266.89        2963.00           2328      131154.00    583173.30
  266.92        2963.25           2331      152013.00    678108.00
  266.95        2963.50           2335      181812.00    814816.00
  266.98        2963.75           2339      207030.00    931523.20
  267.01        2964.00           2342      226217.00   1020954.00
  267.04        2964.25           2346      253075.00   1147077.00
  267.07        2964.50           2349      275399.00   1252756.00
  267.10        2964.75           2353      303207.00   1385490.00
  267.13        2965.00           2356      322765.00   1479585.00
  267.16        2965.25           2360      346817.00   1596155.00
  267.20        2965.50           2363      366344.00   1691499.00
  267.23        2965.75           2367      388370.00   1799815.00
  267.26        2966.00           2370      406499.00   1889588.00
  267.29        2966.25           2374      429937.00   2006499.00
  267.32        2966.50           2378      448564.00   2100104.00
  267.35        2966.75           2381      454242.00   2128760.00
  267.38        2967.00           2385      456793.00   2141654.00
  267.41        2967.25           2388      456505.00   2140198.00
  267.44        2967.50           2392      457398.00   2144713.00
  267.47        2967.75           2395      456839.00   2141886.00
  267.50        2968.00           2399      453004.00   2122507.00
  267.53        2968.25           2402      442390.00   2069009.00
  267.56        2968.50           2406      421680.00   1965202.00
  267.59        2968.75           2409      404777.00   1881037.00
  267.62        2969.00           2413      380331.00   1760187.00
  267.65        2969.25           2417      355282.00   1637409.00
  267.68        2969.50           2420      336173.00   1544451.00
  267.72        2969.75           2424      308528.00   1411028.00
  267.75        2970.00           2427      286951.00   1307747.00
  267.78        2970.25           2431      260205.00   1180746.00
  267.81        2970.50           2434      240107.00   1086043.00
  267.84        2970.75           2438      211118.00    950531.20
  267.87        2971.00           2441      191516.00    859614.20
  267.90        2971.25           2445      165006.00    737557.30
  267.93        2971.50           2449      133463.00    593651.60
  267.96        2971.75           2452      110433.00    489475.70
  267.99        2972.00           2456       81978.00    361779.00
  268.02        2972.25           2459       61880.00    272253.50
  268.05        2972.50           2463       37536.00    164542.60
  268.08        2972.75           2466       21433.00     93726.72
  268.11        2973.00           2470        7371.00     32164.63
  268.14        2973.25           2473        3662.00     15969.87
  268.17        2973.50           2477        2374.00     10350.20
  268.20        2973.75           2481        2204.00      9608.63
  268.24        2974.00           2484        2121.00      9246.59
  268.27        2974.25           2488        2047.00      8923.81
  268.30        2974.50           2491        2048.00      8928.17
  268.33        2974.75           2495        1976.00      8614.12
  268.36        2975.00           2498        1936.00      8439.65
  268.39        2975.25           2502        1907.00      8313.16
  268.42        2975.50           2505        1967.00      8574.86
  268.45        2975.75           2509        1883.00      8208.48
  268.48        2976.00           2512        1891.00      8243.37
  268.51        2976.25           2516        1806.00      7872.64
  268.54        2976.50           2520        1805.00      7868.28
  268.57        2976.75           2523        1773.00      7728.71
  268.60        2977.00           2527        1757.00      7658.93
  268.63        2977.25           2530        1751.00      7632.76
  268.66        2977.50           2534        1738.00      7576.06
  268.69        2977.75           2537        1719.00      7493.19
  268.72        2978.00           2541        1673.00      7292.57
  268.76        2978.25           2544        1674.00      7296.93
  268.79        2978.50           2548        1663.00      7248.95
  268.82        2978.75           2552        1617.00      7048.33
  268.85        2979.00           2555        1584.00      6904.41
  268.88        2979.25           2559        1618.00      7052.69
  268.91        2979.50           2562        1596.00      6956.75
  268.94        2979.75           2566        1645.00      7170.45
  268.97        2980.00           2569        1534.00      6686.35
  269.00        2980.25           2573        1585.00      6908.77
  269.03        2980.50           2577        1609.00      7013.44
  269.06        2980.75           2580        1577.00      6873.88
  269.09        2981.00           2584        1550.00      6756.13
  269.12        2981.25           2587        1560.00      6799.74
  269.15        2981.50           2591        1533.00      6681.99
  269.18        2981.75           2594        1550.00      6756.13
  269.21        2982.00           2598        1545.00      6734.32
  269.24        2982.25           2601        1537.00      6699.43
  269.27        2982.50           2605        1500.00      6538.07
  269.31        2982.75           2609        1532.00      6677.63
  269.34        2983.00           2612        1502.00      6546.79
  269.37        2983.25           2616        1512.00      6590.40
  269.40        2983.50           2619        1494.00      6511.90
  269.43        2983.75           2623        1445.00      6298.21
  269.46        2984.00           2626        1530.00      6668.91
HS scan finished at 04:29:41
end
************************************************************
  HS Scan of (1) Internal mercury lamp
************************************************************
Integration time is 0.2294 seconds per sample
dh210219Reading 51.44 .94 3.21pr1000
************************************************************
Dead Time -------------------------  3.4E-08 
Number of Cycles Used -------------  4 
Starting Wavelength (Angstroms) ---  2950 
Final Wavelength (Angstoms) -------  2984 
Wavelength Increment (Angstroms) --  .25 
Filter Wheel #1 Position ---------- (1) Ground quartz diffuser (ND=2.32)
Filter Wheel #2 Position ---------- (1) Neutral Density 0.494



************************************************************
HS scan start time = 18:38:46
Dark Count =  1.3 


Time (GMT)  Wavelength (Ang)  Step Number  Raw Counts  Counts/Second

 1119.66        2950.00           2144        1475.00      6425.55
 1119.86        2950.25           2147        1460.00      6360.14
 1119.89        2950.50           2151        1509.00      6573.83
 1119.92        2950.75           2155        1480.00      6447.36
 1119.95        2951.00           2158        1503.00      6547.67
 1119.98        2951.25           2162        1523.00      6634.89
 1120.01        2951.50           2165        1518.00      6613.08
 1120.04        2951.75           2169        1529.00      6661.05
 1120.07        2952.00           2172        1510.00      6578.19
 1120.10        2952.25           2176        1565.00      6818.06
 1120.13        2952.50           2179        1507.00      6565.11
 1120.16        2952.75           2183        1529.00      6661.05
 1120.19        2953.00           2186        1523.00      6634.89
 1120.22        2953.25           2190        1580.00      6883.48
 1120.25        2953.50           2193        1529.00      6661.05
 1120.28        2953.75           2197        1547.00      6739.56
 1120.31        2954.00           2200        1563.00      6809.34
 1120.35        2954.25           2204        1522.00      6630.53
 1120.38        2954.50           2208        1566.00      6822.42
 1120.41        2954.75           2211        1608.00      7005.59
 1120.44        2955.00           2215        1576.00      6866.03
 1120.47        2955.25           2218        1582.00      6892.20
 1120.50        2955.50           2222        1630.00      7101.54
 1120.53        2955.75           2225        1621.00      7062.29
 1120.56        2956.00           2229        1613.00      7027.40
 1120.59        2956.25           2232        1653.00      7201.85
 1120.62        2956.50           2236        1642.00      7153.88
 1120.65        2956.75           2239        1630.00      7101.54
 1120.68        2957.00           2243        1749.00      7620.55
 1120.71        2957.25           2246        1715.00      7472.26
 1120.74        2957.50           2250        1697.00      7393.75
 1120.77        2957.75           2254        1712.00      7459.17
 1120.80        2958.00           2257        1746.00      7607.46
 1120.83        2958.25           2261        1735.00      7559.48
 1120.87        2958.50           2264        1810.00      7886.60
 1120.90        2958.75           2268        1790.00      7799.37
 1120.93        2959.00           2271        1797.00      7829.90
 1120.96        2959.25           2275        1809.00      7882.23
 1120.99        2959.50           2278        1835.00      7995.64
 1121.02        2959.75           2282        1881.00      8196.27
 1121.05        2960.00           2285        1905.00      8300.95
 1121.08        2960.25           2289        1918.00      8357.65
 1121.11        2960.50           2293        1946.00      8479.78
 1121.14        2960.75           2296        1993.00      8684.78
 1121.17        2961.00           2300        2084.00      9081.71
 1121.20        2961.25           2303        2448.00     10669.52
 1121.23        2961.50           2307        6425.00     28028.88
 1121.26        2961.75           2310       15477.00     67616.91
 1121.29        2962.00           2314       32565.00    142641.70
 1121.32        2962.25           2317       47977.00    210638.70
 1121.35        2962.50           2321       71300.00    314142.60
 1121.39        2962.75           2324       89880.00    397125.10
 1121.42        2963.00           2328      113730.00    504340.50
 1121.45        2963.25           2331      131141.00    583110.70
 1121.48        2963.50           2335      155690.00    694903.70
 1121.51        2963.75           2339      181209.00    812033.10
 1121.54        2964.00           2342      199761.00    897782.60
 1121.57        2964.25           2346      224403.00   1012472.00
 1121.60        2964.50           2349      241459.00   1092391.00
 1121.63        2964.75           2353      264098.00   1199158.00
 1121.66        2965.00           2356      282158.00   1284902.00
 1121.69        2965.25           2360      305157.00   1394840.00
 1121.72        2965.50           2363      321801.00   1474929.00
 1121.75        2965.75           2367      343884.00   1581886.00
 1121.78        2966.00           2370      359448.00   1657752.00
 1121.81        2966.25           2374      379460.00   1755896.00
 1121.84        2966.50           2378      399007.00   1852416.00
 1121.87        2966.75           2381      407650.00   1895303.00
 1121.90        2967.00           2385      411383.00   1913867.00
 1121.94        2967.25           2388      412258.00   1918222.00
 1121.97        2967.50           2392      411748.00   1915684.00
 1122.00        2967.75           2395      410799.00   1910961.00
 1122.03        2968.00           2399      407811.00   1896103.00
 1122.06        2968.25           2402      400503.00   1859830.00
 1122.09        2968.50           2406      383083.00   1773736.00
 1122.12        2968.75           2409      366556.00   1692534.00
 1122.15        2969.00           2413      342901.00   1577107.00
 1122.18        2969.25           2417      316871.00   1451160.00
 1122.21        2969.50           2420      298861.00   1364660.00
 1122.24        2969.75           2424      275719.00   1254272.00
 1122.27        2970.00           2427      257803.00   1169391.00
 1122.30        2970.25           2431      233294.00   1054077.00
 1122.33        2970.50           2434      214772.00    967538.60
 1122.36        2970.75           2438      188907.00    847552.50
 1122.39        2971.00           2441      168513.00    753641.80
 1122.42        2971.25           2445      144797.00    645192.30
 1122.46        2971.50           2449      119354.00    529737.80
 1122.49        2971.75           2452      101798.00    450602.90
 1122.52        2972.00           2456       79511.00    350756.70
 1122.55        2972.25           2459       61776.00    271788.10
 1122.58        2972.50           2463       36013.00    157826.80
 1122.61        2972.75           2466       20050.00     87657.11
 1122.64        2973.00           2470        6810.00     29710.47
 1122.67        2973.25           2473        3366.00     14674.71
 1122.70        2973.50           2477        2260.00      9849.42
 1122.73        2973.75           2481        2091.00      9112.24
 1122.76        2974.00           2484        2032.00      8854.89
 1122.79        2974.25           2488        2009.00      8754.57
 1122.82        2974.50           2491        1917.00      8353.29
 1122.85        2974.75           2495        1888.00      8226.80
 1122.88        2975.00           2498        1889.00      8231.16
 1122.91        2975.25           2502        1809.00      7882.23
 1122.94        2975.50           2505        1792.00      7808.09
 1122.98        2975.75           2509        1801.00      7847.34
 1123.01        2976.00           2512        1759.00      7664.16
 1123.04        2976.25           2516        1741.00      7585.65
 1123.07        2976.50           2520        1713.00      7463.53
 1123.10        2976.75           2523        1705.00      7428.64
 1123.13        2977.00           2527        1721.00      7498.42
 1123.16        2977.25           2530        1684.00      7337.05
 1123.19        2977.50           2534        1660.00      7232.38
 1123.22        2977.75           2537        1635.00      7123.35
 1123.25        2978.00           2541        1623.00      7071.01
 1123.28        2978.25           2544        1607.00      7001.23
 1123.31        2978.50           2548        1610.00      7014.31
 1123.34        2978.75           2552        1591.00      6931.45
 1123.37        2979.00           2555        1577.00      6870.39
 1123.40        2979.25           2559        1596.00      6953.26
 1123.43        2979.50           2562        1611.00      7018.68
 1123.46        2979.75           2566        1548.00      6743.92
 1123.50        2980.00           2569        1543.00      6722.11
 1123.53        2980.25           2573        1528.00      6656.69
 1123.56        2980.50           2577        1541.00      6713.39
 1123.59        2980.75           2580        1517.00      6608.72
 1123.62        2981.00           2584        1529.00      6661.05
 1123.65        2981.25           2587        1515.00      6600.00
 1123.68        2981.50           2591        1483.00      6460.44
 1123.71        2981.75           2594        1479.00      6443.00
 1123.74        2982.00           2598        1470.00      6403.75
 1123.77        2982.25           2601        1472.00      6412.47
 1123.80        2982.50           2605        1475.00      6425.55
 1123.83        2982.75           2609        1445.00      6294.72
 1123.86        2983.00           2612        1453.00      6329.61
 1123.89        2983.25           2616        1446.00      6299.08
 1123.92        2983.50           2619        1438.00      6264.19
 1123.95        2983.75           2623        1409.00      6137.72
 1123.98        2984.00           2626        1443.00      6286.00
HS scan finished at 18:44:13
end
