************************************************************
  HS Scan of (1) Internal mercury lamp
************************************************************
Integration time is 0.2294 seconds per sample
dh190219Reading 51.44 .94 2.5pr1000
************************************************************
Dead Time -------------------------  3.4E-08 
Number of Cycles Used -------------  4 
Starting Wavelength (Angstroms) ---  2950 
Final Wavelength (Angstoms) -------  2984 
Wavelength Increment (Angstroms) --  .25 
Filter Wheel #1 Position ---------- (1) Ground quartz diffuser (ND=2.32)
Filter Wheel #2 Position ---------- (1) Neutral Density 0.494



************************************************************
HS scan start time = 04:31:26
Dark Count =  .2 


Time (GMT)  Wavelength (Ang)  Step Number  Raw Counts  Counts/Second

  272.33        2950.00           2144        1656.00      7219.73
  272.53        2950.25           2147        1645.00      7171.76
  272.56        2950.50           2151        1621.00      7067.09
  272.59        2950.75           2155        1623.00      7075.81
  272.62        2951.00           2158        1626.00      7088.89
  272.65        2951.25           2162        1645.00      7171.76
  272.68        2951.50           2165        1676.00      7306.96
  272.71        2951.75           2169        1675.00      7302.60
  272.74        2952.00           2172        1646.00      7176.12
  272.77        2952.25           2176        1629.00      7101.98
  272.80        2952.50           2179        1702.00      7420.36
  272.83        2952.75           2183        1633.00      7119.42
  272.86        2953.00           2186        1663.00      7250.26
  272.89        2953.25           2190        1675.00      7302.60
  272.92        2953.50           2193        1672.00      7289.51
  272.95        2953.75           2197        1674.00      7298.24
  272.99        2954.00           2200        1666.00      7263.35
  273.02        2954.25           2204        1657.00      7224.09
  273.05        2954.50           2208        1700.00      7411.63
  273.08        2954.75           2211        1722.00      7507.58
  273.11        2955.00           2215        1704.00      7429.08
  273.14        2955.25           2218        1733.00      7555.56
  273.17        2955.50           2222        1748.00      7620.98
  273.20        2955.75           2225        1709.00      7450.89
  273.23        2956.00           2229        1712.00      7463.97
  273.26        2956.25           2232        1709.00      7450.89
  273.29        2956.50           2236        1792.00      7812.89
  273.32        2956.75           2239        1742.00      7594.81
  273.35        2957.00           2243        1775.00      7738.74
  273.38        2957.25           2246        1835.00      8000.43
  273.41        2957.50           2250        1785.00      7782.36
  273.44        2957.75           2254        1792.00      7812.89
  273.47        2958.00           2257        1832.00      7987.35
  273.51        2958.25           2261        1847.00      8052.77
  273.54        2958.50           2264        1883.00      8209.79
  273.57        2958.75           2268        1874.00      8170.54
  273.60        2959.00           2271        1864.00      8126.92
  273.63        2959.25           2275        1924.00      8388.62
  273.66        2959.50           2278        1902.00      8292.66
  273.69        2959.75           2282        1936.00      8440.96
  273.73        2960.00           2285        1953.00      8515.11
  273.76        2960.25           2289        1975.00      8611.07
  273.79        2960.50           2293        1970.00      8589.26
  273.82        2960.75           2296        2019.00      8802.98
  273.85        2961.00           2300        2106.00      9182.47
  273.88        2961.25           2303        2212.00      9644.84
  273.91        2961.50           2307        3857.00     16822.17
  273.94        2961.75           2310        9590.00     41863.38
  273.97        2962.00           2314       24390.00    106706.40
  274.00        2962.25           2317       36633.00    160563.80
  274.03        2962.50           2321       55456.00    243754.60
  274.06        2962.75           2324       70989.00    312762.50
  274.09        2963.00           2328       93917.00    415222.70
  274.12        2963.25           2331      110442.00    489517.60
  274.15        2963.50           2335      133744.00    594928.80
  274.18        2963.75           2339      154732.00    690530.00
  274.22        2964.00           2342      171383.00    766825.90
  274.25        2964.25           2346      193431.00    868472.60
  274.28        2964.50           2349      210390.00    947145.90
  274.31        2964.75           2353      231130.00   1043945.00
  274.34        2965.00           2356      247698.00   1121741.00
  274.37        2965.25           2360      269846.00   1226398.00
  274.40        2965.50           2363      286606.00   1306103.00
  274.43        2965.75           2367      305611.00   1397024.00
  274.46        2966.00           2370      320138.00   1466912.00
  274.49        2966.25           2374      337650.00   1551616.00
  274.52        2966.50           2378      352408.00   1623391.00
  274.55        2966.75           2381      357694.00   1649187.00
  274.58        2967.00           2385      360414.00   1662479.00
  274.61        2967.25           2388      360799.00   1664362.00
  274.64        2967.50           2392      360246.00   1661658.00
  274.67        2967.75           2395      359566.00   1658334.00
  274.70        2968.00           2399      356163.00   1641711.00
  274.74        2968.25           2402      347399.00   1598990.00
  274.77        2968.50           2406      330393.00   1516454.00
  274.80        2968.75           2409      315219.00   1443209.00
  274.83        2969.00           2413      295652.00   1349308.00
  274.86        2969.25           2417      276934.00   1260052.00
  274.89        2969.50           2420      262089.00   1189657.00
  274.92        2969.75           2424      241345.00   1091860.00
  274.95        2970.00           2427      226395.00   1021788.00
  274.98        2970.25           2431      205289.00    923437.10
  275.01        2970.50           2434      189098.00    848440.00
  275.04        2970.75           2438      164760.00    736430.90
  275.07        2971.00           2441      148084.00    660180.10
  275.10        2971.25           2445      126523.00    562181.50
  275.13        2971.50           2449      105244.00    466107.10
  275.16        2971.75           2452       89122.00    393735.40
  275.19        2972.00           2456       67306.00    296370.70
  275.22        2972.25           2459       50647.00    222455.70
  275.26        2972.50           2463       30591.00    133960.10
  275.29        2972.75           2466       17516.00     76553.85
  275.32        2973.00           2470        6290.00     27444.08
  275.35        2973.25           2473        3331.00     14526.79
  275.38        2973.50           2477        2278.00      9932.74
  275.41        2973.75           2481        2139.00      9326.41
  275.44        2974.00           2484        2009.00      8759.37
  275.47        2974.25           2488        1948.00      8493.30
  275.51        2974.50           2491        1972.00      8597.98
  275.54        2974.75           2495        1958.00      8536.92
  275.57        2975.00           2498        1920.00      8371.17
  275.60        2975.25           2502        1926.00      8397.34
  275.63        2975.50           2505        1881.00      8201.07
  275.66        2975.75           2509        1855.00      8087.66
  275.69        2976.00           2512        1806.00      7873.95
  275.72        2976.25           2516        1808.00      7882.67
  275.75        2976.50           2520        1757.00      7660.23
  275.78        2976.75           2523        1776.00      7743.10
  275.81        2977.00           2527        1752.00      7638.43
  275.84        2977.25           2530        1762.00      7682.04
  275.87        2977.50           2534        1723.00      7511.95
  275.90        2977.75           2537        1742.00      7594.81
  275.93        2978.00           2541        1718.00      7490.14
  275.97        2978.25           2544        1659.00      7232.82
  276.00        2978.50           2548        1686.00      7350.57
  276.03        2978.75           2552        1674.00      7298.24
  276.06        2979.00           2555        1675.00      7302.60
  276.09        2979.25           2559        1652.00      7202.29
  276.12        2979.50           2562        1629.00      7101.98
  276.15        2979.75           2566        1636.00      7132.51
  276.18        2980.00           2569        1592.00      6940.61
  276.21        2980.25           2573        1592.00      6940.61
  276.24        2980.50           2577        1570.00      6844.66
  276.27        2980.75           2580        1565.00      6822.86
  276.30        2981.00           2584        1619.00      7058.36
  276.33        2981.25           2587        1554.00      6774.88
  276.36        2981.50           2591        1599.00      6971.14
  276.39        2981.75           2594        1579.00      6883.91
  276.42        2982.00           2598        1543.00      6726.91
  276.45        2982.25           2601        1558.00      6792.33
  276.49        2982.50           2605        1577.00      6875.19
  276.52        2982.75           2609        1577.00      6875.19
  276.55        2983.00           2612        1517.00      6613.52
  276.58        2983.25           2616        1546.00      6739.99
  276.61        2983.50           2619        1505.00      6561.19
  276.64        2983.75           2623        1507.00      6569.91
  276.67        2984.00           2626        1529.00      6665.85
HS scan finished at 04:36:53
end
************************************************************
  HS Scan of (1) Internal mercury lamp
************************************************************
Integration time is 0.2294 seconds per sample
dh190219Reading 51.44 .94 3.01pr1000
************************************************************
Dead Time -------------------------  3.4E-08 
Number of Cycles Used -------------  4 
Starting Wavelength (Angstroms) ---  2950 
Final Wavelength (Angstoms) -------  2984 
Wavelength Increment (Angstroms) --  .25 
Filter Wheel #1 Position ---------- (1) Ground quartz diffuser (ND=2.32)
Filter Wheel #2 Position ---------- (1) Neutral Density 0.494



************************************************************
HS scan start time = 18:07:28
Dark Count =  1.1 


Time (GMT)  Wavelength (Ang)  Step Number  Raw Counts  Counts/Second

 1088.36        2950.00           2144        1501.00      6539.82
 1088.55        2950.25           2147        1509.00      6574.70
 1088.58        2950.50           2151        1542.00      6718.62
 1088.61        2950.75           2155        1521.00      6627.04
 1088.64        2951.00           2158        1574.00      6858.18
 1088.67        2951.25           2162        1550.00      6753.51
 1088.70        2951.50           2165        1565.00      6818.93
 1088.73        2951.75           2169        1553.00      6766.60
 1088.77        2952.00           2172        1556.00      6779.68
 1088.80        2952.25           2176        1592.00      6936.68
 1088.83        2952.50           2179        1597.00      6958.49
 1088.86        2952.75           2183        1580.00      6884.35
 1088.89        2953.00           2186        1560.00      6797.12
 1088.92        2953.25           2190        1573.00      6853.82
 1088.95        2953.50           2193        1628.00      7093.69
 1088.98        2953.75           2197        1634.00      7119.86
 1089.01        2954.00           2200        1578.00      6875.63
 1089.04        2954.25           2204        1580.00      6884.35
 1089.07        2954.50           2208        1585.00      6906.16
 1089.10        2954.75           2211        1596.00      6954.13
 1089.13        2955.00           2215        1600.00      6971.57
 1089.16        2955.25           2218        1671.00      7281.23
 1089.19        2955.50           2222        1692.00      7372.82
 1089.22        2955.75           2225        1632.00      7111.14
 1089.25        2956.00           2229        1623.00      7071.88
 1089.29        2956.25           2232        1698.00      7398.98
 1089.32        2956.50           2236        1706.00      7433.88
 1089.35        2956.75           2239        1728.00      7529.83
 1089.38        2957.00           2243        1696.00      7390.26
 1089.41        2957.25           2246        1753.00      7638.86
 1089.44        2957.50           2250        1710.00      7451.32
 1089.47        2957.75           2254        1714.00      7468.77
 1089.50        2958.00           2257        1757.00      7656.31
 1089.53        2958.25           2261        1779.00      7752.26
 1089.56        2958.50           2264        1799.00      7839.49
 1089.59        2958.75           2268        1795.00      7822.05
 1089.62        2959.00           2271        1844.00      8035.76
 1089.65        2959.25           2275        1836.00      8000.87
 1089.68        2959.50           2278        1862.00      8114.27
 1089.71        2959.75           2282        1907.00      8310.54
 1089.74        2960.00           2285        1865.00      8127.35
 1089.77        2960.25           2289        1960.00      8541.71
 1089.81        2960.50           2293        1982.00      8637.67
 1089.84        2960.75           2296        2020.00      8803.42
 1089.87        2961.00           2300        2073.00      9034.60
 1089.90        2961.25           2303        2335.00     10177.45
 1089.93        2961.50           2307        5300.00     23117.12
 1089.96        2961.75           2310       13655.00     59640.88
 1089.99        2962.00           2314       30542.00    133740.60
 1090.02        2962.25           2317       45598.00    200123.00
 1090.05        2962.50           2321       68994.00    303877.20
 1090.08        2962.75           2324       85560.00    377789.80
 1090.11        2963.00           2328      108773.00    481992.70
 1090.14        2963.25           2331      127908.00    568452.80
 1090.17        2963.50           2335      151861.00    677411.10
 1090.20        2963.75           2339      176965.00    792488.80
 1090.23        2964.00           2342      195314.00    877182.60
 1090.26        2964.25           2346      218144.00    983255.60
 1090.29        2964.50           2349      235190.00   1062966.00
 1090.33        2964.75           2353      260659.00   1182889.00
 1090.36        2965.00           2356      279241.00   1271019.00
 1090.39        2965.25           2360      302948.00   1384245.00
 1090.42        2965.50           2363      320186.00   1467139.00
 1090.45        2965.75           2367      340884.00   1567309.00
 1090.48        2966.00           2370      355389.00   1637929.00
 1090.51        2966.25           2374      374257.00   1730315.00
 1090.54        2966.50           2378      390543.00   1810543.00
 1090.57        2966.75           2381      396535.00   1840174.00
 1090.60        2967.00           2385      399806.00   1856376.00
 1090.63        2967.25           2388      400093.00   1857799.00
 1090.66        2967.50           2392      400329.00   1858969.00
 1090.69        2967.75           2395      399703.00   1855866.00
 1090.72        2968.00           2399      395272.00   1833923.00
 1090.75        2968.25           2402      386184.00   1789025.00
 1090.78        2968.50           2406      369546.00   1707191.00
 1090.81        2968.75           2409      355440.00   1638177.00
 1090.84        2969.00           2413      333317.00   1530607.00
 1090.88        2969.25           2417      310478.00   1420396.00
 1090.91        2969.50           2420      294148.00   1342111.00
 1090.94        2969.75           2424      273120.00   1241929.00
 1090.97        2970.00           2427      255330.00   1157714.00
 1091.00        2970.25           2431      229208.00   1034943.00
 1091.03        2970.50           2434      210511.00    947704.50
 1091.06        2970.75           2438      186401.00    835981.00
 1091.09        2971.00           2441      168781.00    754872.90
 1091.12        2971.25           2445      146461.00    652776.10
 1091.15        2971.50           2449      122914.00    545838.30
 1091.18        2971.75           2452      105785.00    468537.80
 1091.21        2972.00           2456       82716.00    365074.10
 1091.24        2972.25           2459       65651.00    289006.90
 1091.27        2972.50           2463       43819.00    192263.60
 1091.30        2972.75           2466       27120.00    118694.70
 1091.33        2973.00           2470        9488.00     41413.55
 1091.36        2973.25           2473        4188.00     18262.86
 1091.40        2973.50           2477        2403.00     10474.09
 1091.43        2973.75           2481        2093.00      9121.83
 1091.46        2974.00           2484        2093.00      9121.83
 1091.49        2974.25           2488        1949.00      8493.73
 1091.52        2974.50           2491        1986.00      8655.12
 1091.55        2974.75           2495        1913.00      8336.71
 1091.58        2975.00           2498        1925.00      8389.05
 1091.61        2975.25           2502        1868.00      8140.44
 1091.64        2975.50           2505        1825.00      7952.89
 1091.67        2975.75           2509        1847.00      8048.85
 1091.70        2976.00           2512        1789.00      7795.88
 1091.73        2976.25           2516        1758.00      7660.67
 1091.76        2976.50           2520        1764.00      7686.84
 1091.79        2976.75           2523        1770.00      7713.01
 1091.82        2977.00           2527        1697.00      7394.62
 1091.85        2977.25           2530        1732.00      7547.27
 1091.88        2977.50           2534        1679.00      7316.12
 1091.92        2977.75           2537        1658.00      7224.53
 1091.95        2978.00           2541        1690.00      7364.09
 1091.98        2978.25           2544        1699.00      7403.35
 1092.01        2978.50           2548        1610.00      7015.19
 1092.04        2978.75           2552        1617.00      7045.72
 1092.07        2979.00           2555        1627.00      7089.33
 1092.10        2979.25           2559        1579.00      6879.99
 1092.13        2979.50           2562        1584.00      6901.79
 1092.16        2979.75           2566        1609.00      7010.83
 1092.19        2980.00           2569        1588.00      6919.24
 1092.22        2980.25           2573        1560.00      6797.12
 1092.25        2980.50           2577        1543.00      6722.98
 1092.28        2980.75           2580        1535.00      6688.09
 1092.31        2981.00           2584        1516.00      6605.23
 1092.34        2981.25           2587        1570.00      6840.74
 1092.37        2981.50           2591        1543.00      6722.98
 1092.40        2981.75           2594        1514.00      6596.51
 1092.44        2982.00           2598        1507.00      6565.98
 1092.47        2982.25           2601        1505.00      6557.26
 1092.50        2982.50           2605        1525.00      6644.48
 1092.53        2982.75           2609        1457.00      6347.93
 1092.56        2983.00           2612        1455.00      6339.20
 1092.59        2983.25           2616        1478.00      6439.51
 1092.62        2983.50           2619        1438.00      6265.07
 1092.65        2983.75           2623        1460.00      6361.01
 1092.68        2984.00           2626        1453.00      6330.48
HS scan finished at 18:12:54
end
