************************************************************
  HS Scan of (1) Internal mercury lamp
************************************************************
Integration time is 0.2294 seconds per sample
dh260219Reading 51.44 .94 2.64pr1000
************************************************************
Dead Time -------------------------  3.4E-08 
Number of Cycles Used -------------  4 
Starting Wavelength (Angstroms) ---  2950 
Final Wavelength (Angstoms) -------  2984 
Wavelength Increment (Angstroms) --  .25 
Filter Wheel #1 Position ---------- (1) Ground quartz diffuser (ND=2.32)
Filter Wheel #2 Position ---------- (1) Neutral Density 0.494



************************************************************
HS scan start time = 04:13:01
Dark Count =  .4 


Time (GMT)  Wavelength (Ang)  Step Number  Raw Counts  Counts/Second

  253.92        2950.00           2144        1640.00      7149.08
  254.11        2950.25           2147        1656.00      7218.86
  254.14        2950.50           2151        1642.00      7157.80
  254.17        2950.75           2155        1684.00      7340.98
  254.20        2951.00           2158        1626.00      7088.02
  254.23        2951.25           2162        1671.00      7284.28
  254.27        2951.50           2165        1643.00      7162.16
  254.30        2951.75           2169        1690.00      7367.15
  254.33        2952.00           2172        1696.00      7393.31
  254.36        2952.25           2176        1679.00      7319.17
  254.39        2952.50           2179        1688.00      7358.42
  254.42        2952.75           2183        1685.00      7345.34
  254.45        2953.00           2186        1699.00      7406.40
  254.48        2953.25           2190        1709.00      7450.01
  254.51        2953.50           2193        1699.00      7406.40
  254.54        2953.75           2197        1710.00      7454.37
  254.57        2954.00           2200        1724.00      7515.43
  254.60        2954.25           2204        1704.00      7428.21
  254.63        2954.50           2208        1731.00      7545.96
  254.66        2954.75           2211        1729.00      7537.24
  254.69        2955.00           2215        1767.00      7702.98
  254.72        2955.25           2218        1728.00      7532.88
  254.75        2955.50           2222        1720.00      7497.99
  254.78        2955.75           2225        1724.00      7515.43
  254.82        2956.00           2229        1786.00      7785.84
  254.85        2956.25           2232        1793.00      7816.38
  254.88        2956.50           2236        1799.00      7842.54
  254.91        2956.75           2239        1798.00      7838.18
  254.94        2957.00           2243        1832.00      7986.48
  254.97        2957.25           2246        1834.00      7995.20
  255.00        2957.50           2250        1832.00      7986.48
  255.03        2957.75           2254        1869.00      8147.85
  255.06        2958.00           2257        1905.00      8304.87
  255.09        2958.25           2261        1921.00      8374.66
  255.12        2958.50           2264        1855.00      8086.79
  255.15        2958.75           2268        1915.00      8348.49
  255.18        2959.00           2271        1954.00      8518.60
  255.21        2959.25           2275        1979.00      8627.64
  255.24        2959.50           2278        1989.00      8671.26
  255.27        2959.75           2282        1970.00      8588.38
  255.31        2960.00           2285        2003.00      8732.32
  255.34        2960.25           2289        2044.00      8911.16
  255.37        2960.50           2293        2090.00      9111.80
  255.40        2960.75           2296        2109.00      9194.68
  255.43        2961.00           2300        2271.00      9901.33
  255.46        2961.25           2303        2873.00     12527.57
  255.49        2961.50           2307        7407.00     32322.34
  255.52        2961.75           2310       16655.00     72780.57
  255.55        2962.00           2314       34771.00    152359.20
  255.58        2962.25           2317       49684.00    218193.40
  255.61        2962.50           2321       69893.00    307881.80
  255.65        2962.75           2324       86314.00    381166.00
  255.68        2963.00           2328      109957.00    487330.80
  255.71        2963.25           2331      127970.00    568736.80
  255.74        2963.50           2335      152800.00    681702.40
  255.77        2963.75           2339      174891.00    782950.10
  255.80        2964.00           2342      190306.00    854021.10
  255.83        2964.25           2346      212566.00    957270.40
  255.86        2964.50           2349      231198.00   1044262.00
  255.89        2964.75           2353      255453.00   1158298.00
  255.92        2965.00           2356      271704.00   1235211.00
  255.95        2965.25           2360      292788.00   1335614.00
  255.98        2965.50           2363      306460.00   1401098.00
  256.01        2965.75           2367      325114.00   1490928.00
  256.04        2966.00           2370      341584.00   1570713.00
  256.07        2966.25           2374      363364.00   1676908.00
  256.10        2966.50           2378      379738.00   1757268.00
  256.13        2966.75           2381      384771.00   1782060.00
  256.17        2967.00           2385      387174.00   1793913.00
  256.20        2967.25           2388      387096.00   1793528.00
  256.23        2967.50           2392      387433.00   1795191.00
  256.26        2967.75           2395      386827.00   1792200.00
  256.29        2968.00           2399      383868.00   1777609.00
  256.32        2968.25           2402      375636.00   1737094.00
  256.35        2968.50           2406      357993.00   1650647.00
  256.38        2968.75           2409      341100.00   1568362.00
  256.41        2969.00           2413      320356.00   1467962.00
  256.44        2969.25           2417      300528.00   1372649.00
  256.47        2969.50           2420      285211.00   1299451.00
  256.50        2969.75           2424      262137.00   1189883.00
  256.53        2970.00           2427      243041.00   1099830.00
  256.56        2970.25           2431      215924.00    972910.10
  256.59        2970.50           2434      199099.00    894718.10
  256.62        2970.75           2438      175602.00    786220.60
  256.65        2971.00           2441      156575.00    698954.10
  256.69        2971.25           2445      134696.00    599250.60
  256.72        2971.50           2449      111507.00    494317.80
  256.75        2971.75           2452       93557.00    413607.50
  256.78        2972.00           2456       69955.00    308157.80
  256.81        2972.25           2459       53269.00    234063.70
  256.84        2972.50           2463       31091.00    136159.00
  256.87        2972.75           2466       17214.00     75229.68
  256.90        2973.00           2470        6345.00     27683.41
  256.93        2973.25           2473        3268.00     14251.02
  256.96        2973.50           2477        2311.00     10075.81
  256.99        2973.75           2481        2165.00      9438.95
  257.02        2974.00           2484        2062.00      8989.67
  257.05        2974.25           2488        2011.00      8767.22
  257.08        2974.50           2491        2068.00      9015.84
  257.11        2974.75           2495        1973.00      8601.47
  257.14        2975.00           2498        1982.00      8640.72
  257.17        2975.25           2502        1959.00      8540.40
  257.21        2975.50           2505        1905.00      8304.87
  257.24        2975.75           2509        1895.00      8261.26
  257.27        2976.00           2512        1885.00      8217.64
  257.30        2976.25           2516        1863.00      8121.68
  257.33        2976.50           2520        1843.00      8034.45
  257.36        2976.75           2523        1831.00      7982.11
  257.39        2977.00           2527        1780.00      7759.68
  257.42        2977.25           2530        1793.00      7816.38
  257.45        2977.50           2534        1797.00      7833.82
  257.48        2977.75           2537        1715.00      7476.18
  257.51        2978.00           2541        1721.00      7502.35
  257.54        2978.25           2544        1722.00      7506.71
  257.57        2978.50           2548        1688.00      7358.42
  257.60        2978.75           2552        1735.00      7563.41
  257.63        2979.00           2555        1667.00      7266.84
  257.66        2979.25           2559        1645.00      7170.88
  257.69        2979.50           2562        1666.00      7262.47
  257.73        2979.75           2566        1654.00      7210.14
  257.76        2980.00           2569        1624.00      7079.30
  257.79        2980.25           2573        1651.00      7197.05
  257.82        2980.50           2577        1626.00      7088.02
  257.85        2980.75           2580        1627.00      7092.38
  257.88        2981.00           2584        1595.00      6952.82
  257.91        2981.25           2587        1637.00      7135.99
  257.94        2981.50           2591        1570.00      6843.79
  257.97        2981.75           2594        1608.00      7009.52
  258.00        2982.00           2598        1628.00      7096.74
  258.03        2982.25           2601        1568.00      6835.07
  258.06        2982.50           2605        1588.00      6922.29
  258.09        2982.75           2609        1536.00      6695.51
  258.12        2983.00           2612        1555.00      6778.37
  258.15        2983.25           2616        1599.00      6970.27
  258.18        2983.50           2619        1579.00      6883.04
  258.21        2983.75           2623        1517.00      6612.65
  258.25        2984.00           2626        1567.00      6830.71
HS scan finished at 04:18:28
end
************************************************************
  HS Scan of (1) Internal mercury lamp
************************************************************
Integration time is 0.2294 seconds per sample
dh260219Reading 51.44 .94 3.43pr1000
************************************************************
Dead Time -------------------------  3.4E-08 
Number of Cycles Used -------------  4 
Starting Wavelength (Angstroms) ---  2950 
Final Wavelength (Angstoms) -------  2984 
Wavelength Increment (Angstroms) --  .25 
Filter Wheel #1 Position ---------- (1) Ground quartz diffuser (ND=2.32)
Filter Wheel #2 Position ---------- (1) Neutral Density 0.494



************************************************************
HS scan start time = 18:37:28
Dark Count =  2.2 


Time (GMT)  Wavelength (Ang)  Step Number  Raw Counts  Counts/Second

 1118.37        2950.00           2144        1315.00      5723.87
 1118.56        2950.25           2147        1337.00      5819.81
 1118.59        2950.50           2151        1328.00      5780.56
 1118.62        2950.75           2155        1294.00      5632.29
 1118.65        2951.00           2158        1318.00      5736.95
 1118.68        2951.25           2162        1322.00      5754.40
 1118.71        2951.50           2165        1348.00      5867.78
 1118.74        2951.75           2169        1335.00      5811.09
 1118.78        2952.00           2172        1337.00      5819.81
 1118.81        2952.25           2176        1316.00      5728.23
 1118.84        2952.50           2179        1376.00      5989.89
 1118.87        2952.75           2183        1373.00      5976.80
 1118.90        2953.00           2186        1372.00      5972.44
 1118.93        2953.25           2190        1375.00      5985.53
 1118.96        2953.50           2193        1356.00      5902.67
 1118.99        2953.75           2197        1391.00      6055.30
 1119.02        2954.00           2200        1387.00      6037.86
 1119.05        2954.25           2204        1383.00      6020.41
 1119.08        2954.50           2208        1349.00      5872.14
 1119.11        2954.75           2211        1439.00      6264.63
 1119.14        2955.00           2215        1434.00      6242.83
 1119.17        2955.25           2218        1380.00      6007.33
 1119.20        2955.50           2222        1393.00      6064.02
 1119.23        2955.75           2225        1420.00      6181.77
 1119.26        2956.00           2229        1452.00      6321.32
 1119.30        2956.25           2232        1439.00      6264.63
 1119.33        2956.50           2236        1438.00      6260.27
 1119.36        2956.75           2239        1462.00      6364.94
 1119.39        2957.00           2243        1453.00      6325.68
 1119.42        2957.25           2246        1473.00      6412.91
 1119.45        2957.50           2250        1530.00      6661.49
 1119.48        2957.75           2254        1500.00      6530.66
 1119.51        2958.00           2257        1542.00      6713.83
 1119.54        2958.25           2261        1574.00      6853.38
 1119.57        2958.50           2264        1552.00      6757.44
 1119.60        2958.75           2268        1577.00      6866.47
 1119.63        2959.00           2271        1596.00      6949.33
 1119.66        2959.25           2275        1614.00      7027.84
 1119.69        2959.50           2278        1621.00      7058.36
 1119.72        2959.75           2282        1637.00      7128.14
 1119.75        2960.00           2285        1672.00      7280.79
 1119.78        2960.25           2289        1701.00      7407.27
 1119.82        2960.50           2293        1750.00      7620.98
 1119.85        2960.75           2296        1781.00      7756.19
 1119.88        2961.00           2300        1903.00      8288.30
 1119.91        2961.25           2303        2278.00      9924.01
 1119.94        2961.50           2307        5518.00     24064.14
 1119.97        2961.75           2310       13424.00     58625.02
 1120.00        2962.00           2314       31126.00    136305.00
 1120.03        2962.25           2317       46664.00    204829.60
 1120.06        2962.50           2321       66907.00    294587.10
 1120.09        2962.75           2324       83016.00    366410.00
 1120.12        2963.00           2328      105991.00    469460.00
 1120.15        2963.25           2331      124690.00    553871.50
 1120.18        2963.50           2335      150211.00    669874.30
 1120.21        2963.75           2339      174524.00    781254.00
 1120.24        2964.00           2342      189005.00    848001.10
 1120.27        2964.25           2346      211085.00    950369.70
 1120.30        2964.50           2349      229906.00   1038204.00
 1120.34        2964.75           2353      254543.00   1153995.00
 1120.37        2965.00           2356      271379.00   1233660.00
 1120.40        2965.25           2360      292984.00   1336542.00
 1120.43        2965.50           2363      307397.00   1405588.00
 1120.46        2965.75           2367      327152.00   1500768.00
 1120.49        2966.00           2370      342744.00   1576340.00
 1120.52        2966.25           2374      365072.00   1685261.00
 1120.55        2966.50           2378      382319.00   1769968.00
 1120.58        2966.75           2381      389525.00   1805509.00
 1120.61        2967.00           2385      392451.00   1819966.00
 1120.64        2967.25           2388      393459.00   1824950.00
 1120.67        2967.50           2392      392639.00   1820895.00
 1120.70        2967.75           2395      392987.00   1822616.00
 1120.73        2968.00           2399      390916.00   1812380.00
 1120.76        2968.25           2402      385395.00   1785128.00
 1120.79        2968.50           2406      369240.00   1705685.00
 1120.82        2968.75           2409      353270.00   1627585.00
 1120.86        2969.00           2413      331727.00   1522901.00
 1120.89        2969.25           2417      311472.00   1425170.00
 1120.92        2969.50           2420      296619.00   1353924.00
 1120.95        2969.75           2424      274132.00   1246729.00
 1120.98        2970.00           2427      253907.00   1150994.00
 1121.01        2970.25           2431      228086.00   1029687.00
 1121.04        2970.50           2434      210607.00    948145.90
 1121.07        2970.75           2438      185911.00    833714.10
 1121.10        2971.00           2441      166975.00    746580.00
 1121.13        2971.25           2445      144728.00    644873.90
 1121.16        2971.50           2449      121223.00    538183.70
 1121.19        2971.75           2452      101081.00    447376.00
 1121.22        2972.00           2456       76077.00    335428.80
 1121.25        2972.25           2459       58261.00    256183.40
 1121.28        2972.50           2463       36373.00    159409.20
 1121.31        2972.75           2466       21917.00     95842.76
 1121.34        2973.00           2470        7963.00     34743.72
 1121.38        2973.25           2473        3635.00     15844.63
 1121.41        2973.50           2477        2151.00      9370.03
 1121.44        2973.75           2481        1863.00      8113.83
 1121.47        2974.00           2484        1807.00      7869.59
 1121.50        2974.25           2488        1749.00      7616.62
 1121.53        2974.50           2491        1743.00      7590.45
 1121.56        2974.75           2495        1704.00      7420.36
 1121.59        2975.00           2498        1690.00      7359.30
 1121.62        2975.25           2502        1654.00      7202.29
 1121.65        2975.50           2505        1628.00      7088.89
 1121.68        2975.75           2509        1631.00      7101.98
 1121.71        2976.00           2512        1571.00      6840.30
 1121.74        2976.25           2516        1552.00      6757.44
 1121.77        2976.50           2520        1556.00      6774.88
 1121.80        2976.75           2523        1534.00      6678.94
 1121.83        2977.00           2527        1500.00      6530.66
 1121.86        2977.25           2530        1490.00      6487.05
 1121.90        2977.50           2534        1505.00      6552.46
 1121.93        2977.75           2537        1451.00      6316.96
 1121.96        2978.00           2541        1431.00      6229.74
 1121.99        2978.25           2544        1476.00      6425.99
 1122.02        2978.50           2548        1423.00      6194.85
 1122.05        2978.75           2552        1379.00      6002.97
 1122.08        2979.00           2555        1441.00      6273.35
 1122.11        2979.25           2559        1402.00      6103.27
 1122.14        2979.50           2562        1365.00      5941.92
 1122.17        2979.75           2566        1374.00      5981.16
 1122.20        2980.00           2569        1365.00      5941.92
 1122.23        2980.25           2573        1349.00      5872.14
 1122.26        2980.50           2577        1349.00      5872.14
 1122.29        2980.75           2580        1335.00      5811.09
 1122.32        2981.00           2584        1310.00      5702.06
 1122.35        2981.25           2587        1319.00      5741.31
 1122.38        2981.50           2591        1344.00      5850.34
 1122.41        2981.75           2594        1304.00      5675.90
 1122.45        2982.00           2598        1330.00      5789.28
 1122.48        2982.25           2601        1262.00      5492.74
 1122.51        2982.50           2605        1324.00      5763.12
 1122.54        2982.75           2609        1296.00      5641.01
 1122.57        2983.00           2612        1302.00      5667.18
 1122.60        2983.25           2616        1304.00      5675.90
 1122.63        2983.50           2619        1270.00      5527.63
 1122.66        2983.75           2623        1253.00      5453.50
 1122.69        2984.00           2626        1294.00      5632.29
HS scan finished at 18:42:55
end
