************************************************************
  HS Scan of 
************************************************************
Integration time is 0.2294 seconds per sample
dh210217Reading 51.44 .94 3.09pr1000
************************************************************
Dead Time -------------------------  3.4E-08 
Number of Cycles Used -------------  4 
Starting Wavelength (Angstroms) ---  2950 
Final Wavelength (Angstoms) -------  2984 
Wavelength Increment (Angstroms) --  .25 
Filter Wheel #1 Position ---------- (1) Ground quartz diffuser (ND=2.32)
Filter Wheel #2 Position ---------- (1) Neutral Density 0.494



************************************************************
HS scan start time = 04:23:16
Dark Count =  1.2 


Time (GMT)  Wavelength (Ang)  Step Number  Raw Counts  Counts/Second

  264.16        2950.00           2144         769.00      3347.37
  264.35        2950.25           2147         794.00      3456.38
  264.38        2950.50           2151         809.00      3521.78
  264.41        2950.75           2155         797.00      3469.46
  264.44        2951.00           2158         780.00      3395.34
  264.48        2951.25           2162         778.00      3386.61
  264.51        2951.50           2165         801.00      3486.90
  264.54        2951.75           2169         788.00      3430.22
  264.57        2952.00           2172         807.00      3513.06
  264.60        2952.25           2176         797.00      3469.46
  264.63        2952.50           2179         809.00      3521.78
  264.66        2952.75           2183         813.00      3539.22
  264.69        2953.00           2186         813.00      3539.22
  264.72        2953.25           2190         796.00      3465.10
  264.75        2953.50           2193         827.00      3600.27
  264.78        2953.75           2197         813.00      3539.22
  264.81        2954.00           2200         812.00      3534.86
  264.84        2954.25           2204         818.00      3561.02
  264.87        2954.50           2208         824.00      3587.19
  264.90        2954.75           2211         804.00      3499.98
  264.93        2955.00           2215         823.00      3582.83
  264.96        2955.25           2218         834.00      3630.79
  265.00        2955.50           2222         849.00      3696.19
  265.03        2955.75           2225         856.00      3726.71
  265.06        2956.00           2229         829.00      3608.99
  265.09        2956.25           2232         850.00      3700.55
  265.12        2956.50           2236         853.00      3713.63
  265.15        2956.75           2239         898.00      3909.85
  265.18        2957.00           2243         895.00      3896.77
  265.21        2957.25           2246         905.00      3940.37
  265.24        2957.50           2250         889.00      3870.61
  265.27        2957.75           2254         890.00      3874.97
  265.30        2958.00           2257         925.00      4027.58
  265.33        2958.25           2261         949.00      4132.23
  265.36        2958.50           2264         950.00      4136.59
  265.39        2958.75           2268         951.00      4140.95
  265.42        2959.00           2271         968.00      4215.08
  265.45        2959.25           2275         956.00      4162.75
  265.48        2959.50           2278         969.00      4219.44
  265.52        2959.75           2282         998.00      4345.89
  265.55        2960.00           2285        1005.00      4376.41
  265.58        2960.25           2289        1030.00      4485.43
  265.61        2960.50           2293        1077.00      4690.37
  265.64        2960.75           2296        1056.00      4598.80
  265.67        2961.00           2300        1153.00      5021.78
  265.70        2961.25           2303        1351.00      5885.22
  265.73        2961.50           2307        3570.00     15565.34
  265.76        2961.75           2310        9177.00     40053.64
  265.79        2962.00           2314       20702.00     90517.03
  265.82        2962.25           2317       31540.00    138131.10
  265.85        2962.50           2321       46203.00    202796.30
  265.88        2962.75           2324       56305.00    247513.60
  265.91        2963.00           2328       68839.00    303186.90
  265.94        2963.25           2331       78015.00    344079.40
  265.97        2963.50           2335       92940.00    410837.50
  266.00        2963.75           2339      107467.00    476109.80
  266.04        2964.00           2342      117867.00    523018.80
  266.07        2964.25           2346      133567.00    594120.60
  266.10        2964.50           2349      144543.00    644035.60
  266.13        2964.75           2353      158176.00    706273.20
  266.16        2965.00           2356      168711.00    754551.10
  266.19        2965.25           2360      182937.00    819999.20
  266.22        2965.50           2363      193209.00    867440.90
  266.25        2965.75           2367      205736.00    925508.60
  266.28        2966.00           2370      215353.00    970245.80
  266.31        2966.25           2374      227440.00   1026670.00
  266.34        2966.50           2378      235365.00   1063786.00
  266.37        2966.75           2381      237379.00   1073233.00
  266.40        2967.00           2385      237984.00   1076072.00
  266.43        2967.25           2388      237815.00   1075279.00
  266.46        2967.50           2392      238203.00   1077100.00
  266.49        2967.75           2395      237695.00   1074716.00
  266.52        2968.00           2399      233581.00   1055422.00
  266.56        2968.25           2402      226850.00   1023911.00
  266.59        2968.50           2406      216233.00    974346.40
  266.62        2968.75           2409      207617.00    934247.80
  266.65        2969.00           2413      194961.00    875548.10
  266.68        2969.25           2417      180684.00    809614.30
  266.71        2969.50           2420      170895.00    764579.60
  266.74        2969.75           2424      157168.00    701662.30
  266.77        2970.00           2427      147658.00    658232.80
  266.80        2970.25           2431      133989.00    596036.60
  266.83        2970.50           2434      122526.00    544082.20
  266.86        2970.75           2438      107416.00    475880.20
  266.89        2971.00           2441       96303.00    425922.10
  266.92        2971.25           2445       82165.00    362611.40
  266.95        2971.50           2449       68795.00    302991.10
  266.98        2971.75           2452       58900.00    259022.70
  267.01        2972.00           2456       45107.00    197953.00
  267.04        2972.25           2459       35139.00    153976.60
  267.08        2972.50           2463       22147.00     96856.36
  267.11        2972.75           2466       12787.00     55841.76
  267.14        2973.00           2470        3825.00     16678.16
  267.17        2973.25           2473        1696.00      7389.83
  267.20        2973.50           2477        1197.00      5213.65
  267.23        2973.75           2481        1130.00      4921.49
  267.26        2974.00           2484        1089.00      4742.70
  267.29        2974.25           2488        1067.00      4646.77
  267.32        2974.50           2491        1057.00      4603.16
  267.35        2974.75           2495        1033.00      4498.51
  267.38        2975.00           2498        1029.00      4481.07
  267.41        2975.25           2502        1018.00      4433.10
  267.44        2975.50           2505         953.00      4149.67
  267.47        2975.75           2509         973.00      4236.88
  267.50        2976.00           2512         942.00      4101.71
  267.53        2976.25           2516         938.00      4084.26
  267.56        2976.50           2520         924.00      4023.22
  267.60        2976.75           2523         916.00      3988.34
  267.63        2977.00           2527         887.00      3861.88
  267.66        2977.25           2530         906.00      3944.73
  267.69        2977.50           2534         914.00      3979.61
  267.72        2977.75           2537         918.00      3997.06
  267.75        2978.00           2541         887.00      3861.88
  267.78        2978.25           2544         873.00      3800.84
  267.81        2978.50           2548         852.00      3709.27
  267.84        2978.75           2552         860.00      3744.16
  267.87        2979.00           2555         863.00      3757.24
  267.90        2979.25           2559         844.00      3674.39
  267.93        2979.50           2562         845.00      3678.75
  267.96        2979.75           2566         828.00      3604.63
  267.99        2980.00           2569         819.00      3565.38
  268.02        2980.25           2573         808.00      3517.42
  268.05        2980.50           2577         804.00      3499.98
  268.08        2980.75           2580         814.00      3543.58
  268.12        2981.00           2584         804.00      3499.98
  268.15        2981.25           2587         828.00      3604.63
  268.18        2981.50           2591         771.00      3356.09
  268.21        2981.75           2594         792.00      3447.66
  268.24        2982.00           2598         813.00      3539.22
  268.27        2982.25           2601         781.00      3399.70
  268.30        2982.50           2605         808.00      3517.42
  268.33        2982.75           2609         781.00      3399.70
  268.36        2983.00           2612         782.00      3404.06
  268.39        2983.25           2616         766.00      3334.29
  268.42        2983.50           2619         765.00      3329.93
  268.45        2983.75           2623         789.00      3434.58
  268.48        2984.00           2626         756.00      3290.69
HS scan finished at 04:28:42
end
************************************************************
  HS Scan of 
************************************************************
Integration time is 0.2294 seconds per sample
dh210217Reading 51.44 .94 3.15pr1000
************************************************************
Dead Time -------------------------  3.4E-08 
Number of Cycles Used -------------  4 
Starting Wavelength (Angstroms) ---  2950 
Final Wavelength (Angstoms) -------  2984 
Wavelength Increment (Angstroms) --  .25 
Filter Wheel #1 Position ---------- (1) Ground quartz diffuser (ND=2.32)
Filter Wheel #2 Position ---------- (1) Neutral Density 0.494



************************************************************
HS scan start time = 18:37:28
Dark Count =  1.4 


Time (GMT)  Wavelength (Ang)  Step Number  Raw Counts  Counts/Second

 1118.37        2950.00           2144         698.00      3036.93
 1118.56        2950.25           2147         673.00      2927.93
 1118.59        2950.50           2151         670.00      2914.85
 1118.62        2950.75           2155         701.00      3050.01
 1118.65        2951.00           2158         670.00      2914.85
 1118.68        2951.25           2162         682.00      2967.17
 1118.71        2951.50           2165         692.00      3010.77
 1118.74        2951.75           2169         700.00      3045.65
 1118.78        2952.00           2172         694.00      3019.49
 1118.81        2952.25           2176         713.00      3102.33
 1118.84        2952.50           2179         692.00      3010.77
 1118.87        2952.75           2183         707.00      3076.17
 1118.90        2953.00           2186         700.00      3045.65
 1118.93        2953.25           2190         716.00      3115.41
 1118.96        2953.50           2193         691.00      3006.41
 1118.99        2953.75           2197         712.00      3097.97
 1119.02        2954.00           2200         720.00      3132.85
 1119.05        2954.25           2204         733.00      3189.54
 1119.08        2954.50           2208         707.00      3076.17
 1119.11        2954.75           2211         717.00      3119.77
 1119.14        2955.00           2215         702.00      3054.37
 1119.17        2955.25           2218         720.00      3132.85
 1119.20        2955.50           2222         744.00      3237.50
 1119.23        2955.75           2225         745.00      3241.86
 1119.27        2956.00           2229         729.00      3172.09
 1119.30        2956.25           2232         754.00      3281.10
 1119.33        2956.50           2236         762.00      3315.98
 1119.36        2956.75           2239         777.00      3381.38
 1119.39        2957.00           2243         767.00      3337.78
 1119.42        2957.25           2246         769.00      3346.50
 1119.45        2957.50           2250         791.00      3442.43
 1119.48        2957.75           2254         786.00      3420.62
 1119.51        2958.00           2257         792.00      3446.79
 1119.54        2958.25           2261         806.00      3507.83
 1119.57        2958.50           2264         780.00      3394.46
 1119.60        2958.75           2268         821.00      3573.23
 1119.63        2959.00           2271         799.00      3477.31
 1119.66        2959.25           2275         818.00      3560.15
 1119.69        2959.50           2278         832.00      3621.20
 1119.72        2959.75           2282         827.00      3599.39
 1119.75        2960.00           2285         838.00      3647.36
 1119.79        2960.25           2289         841.00      3660.44
 1119.82        2960.50           2293         894.00      3891.54
 1119.85        2960.75           2296         894.00      3891.54
 1119.88        2961.00           2300         982.00      4275.25
 1119.91        2961.25           2303        1155.00      5029.63
 1119.94        2961.50           2307        3354.00     14621.91
 1119.97        2961.75           2310        7827.00     34152.98
 1120.00        2962.00           2314       15918.00     69547.87
 1120.03        2962.25           2317       23143.00    101226.60
 1120.06        2962.50           2321       33416.00    146387.70
 1120.09        2962.75           2324       41612.00    182518.00
 1120.12        2963.00           2328       51842.00    227740.10
 1120.15        2963.25           2331       59671.00    262443.00
 1120.18        2963.50           2335       69778.00    307365.40
 1120.21        2963.75           2339       80236.00    353993.60
 1120.24        2964.00           2342       88099.00    389149.90
 1120.27        2964.25           2346       99639.00    440900.20
 1120.30        2964.50           2349      107047.00    474217.70
 1120.34        2964.75           2353      116077.00    514933.40
 1120.37        2965.00           2356      123205.00    547153.60
 1120.40        2965.25           2360      133734.00    594877.90
 1120.43        2965.50           2363      141115.00    628427.00
 1120.46        2965.75           2367      151664.00    676510.30
 1120.49        2966.00           2370      159034.00    710198.10
 1120.52        2966.25           2374      168061.00    751566.80
 1120.55        2966.50           2378      174539.00    781326.80
 1120.58        2966.75           2381      176467.00    790195.80
 1120.61        2967.00           2385      176955.00    792441.50
 1120.64        2967.25           2388      176695.00    791245.00
 1120.67        2967.50           2392      177253.00    793813.00
 1120.70        2967.75           2395      176936.00    792354.00
 1120.73        2968.00           2399      175109.00    783948.20
 1120.76        2968.25           2402      170203.00    761400.30
 1120.79        2968.50           2406      161563.00    721776.10
 1120.82        2968.75           2409      154679.00    690282.30
 1120.86        2969.00           2413      145423.00    648044.10
 1120.89        2969.25           2417      135363.00    602275.60
 1120.92        2969.50           2420      127729.00    567640.30
 1120.95        2969.75           2424      117697.00    522250.00
 1120.98        2970.00           2427      109786.00    486555.70
 1121.01        2970.25           2431       99222.00    439026.90
 1121.04        2970.50           2434       91534.00    404534.70
 1121.07        2970.75           2438       81519.00    359724.30
 1121.10        2971.00           2441       73841.00    325463.10
 1121.13        2971.25           2445       62369.00    274421.30
 1121.16        2971.50           2449       51172.00    224774.00
 1121.19        2971.75           2452       43235.00    189683.20
 1121.22        2972.00           2456       32606.00    142821.80
 1121.25        2972.25           2459       25148.00    110029.90
 1121.28        2972.50           2463       15706.00     68619.37
 1121.31        2972.75           2466        9045.00     39475.79
 1121.34        2973.00           2470        2790.00     12161.09
 1121.38        2973.25           2473        1268.00      5522.40
 1121.41        2973.50           2477         959.00      4174.96
 1121.44        2973.75           2481         947.00      4122.64
 1121.47        2974.00           2484         897.00      3904.62
 1121.50        2974.25           2488         863.00      3756.36
 1121.53        2974.50           2491         847.00      3686.60
 1121.56        2974.75           2495         833.00      3625.56
 1121.59        2975.00           2498         835.00      3634.28
 1121.62        2975.25           2502         837.00      3643.00
 1121.65        2975.50           2505         811.00      3529.63
 1121.68        2975.75           2509         797.00      3468.59
 1121.71        2976.00           2512         795.00      3459.87
 1121.74        2976.25           2516         783.00      3407.54
 1121.77        2976.50           2520         774.00      3368.30
 1121.80        2976.75           2523         773.00      3363.94
 1121.83        2977.00           2527         749.00      3259.30
 1121.86        2977.25           2530         764.00      3324.70
 1121.90        2977.50           2534         766.00      3333.42
 1121.93        2977.75           2537         753.00      3276.74
 1121.96        2978.00           2541         743.00      3233.14
 1121.99        2978.25           2544         745.00      3241.86
 1122.02        2978.50           2548         731.00      3180.81
 1122.05        2978.75           2552         741.00      3224.42
 1122.08        2979.00           2555         701.00      3050.01
 1122.11        2979.25           2559         690.00      3002.05
 1122.14        2979.50           2562         719.00      3128.49
 1122.17        2979.75           2566         705.00      3067.45
 1122.20        2980.00           2569         705.00      3067.45
 1122.23        2980.25           2573         681.00      2962.81
 1122.26        2980.50           2577         688.00      2993.33
 1122.29        2980.75           2580         690.00      3002.05
 1122.32        2981.00           2584         667.00      2901.77
 1122.35        2981.25           2587         686.00      2984.61
 1122.38        2981.50           2591         677.00      2945.37
 1122.42        2981.75           2594         660.00      2871.25
 1122.45        2982.00           2598         682.00      2967.17
 1122.48        2982.25           2601         662.00      2879.97
 1122.51        2982.50           2605         674.00      2932.29
 1122.54        2982.75           2609         662.00      2879.97
 1122.57        2983.00           2612         670.00      2914.85
 1122.60        2983.25           2616         645.00      2805.85
 1122.63        2983.50           2619         669.00      2910.49
 1122.66        2983.75           2623         641.00      2788.41
 1122.69        2984.00           2626         689.00      2997.69
HS scan finished at 18:42:55
end
