************************************************************
  HS Scan of 
************************************************************
Integration time is 0.2294 seconds per sample
dh190217Reading 51.44 .94 2.74pr1000
************************************************************
Dead Time -------------------------  3.4E-08 
Number of Cycles Used -------------  4 
Starting Wavelength (Angstroms) ---  2950 
Final Wavelength (Angstoms) -------  2984 
Wavelength Increment (Angstroms) --  .25 
Filter Wheel #1 Position ---------- (1) Ground quartz diffuser (ND=2.32)
Filter Wheel #2 Position ---------- (1) Neutral Density 0.494



************************************************************
HS scan start time = 04:27:31
Dark Count =  .6 


Time (GMT)  Wavelength (Ang)  Step Number  Raw Counts  Counts/Second

  268.41        2950.00           2144         822.00      3581.08
  268.60        2950.25           2147         803.00      3498.24
  268.64        2950.50           2151         801.00      3489.52
  268.67        2950.75           2155         841.00      3663.93
  268.70        2951.00           2158         816.00      3554.92
  268.73        2951.25           2162         792.00      3450.27
  268.76        2951.50           2165         826.00      3598.52
  268.79        2951.75           2169         848.00      3694.45
  268.82        2952.00           2172         794.00      3458.99
  268.85        2952.25           2176         786.00      3424.11
  268.88        2952.50           2179         846.00      3685.73
  268.91        2952.75           2183         847.00      3690.09
  268.94        2953.00           2186         864.00      3764.21
  268.97        2953.25           2190         866.00      3772.93
  269.00        2953.50           2193         864.00      3764.21
  269.03        2953.75           2197         859.00      3742.41
  269.06        2954.00           2200         863.00      3759.85
  269.09        2954.25           2204         877.00      3820.90
  269.12        2954.50           2208         849.00      3698.81
  269.16        2954.75           2211         882.00      3842.70
  269.19        2955.00           2215         877.00      3820.90
  269.22        2955.25           2218         869.00      3786.02
  269.25        2955.50           2222         895.00      3899.38
  269.28        2955.75           2225         886.00      3860.14
  269.31        2956.00           2229         877.00      3820.90
  269.34        2956.25           2232         923.00      4021.47
  269.37        2956.50           2236         933.00      4065.08
  269.40        2956.75           2239         924.00      4025.83
  269.43        2957.00           2243         912.00      3973.51
  269.46        2957.25           2246         943.00      4108.68
  269.49        2957.50           2250         929.00      4047.64
  269.52        2957.75           2254         934.00      4069.44
  269.55        2958.00           2257         915.00      3986.59
  269.58        2958.25           2261         940.00      4095.60
  269.61        2958.50           2264         943.00      4108.68
  269.64        2958.75           2268         953.00      4152.29
  269.67        2959.00           2271         995.00      4335.43
  269.71        2959.25           2275         954.00      4156.65
  269.74        2959.50           2278        1016.00      4427.00
  269.77        2959.75           2282        1027.00      4474.96
  269.80        2960.00           2285        1033.00      4501.13
  269.83        2960.25           2289        1020.00      4444.44
  269.86        2960.50           2293        1057.00      4605.78
  269.89        2960.75           2296        1081.00      4710.43
  269.92        2961.00           2300        1132.00      4932.82
  269.95        2961.25           2303        1290.00      5621.82
  269.98        2961.50           2307        3964.00     17287.40
  270.01        2961.75           2310        9801.00     42784.08
  270.04        2962.00           2314       20798.00     90940.74
  270.07        2962.25           2317       29534.00    129309.20
  270.10        2962.50           2321       40391.00    177133.30
  270.13        2962.75           2324       48465.00    212800.00
  270.16        2963.00           2328       60582.00    266490.00
  270.19        2963.25           2331       70510.00    310627.80
  270.23        2963.50           2335       83480.00    368491.10
  270.26        2963.75           2339       95353.00    421662.10
  270.29        2964.00           2342      104727.00    463778.80
  270.32        2964.25           2346      117376.00    520803.50
  270.35        2964.50           2349      125490.00    557501.10
  270.38        2964.75           2353      137425.00    611648.80
  270.41        2965.00           2356      146920.00    654870.80
  270.44        2965.25           2360      158356.00    707099.50
  270.47        2965.50           2363      167245.00    747826.10
  270.50        2965.75           2367      178952.00    801638.80
  270.53        2966.00           2370      186912.00    838342.30
  270.56        2966.25           2374      196854.00    884315.80
  270.59        2966.50           2378      202867.00    912191.80
  270.62        2966.75           2381      204670.00    920561.00
  270.65        2967.00           2385      205234.00    923179.90
  270.68        2967.25           2388      205587.00    924819.30
  270.71        2967.50           2392      204849.00    921392.00
  270.75        2967.75           2395      204676.00    920588.80
  270.78        2968.00           2399      200823.00    902709.90
  270.81        2968.25           2402      194679.00    874245.80
  270.84        2968.50           2406      184394.00    826721.80
  270.87        2968.75           2409      175763.00    786960.40
  270.90        2969.00           2413      165000.00    737529.40
  270.93        2969.25           2417      153261.00    683807.10
  270.96        2969.50           2420      144711.00    644803.80
  270.99        2969.75           2424      133315.00    592979.50
  271.02        2970.00           2427      124655.00    553720.30
  271.05        2970.25           2431      111430.00    493969.70
  271.08        2970.50           2434      101976.00    451406.20
  271.11        2970.75           2438       89741.00    396505.70
  271.14        2971.00           2441       81127.00    357976.60
  271.17        2971.25           2445       70219.00    309332.20
  271.20        2971.50           2449       58124.00    255582.80
  271.23        2971.75           2452       48848.00    214494.10
  271.27        2972.00           2456       37676.00    165159.40
  271.30        2972.25           2459       28807.00    126112.40
  271.33        2972.50           2463       17332.00     75745.84
  271.36        2972.75           2466        9438.00     41197.16
  271.39        2973.00           2470        2858.00     12461.25
  271.42        2973.25           2473        1535.00      6690.28
  271.45        2973.50           2477        1145.00      4989.51
  271.48        2973.75           2481        1105.00      4815.09
  271.51        2974.00           2484        1109.00      4832.53
  271.54        2974.25           2488        1055.00      4597.06
  271.57        2974.50           2491        1011.00      4405.19
  271.60        2974.75           2495        1043.00      4544.73
  271.63        2975.00           2498        1020.00      4444.44
  271.66        2975.25           2502         983.00      4283.10
  271.69        2975.50           2505         999.00      4352.87
  271.72        2975.75           2509         951.00      4143.57
  271.75        2976.00           2512         948.00      4130.48
  271.79        2976.25           2516         918.00      3999.67
  271.82        2976.50           2520         944.00      4113.04
  271.85        2976.75           2523         931.00      4056.36
  271.88        2977.00           2527         895.00      3899.38
  271.91        2977.25           2530         932.00      4060.72
  271.94        2977.50           2534         887.00      3864.50
  271.97        2977.75           2537         892.00      3886.30
  272.00        2978.00           2541         899.00      3916.83
  272.03        2978.25           2544         892.00      3886.30
  272.06        2978.50           2548         873.00      3803.46
  272.09        2978.75           2552         877.00      3820.90
  272.12        2979.00           2555         882.00      3842.70
  272.15        2979.25           2559         834.00      3633.40
  272.18        2979.50           2562         846.00      3685.73
  272.21        2979.75           2566         890.00      3877.58
  272.24        2980.00           2569         833.00      3629.04
  272.27        2980.25           2573         832.00      3624.68
  272.31        2980.50           2577         838.00      3650.85
  272.34        2980.75           2580         845.00      3681.37
  272.37        2981.00           2584         812.00      3537.48
  272.40        2981.25           2587         798.00      3476.44
  272.43        2981.50           2591         822.00      3581.08
  272.46        2981.75           2594         808.00      3520.04
  272.49        2982.00           2598         820.00      3572.36
  272.52        2982.25           2601         796.00      3467.71
  272.55        2982.50           2605         830.00      3615.96
  272.58        2982.75           2609         797.00      3472.08
  272.61        2983.00           2612         807.00      3515.68
  272.64        2983.25           2616         781.00      3402.31
  272.67        2983.50           2619         815.00      3550.56
  272.70        2983.75           2623         786.00      3424.11
  272.73        2984.00           2626         825.00      3594.16
HS scan finished at 04:32:57
end
************************************************************
  HS Scan of 
************************************************************
Integration time is 0.2294 seconds per sample
dh190217Reading 51.44 .94 3.09pr1000
************************************************************
Dead Time -------------------------  3.4E-08 
Number of Cycles Used -------------  4 
Starting Wavelength (Angstroms) ---  2950 
Final Wavelength (Angstoms) -------  2984 
Wavelength Increment (Angstroms) --  .25 
Filter Wheel #1 Position ---------- (1) Ground quartz diffuser (ND=2.32)
Filter Wheel #2 Position ---------- (1) Neutral Density 0.494



************************************************************
HS scan start time = 18:07:27
Dark Count =  1.1 


Time (GMT)  Wavelength (Ang)  Step Number  Raw Counts  Counts/Second

 1088.35        2950.00           2144         731.00      3182.12
 1088.55        2950.25           2147         740.00      3221.36
 1088.58        2950.50           2151         753.00      3278.05
 1088.61        2950.75           2155         775.00      3373.97
 1088.64        2951.00           2158         791.00      3443.73
 1088.67        2951.25           2162         741.00      3225.72
 1088.70        2951.50           2165         745.00      3243.17
 1088.73        2951.75           2169         772.00      3360.89
 1088.76        2952.00           2172         753.00      3278.05
 1088.79        2952.25           2176         753.00      3278.05
 1088.82        2952.50           2179         754.00      3282.41
 1088.85        2952.75           2183         804.00      3500.42
 1088.88        2953.00           2186         776.00      3378.33
 1088.91        2953.25           2190         790.00      3439.37
 1088.94        2953.50           2193         782.00      3404.49
 1088.97        2953.75           2197         794.00      3456.81
 1089.01        2954.00           2200         780.00      3395.77
 1089.04        2954.25           2204         806.00      3509.14
 1089.07        2954.50           2208         804.00      3500.42
 1089.10        2954.75           2211         810.00      3526.58
 1089.13        2955.00           2215         807.00      3513.50
 1089.16        2955.25           2218         814.00      3544.02
 1089.19        2955.50           2222         795.00      3461.17
 1089.22        2955.75           2225         811.00      3530.94
 1089.25        2956.00           2229         824.00      3587.62
 1089.28        2956.25           2232         812.00      3535.30
 1089.31        2956.50           2236         816.00      3552.74
 1089.34        2956.75           2239         847.00      3687.91
 1089.37        2957.00           2243         841.00      3661.75
 1089.40        2957.25           2246         825.00      3591.98
 1089.43        2957.50           2250         871.00      3792.56
 1089.46        2957.75           2254         847.00      3687.91
 1089.49        2958.00           2257         866.00      3770.75
 1089.52        2958.25           2261         844.00      3674.83
 1089.56        2958.50           2264         902.00      3927.73
 1089.59        2958.75           2268         885.00      3853.60
 1089.62        2959.00           2271         912.00      3971.33
 1089.65        2959.25           2275         896.00      3901.56
 1089.68        2959.50           2278         887.00      3862.32
 1089.71        2959.75           2282         932.00      4058.54
 1089.74        2960.00           2285         962.00      4189.35
 1089.77        2960.25           2289         976.00      4250.40
 1089.80        2960.50           2293         945.00      4115.22
 1089.83        2960.75           2296         966.00      4206.79
 1089.86        2961.00           2300        1021.00      4446.62
 1089.89        2961.25           2303        1121.00      4882.68
 1089.92        2961.50           2307        2447.00     10666.03
 1089.95        2961.75           2310        6765.00     29514.78
 1089.98        2962.00           2314       15519.00     67801.72
 1090.01        2962.25           2317       21612.00     94509.40
 1090.04        2962.50           2321       31217.00    136710.30
 1090.08        2962.75           2324       39248.00    172089.00
 1090.11        2963.00           2328       51050.00    224235.30
 1090.14        2963.25           2331       59545.00    261885.10
 1090.17        2963.50           2335       71255.00    313943.10
 1090.20        2963.75           2339       81897.00    361414.40
 1090.23        2964.00           2342       90260.00    398828.10
 1090.26        2964.25           2346      102479.00    453665.40
 1090.29        2964.50           2349      111326.00    493498.70
 1090.32        2964.75           2353      122102.00    542164.50
 1090.35        2965.00           2356      130326.00    579414.90
 1090.38        2965.25           2360      139950.00    623128.00
 1090.41        2965.50           2363      148156.00    660504.30
 1090.44        2965.75           2367      158810.00    709174.60
 1090.47        2966.00           2370      166292.00    743452.00
 1090.50        2966.25           2374      175555.00    786001.20
 1090.53        2966.50           2378      183533.00    822748.10
 1090.56        2966.75           2381      186217.00    835131.60
 1090.60        2967.00           2385      187603.00    841530.60
 1090.63        2967.25           2388      186903.00    838298.50
 1090.66        2967.50           2392      186935.00    838446.30
 1090.69        2967.75           2395      186938.00    838460.10
 1090.72        2968.00           2399      185076.00    829866.00
 1090.75        2968.25           2402      179531.00    804303.10
 1090.78        2968.50           2406      170300.00    761847.20
 1090.81        2968.75           2409      162666.00    726830.10
 1090.84        2969.00           2413      152770.00    681562.30
 1090.87        2969.25           2417      142603.00    635201.20
 1090.90        2969.50           2420      135507.00    602931.10
 1090.93        2969.75           2424      124864.00    554664.30
 1090.96        2970.00           2427      116670.00    517612.50
 1090.99        2970.25           2431      104716.00    463727.10
 1091.02        2970.50           2434       96706.00    427731.30
 1091.05        2970.75           2438       85595.00    377946.40
 1091.08        2971.00           2441       77757.00    342928.50
 1091.12        2971.25           2445       67199.00    295890.80
 1091.15        2971.50           2449       57063.00    250874.90
 1091.18        2971.75           2452       49191.00    216009.10
 1091.21        2972.00           2456       38020.00    166673.80
 1091.24        2972.25           2459       29125.00    127508.40
 1091.27        2972.50           2463       18470.00     80730.88
 1091.30        2972.75           2466       11381.00     49691.13
 1091.33        2973.00           2470        4315.00     18817.18
 1091.36        2973.25           2473        2021.00      8807.78
 1091.39        2973.50           2477        1134.00      4939.37
 1091.42        2973.75           2481         987.00      4298.36
 1091.45        2974.00           2484        1013.00      4411.73
 1091.48        2974.25           2488         981.00      4272.20
 1091.51        2974.50           2491         942.00      4102.14
 1091.54        2974.75           2495         926.00      4032.38
 1091.57        2975.00           2498         943.00      4106.50
 1091.60        2975.25           2502         896.00      3901.56
 1091.64        2975.50           2505         881.00      3836.16
 1091.67        2975.75           2509         863.00      3757.67
 1091.70        2976.00           2512         872.00      3796.92
 1091.73        2976.25           2516         877.00      3818.72
 1091.76        2976.50           2520         852.00      3709.71
 1091.79        2976.75           2523         874.00      3805.64
 1091.82        2977.00           2527         835.00      3635.58
 1091.85        2977.25           2530         831.00      3618.14
 1091.88        2977.50           2534         861.00      3748.95
 1091.91        2977.75           2537         842.00      3666.11
 1091.94        2978.00           2541         806.00      3509.14
 1091.97        2978.25           2544         788.00      3430.65
 1092.00        2978.50           2548         805.00      3504.78
 1092.03        2978.75           2552         780.00      3395.77
 1092.06        2979.00           2555         802.00      3491.70
 1092.09        2979.25           2559         798.00      3474.26
 1092.12        2979.50           2562         809.00      3522.22
 1092.16        2979.75           2566         785.00      3417.57
 1092.19        2980.00           2569         753.00      3278.05
 1092.22        2980.25           2573         763.00      3321.65
 1092.25        2980.50           2577         781.00      3400.13
 1092.28        2980.75           2580         777.00      3382.69
 1092.31        2981.00           2584         776.00      3378.33
 1092.34        2981.25           2587         752.00      3273.69
 1092.37        2981.50           2591         732.00      3186.48
 1092.40        2981.75           2594         713.00      3103.64
 1092.43        2982.00           2598         776.00      3378.33
 1092.46        2982.25           2601         725.00      3155.96
 1092.49        2982.50           2605         755.00      3286.77
 1092.52        2982.75           2609         765.00      3330.37
 1092.55        2983.00           2612         734.00      3195.20
 1092.58        2983.25           2616         739.00      3217.00
 1092.61        2983.50           2619         708.00      3081.84
 1092.64        2983.75           2623         723.00      3147.24
 1092.68        2984.00           2626         725.00      3155.96
HS scan finished at 18:12:54
end
