************************************************************
  HS Scan of (1) Internal mercury lamp
************************************************************
Integration time is 0.2294 seconds per sample
dh250219Reading 51.44 .94 2.56pr1000
************************************************************
Dead Time -------------------------  3.4E-08 
Number of Cycles Used -------------  4 
Starting Wavelength (Angstroms) ---  2950 
Final Wavelength (Angstoms) -------  2984 
Wavelength Increment (Angstroms) --  .25 
Filter Wheel #1 Position ---------- (1) Ground quartz diffuser (ND=2.32)
Filter Wheel #2 Position ---------- (1) Neutral Density 0.494



************************************************************
HS scan start time = 04:15:23
Dark Count =  .2 


Time (GMT)  Wavelength (Ang)  Step Number  Raw Counts  Counts/Second

  256.29        2950.00           2144        1671.00      7285.15
  256.48        2950.25           2147        1634.00      7123.78
  256.51        2950.50           2151        1643.00      7163.03
  256.54        2950.75           2155        1629.00      7101.98
  256.57        2951.00           2158        1680.00      7324.40
  256.60        2951.25           2162        1640.00      7149.95
  256.63        2951.50           2165        1663.00      7250.26
  256.66        2951.75           2169        1658.00      7228.46
  256.69        2952.00           2172        1654.00      7211.01
  256.73        2952.25           2176        1647.00      7180.48
  256.76        2952.50           2179        1690.00      7368.02
  256.79        2952.75           2183        1666.00      7263.35
  256.82        2953.00           2186        1655.00      7215.37
  256.85        2953.25           2190        1637.00      7136.87
  256.88        2953.50           2193        1670.00      7280.79
  256.91        2953.75           2197        1692.00      7376.74
  256.94        2954.00           2200        1703.00      7424.72
  256.97        2954.25           2204        1682.00      7333.13
  257.00        2954.50           2208        1669.00      7276.43
  257.03        2954.75           2211        1696.00      7394.19
  257.06        2955.00           2215        1697.00      7398.55
  257.09        2955.25           2218        1718.00      7490.14
  257.12        2955.50           2222        1701.00      7415.99
  257.15        2955.75           2225        1738.00      7577.37
  257.18        2956.00           2229        1770.00      7716.93
  257.22        2956.25           2232        1742.00      7594.81
  257.25        2956.50           2236        1796.00      7830.33
  257.28        2956.75           2239        1726.00      7525.03
  257.31        2957.00           2243        1828.00      7969.90
  257.34        2957.25           2246        1795.00      7825.97
  257.37        2957.50           2250        1836.00      8004.79
  257.40        2957.75           2254        1857.00      8096.39
  257.43        2958.00           2257        1867.00      8140.00
  257.46        2958.25           2261        1849.00      8061.50
  257.49        2958.50           2264        1846.00      8048.41
  257.52        2958.75           2268        1867.00      8140.00
  257.55        2959.00           2271        1930.00      8414.79
  257.58        2959.25           2275        1918.00      8362.45
  257.61        2959.50           2278        1958.00      8536.92
  257.64        2959.75           2282        1964.00      8563.09
  257.67        2960.00           2285        1950.00      8502.02
  257.70        2960.25           2289        2051.00      8942.56
  257.74        2960.50           2293        2070.00      9025.44
  257.77        2960.75           2296        2114.00      9217.36
  257.80        2961.00           2300        2204.00      9609.94
  257.83        2961.25           2303        2684.00     11703.87
  257.86        2961.50           2307        6684.00     29164.91
  257.89        2961.75           2310       15352.00     67074.33
  257.92        2962.00           2314       34046.00    149167.00
  257.95        2962.25           2317       50301.00    220924.40
  257.98        2962.50           2321       71813.00    316432.40
  258.01        2962.75           2324       86546.00    382204.90
  258.04        2963.00           2328      107887.00    478005.80
  258.07        2963.25           2331      125429.00    557226.60
  258.10        2963.50           2335      149303.00    665740.30
  258.13        2963.75           2339      171747.00    768498.30
  258.16        2964.00           2342      187822.00    842546.00
  258.19        2964.25           2346      212052.00    954878.90
  258.22        2964.50           2349      229587.00   1036721.00
  258.25        2964.75           2353      251242.00   1138436.00
  258.29        2965.00           2356      265977.00   1208060.00
  258.32        2965.25           2360      287165.00   1308769.00
  258.35        2965.50           2363      303799.00   1388330.00
  258.38        2965.75           2367      323661.00   1483912.00
  258.41        2966.00           2370      338880.00   1557585.00
  258.44        2966.25           2374      355451.00   1638235.00
  258.47        2966.50           2378      367080.00   1695107.00
  258.50        2966.75           2381      370763.00   1713166.00
  258.53        2967.00           2385      373278.00   1725511.00
  258.56        2967.25           2388      373130.00   1724784.00
  258.59        2967.50           2392      372776.00   1723046.00
  258.62        2967.75           2395      371230.00   1715457.00
  258.65        2968.00           2399      365395.00   1686852.00
  258.68        2968.25           2402      355113.00   1636586.00
  258.71        2968.50           2406      337412.00   1550462.00
  258.74        2968.75           2409      323739.00   1484289.00
  258.77        2969.00           2413      304648.00   1392403.00
  258.81        2969.25           2417      284810.00   1297541.00
  258.84        2969.50           2420      269893.00   1226621.00
  258.87        2969.75           2424      249970.00   1132442.00
  258.90        2970.00           2427      234104.00   1057878.00
  258.93        2970.25           2431      211284.00    951305.00
  258.96        2970.50           2434      193018.00    866561.90
  258.99        2970.75           2438      167951.00    751067.50
  259.02        2971.00           2441      151051.00    673717.30
  259.05        2971.25           2445      127761.00    567790.60
  259.08        2971.50           2449      106282.00    470778.90
  259.11        2971.75           2452       90565.00    400198.40
  259.14        2972.00           2456       69604.00    306596.10
  259.17        2972.25           2459       53227.00    233878.60
  259.20        2972.50           2463       31807.00    139310.40
  259.23        2972.75           2466       18307.00     80020.38
  259.26        2973.00           2470        6816.00     29741.48
  259.29        2973.25           2473        3327.00     14509.34
  259.33        2973.50           2477        2221.00      9684.10
  259.36        2973.75           2481        2105.00      9178.10
  259.39        2974.00           2484        2051.00      8942.56
  259.42        2974.25           2488        2021.00      8811.71
  259.45        2974.50           2491        1970.00      8589.26
  259.48        2974.75           2495        1971.00      8593.62
  259.51        2975.00           2498        1934.00      8432.23
  259.54        2975.25           2502        1913.00      8340.64
  259.57        2975.50           2505        1880.00      8196.71
  259.60        2975.75           2509        1869.00      8148.73
  259.63        2976.00           2512        1846.00      8048.41
  259.66        2976.25           2516        1844.00      8039.69
  259.69        2976.50           2520        1795.00      7825.97
  259.72        2976.75           2523        1766.00      7699.49
  259.75        2977.00           2527        1761.00      7677.68
  259.78        2977.25           2530        1779.00      7756.19
  259.81        2977.50           2534        1720.00      7498.86
  259.85        2977.75           2537        1730.00      7542.47
  259.88        2978.00           2541        1696.00      7394.19
  259.91        2978.25           2544        1682.00      7333.13
  259.94        2978.50           2548        1724.00      7516.31
  259.97        2978.75           2552        1667.00      7267.71
  260.00        2979.00           2555        1646.00      7176.12
  260.03        2979.25           2559        1656.00      7219.73
  260.06        2979.50           2562        1643.00      7163.03
  260.09        2979.75           2566        1594.00      6949.33
  260.12        2980.00           2569        1603.00      6988.58
  260.15        2980.25           2573        1614.00      7036.56
  260.18        2980.50           2577        1569.00      6840.30
  260.21        2980.75           2580        1621.00      7067.09
  260.24        2981.00           2584        1601.00      6979.86
  260.27        2981.25           2587        1614.00      7036.56
  260.30        2981.50           2591        1536.00      6696.38
  260.33        2981.75           2594        1532.00      6678.94
  260.37        2982.00           2598        1535.00      6692.02
  260.40        2982.25           2601        1553.00      6770.52
  260.43        2982.50           2605        1524.00      6644.05
  260.46        2982.75           2609        1548.00      6748.72
  260.49        2983.00           2612        1541.00      6718.19
  260.52        2983.25           2616        1566.00      6827.22
  260.55        2983.50           2619        1506.00      6565.55
  260.58        2983.75           2623        1519.00      6622.24
  260.61        2984.00           2626        1532.00      6678.94
HS scan finished at 04:20:50
end
************************************************************
  HS Scan of (1) Internal mercury lamp
************************************************************
Integration time is 0.2294 seconds per sample
dh250219Reading 51.44 .94 3.43pr1000
************************************************************
Dead Time -------------------------  3.4E-08 
Number of Cycles Used -------------  4 
Starting Wavelength (Angstroms) ---  2950 
Final Wavelength (Angstoms) -------  2984 
Wavelength Increment (Angstroms) --  .25 
Filter Wheel #1 Position ---------- (1) Ground quartz diffuser (ND=2.32)
Filter Wheel #2 Position ---------- (1) Neutral Density 0.494



************************************************************
HS scan start time = 18:37:26
Dark Count =  3 


Time (GMT)  Wavelength (Ang)  Step Number  Raw Counts  Counts/Second

 1118.34        2950.00           2144        1455.00      6330.92
 1118.53        2950.25           2147        1453.00      6322.20
 1118.56        2950.50           2151        1432.00      6230.61
 1118.59        2950.75           2155        1465.00      6374.53
 1118.62        2951.00           2158        1449.00      6304.75
 1118.65        2951.25           2162        1489.00      6479.20
 1118.68        2951.50           2165        1456.00      6335.28
 1118.71        2951.75           2169        1496.00      6509.72
 1118.74        2952.00           2172        1469.00      6391.97
 1118.77        2952.25           2176        1506.00      6553.33
 1118.80        2952.50           2179        1497.00      6514.08
 1118.83        2952.75           2183        1499.00      6522.81
 1118.87        2953.00           2186        1477.00      6426.86
 1118.90        2953.25           2190        1514.00      6588.22
 1118.93        2953.50           2193        1496.00      6509.72
 1118.96        2953.75           2197        1513.00      6583.86
 1118.99        2954.00           2200        1523.00      6627.47
 1119.02        2954.25           2204        1528.00      6649.28
 1119.05        2954.50           2208        1543.00      6714.70
 1119.08        2954.75           2211        1552.00      6753.95
 1119.11        2955.00           2215        1563.00      6801.92
 1119.14        2955.25           2218        1575.00      6854.26
 1119.17        2955.50           2222        1569.00      6828.09
 1119.20        2955.75           2225        1573.00      6845.53
 1119.23        2956.00           2229        1591.00      6924.04
 1119.26        2956.25           2232        1581.00      6880.42
 1119.29        2956.50           2236        1650.00      7181.35
 1119.32        2956.75           2239        1628.00      7085.40
 1119.36        2957.00           2243        1636.00      7120.29
 1119.39        2957.25           2246        1654.00      7198.80
 1119.42        2957.50           2250        1685.00      7334.00
 1119.45        2957.75           2254        1665.00      7246.77
 1119.48        2958.00           2257        1719.00      7482.29
 1119.51        2958.25           2261        1726.00      7512.82
 1119.54        2958.50           2264        1730.00      7530.26
 1119.57        2958.75           2268        1754.00      7634.94
 1119.60        2959.00           2271        1753.00      7630.58
 1119.63        2959.25           2275        1764.00      7678.55
 1119.66        2959.50           2278        1827.00      7953.33
 1119.69        2959.75           2282        1847.00      8040.56
 1119.72        2960.00           2285        1854.00      8071.09
 1119.75        2960.25           2289        1919.00      8354.60
 1119.78        2960.50           2293        1931.00      8406.94
 1119.81        2960.75           2296        1981.00      8625.02
 1119.84        2961.00           2300        2078.00      9048.12
 1119.87        2961.25           2303        2467.00     10744.99
 1119.91        2961.50           2307        6335.00     27628.38
 1119.94        2961.75           2310       15448.00     67482.47
 1119.97        2962.00           2314       34305.00    150295.30
 1120.00        2962.25           2317       52188.00    229265.00
 1120.03        2962.50           2321       77194.00    340408.00
 1120.06        2962.75           2324       96429.00    426479.50
 1120.09        2963.00           2328      123323.00    547680.40
 1120.12        2963.25           2331      143259.00    638179.40
 1120.15        2963.50           2335      167213.00    747668.30
 1120.18        2963.75           2339      191188.00    858086.20
 1120.21        2964.00           2342      212559.00    957225.80
 1120.24        2964.25           2346      240467.00   1087722.00
 1120.27        2964.50           2349      260636.00   1182771.00
 1120.30        2964.75           2353      285258.00   1299663.00
 1120.33        2965.00           2356      301649.00   1378008.00
 1120.36        2965.25           2360      325324.00   1491930.00
 1120.39        2965.50           2363      345528.00   1589872.00
 1120.43        2965.75           2367      370169.00   1710238.00
 1120.46        2966.00           2370      388034.00   1798144.00
 1120.49        2966.25           2374      408360.00   1898824.00
 1120.52        2966.50           2378      425195.00   1982755.00
 1120.55        2966.75           2381      430379.00   2008700.00
 1120.58        2967.00           2385      432087.00   2017259.00
 1120.61        2967.25           2388      433291.00   2023295.00
 1120.64        2967.50           2392      432824.00   2020954.00
 1120.67        2967.75           2395      431794.00   2015791.00
 1120.70        2968.00           2399      428066.00   1997118.00
 1120.73        2968.25           2402      418682.00   1950226.00
 1120.76        2968.50           2406      400010.00   1857378.00
 1120.79        2968.75           2409      384167.00   1779070.00
 1120.82        2969.00           2413      362783.00   1674052.00
 1120.85        2969.25           2417      338143.00   1553995.00
 1120.88        2969.50           2420      319367.00   1463180.00
 1120.91        2969.75           2424      293710.00   1340008.00
 1120.95        2970.00           2427      273849.00   1245381.00
 1120.98        2970.25           2431      250311.00   1134035.00
 1121.01        2970.50           2434      231831.00   1047215.00
 1121.04        2970.75           2438      205501.00    924408.80
 1121.07        2971.00           2441      184552.00    827439.50
 1121.11        2971.25           2445      157967.00    705308.80
 1121.14        2971.50           2449      130835.00    581715.00
 1121.17        2971.75           2452      111689.00    495126.80
 1121.20        2972.00           2456       85321.00    376712.30
 1121.23        2972.25           2459       65890.00    290061.00
 1121.26        2972.50           2463       41064.00    180092.40
 1121.29        2972.75           2466       24753.00    108288.10
 1121.32        2973.00           2470        8556.00     37331.57
 1121.35        2973.25           2473        3611.00     15736.40
 1121.38        2973.50           2477        2245.00      9776.57
 1121.41        2973.75           2481        2064.00      8987.05
 1121.44        2974.00           2484        2038.00      8873.64
 1121.47        2974.25           2488        2008.00      8742.79
 1121.50        2974.50           2491        1988.00      8655.56
 1121.53        2974.75           2495        1897.00      8258.64
 1121.56        2975.00           2498        1845.00      8031.84
 1121.59        2975.25           2502        1842.00      8018.75
 1121.63        2975.50           2505        1828.00      7957.69
 1121.66        2975.75           2509        1787.00      7778.87
 1121.69        2976.00           2512        1802.00      7844.29
 1121.72        2976.25           2516        1710.00      7443.03
 1121.75        2976.50           2520        1714.00      7460.48
 1121.78        2976.75           2523        1704.00      7416.87
 1121.81        2977.00           2527        1676.00      7294.75
 1121.84        2977.25           2530        1609.00      7002.54
 1121.87        2977.50           2534        1625.00      7072.32
 1121.90        2977.75           2537        1657.00      7211.88
 1121.93        2978.00           2541        1632.00      7102.85
 1121.96        2978.25           2544        1594.00      6937.12
 1121.99        2978.50           2548        1585.00      6897.87
 1122.02        2978.75           2552        1568.00      6823.73
 1122.05        2979.00           2555        1532.00      6666.73
 1122.08        2979.25           2559        1547.00      6732.14
 1122.11        2979.50           2562        1519.00      6610.03
 1122.14        2979.75           2566        1489.00      6479.20
 1122.18        2980.00           2569        1545.00      6723.42
 1122.21        2980.25           2573        1501.00      6531.53
 1122.24        2980.50           2577        1483.00      6453.03
 1122.27        2980.75           2580        1481.00      6444.31
 1122.30        2981.00           2584        1497.00      6514.08
 1122.33        2981.25           2587        1472.00      6405.06
 1122.36        2981.50           2591        1482.00      6448.67
 1122.39        2981.75           2594        1419.00      6173.92
 1122.42        2982.00           2598        1439.00      6261.14
 1122.45        2982.25           2601        1477.00      6426.86
 1122.48        2982.50           2605        1453.00      6322.20
 1122.51        2982.75           2609        1451.00      6313.47
 1122.54        2983.00           2612        1450.00      6309.11
 1122.57        2983.25           2616        1404.00      6108.50
 1122.60        2983.50           2619        1426.00      6204.45
 1122.63        2983.75           2623        1422.00      6187.00
 1122.66        2984.00           2626        1386.00      6030.01
HS scan finished at 18:42:53
end
