************************************************************
  HS Scan of 
************************************************************
Integration time is 0.2294 seconds per sample
dh200217Reading 51.44 .94 3.01pr1000
************************************************************
Dead Time -------------------------  3.4E-08 
Number of Cycles Used -------------  4 
Starting Wavelength (Angstroms) ---  2950 
Final Wavelength (Angstoms) -------  2984 
Wavelength Increment (Angstroms) --  .25 
Filter Wheel #1 Position ---------- (1) Ground quartz diffuser (ND=2.32)
Filter Wheel #2 Position ---------- (1) Neutral Density 0.494



************************************************************
HS scan start time = 04:25:29
Dark Count =  1 


Time (GMT)  Wavelength (Ang)  Step Number  Raw Counts  Counts/Second

  266.38        2950.00           2144         794.00      3457.25
  266.57        2950.25           2147         788.00      3431.09
  266.60        2950.50           2151         784.00      3413.65
  266.63        2950.75           2155         802.00      3492.13
  266.67        2951.00           2158         795.00      3461.61
  266.70        2951.25           2162         800.00      3483.41
  266.73        2951.50           2165         801.00      3487.77
  266.76        2951.75           2169         779.00      3391.85
  266.79        2952.00           2172         801.00      3487.77
  266.82        2952.25           2176         787.00      3426.73
  266.85        2952.50           2179         819.00      3566.26
  266.88        2952.75           2183         818.00      3561.90
  266.91        2953.00           2186         802.00      3492.13
  266.94        2953.25           2190         821.00      3574.98
  266.97        2953.50           2193         813.00      3540.10
  267.00        2953.75           2197         814.00      3544.46
  267.03        2954.00           2200         826.00      3596.78
  267.06        2954.25           2204         855.00      3723.23
  267.09        2954.50           2208         853.00      3714.51
  267.12        2954.75           2211         845.00      3679.62
  267.15        2955.00           2215         841.00      3662.18
  267.18        2955.25           2218         852.00      3710.15
  267.22        2955.50           2222         854.00      3718.87
  267.25        2955.75           2225         862.00      3753.75
  267.28        2956.00           2229         849.00      3697.06
  267.31        2956.25           2232         866.00      3771.19
  267.34        2956.50           2236         927.00      4037.17
  267.37        2956.75           2239         889.00      3871.48
  267.40        2957.00           2243         878.00      3823.51
  267.43        2957.25           2246         895.00      3897.64
  267.46        2957.50           2250         895.00      3897.64
  267.49        2957.75           2254         938.00      4085.14
  267.52        2958.00           2257         909.00      3958.68
  267.55        2958.25           2261         923.00      4019.73
  267.58        2958.50           2264         938.00      4085.14
  267.61        2958.75           2268         957.00      4167.98
  267.64        2959.00           2271         982.00      4277.00
  267.67        2959.25           2275         997.00      4342.40
  267.70        2959.50           2278         943.00      4106.94
  267.74        2959.75           2282        1004.00      4372.93
  267.77        2960.00           2285        1033.00      4499.38
  267.80        2960.25           2289        1031.00      4490.66
  267.83        2960.50           2293        1035.00      4508.10
  267.86        2960.75           2296        1060.00      4617.12
  267.89        2961.00           2300        1156.00      5035.74
  267.92        2961.25           2303        1334.00      5811.96
  267.95        2961.50           2307        3785.00     16504.47
  267.98        2961.75           2310        9668.00     42200.88
  268.01        2962.00           2314       21154.00     92500.58
  268.04        2962.25           2317       31231.00    136772.30
  268.07        2962.50           2321       44473.00    195152.90
  268.10        2962.75           2324       53717.00    236045.50
  268.13        2963.00           2328       66045.00    290759.10
  268.16        2963.25           2331       76064.00    335376.20
  268.19        2963.50           2335       89439.00    395151.40
  268.22        2963.75           2339      104378.00    462206.80
  268.26        2964.00           2342      115123.00    510628.30
  268.29        2964.25           2346      129185.00    574241.50
  268.32        2964.50           2349      139597.00    621522.70
  268.35        2964.75           2353      152538.00    680503.10
  268.38        2965.00           2356      161727.00    722529.10
  268.41        2965.25           2360      174681.00    781981.50
  268.44        2965.50           2363      185277.00    830793.80
  268.47        2965.75           2367      197384.00    886768.80
  268.50        2966.00           2370      205907.00    926303.70
  268.53        2966.25           2374      217499.00    980248.60
  268.56        2966.50           2378      225585.00   1017997.00
  268.59        2966.75           2381      227398.00   1026475.00
  268.62        2967.00           2385      228256.00   1030488.00
  268.65        2967.25           2388      228001.00   1029295.00
  268.68        2967.50           2392      228653.00   1032346.00
  268.71        2967.75           2395      228204.00   1030245.00
  268.74        2968.00           2399      224959.00   1015071.00
  268.78        2968.25           2402      218463.00    984743.80
  268.81        2968.50           2406      207990.00    935982.40
  268.84        2968.75           2409      198782.00    893246.10
  268.87        2969.00           2413      185073.00    829852.50
  268.90        2969.25           2417      172762.00    773159.00
  268.93        2969.50           2420      163356.00    729992.00
  268.96        2969.75           2424      150882.00    672942.30
  268.99        2970.00           2427      141017.00    627982.90
  269.02        2970.25           2431      128060.00    569142.10
  269.05        2970.50           2434      118485.00    525812.00
  269.08        2970.75           2438      103828.00    459732.70
  269.11        2971.00           2441       93324.00    412560.00
  269.14        2971.25           2445       79509.00    350749.10
  269.17        2971.50           2449       66297.00    291879.70
  269.20        2971.75           2452       56967.00    250449.70
  269.23        2972.00           2456       44273.00    194269.40
  269.26        2972.25           2459       34441.00    150903.00
  269.30        2972.50           2463       21614.00     94518.60
  269.33        2972.75           2466       12397.00     54136.17
  269.36        2973.00           2470        3863.00     16844.87
  269.39        2973.25           2473        1615.00      7037.43
  269.42        2973.50           2477        1184.00      5157.84
  269.45        2973.75           2481        1165.00      5074.98
  269.48        2974.00           2484        1097.00      4778.46
  269.51        2974.25           2488        1082.00      4713.05
  269.54        2974.50           2491        1051.00      4577.87
  269.57        2974.75           2495        1026.00      4468.86
  269.60        2975.00           2498        1007.00      4386.01
  269.63        2975.25           2502        1007.00      4386.01
  269.66        2975.50           2505         963.00      4194.15
  269.69        2975.75           2509         989.00      4307.52
  269.72        2976.00           2512         942.00      4102.58
  269.75        2976.25           2516         923.00      4019.73
  269.78        2976.50           2520         933.00      4063.33
  269.82        2976.75           2523         936.00      4076.42
  269.85        2977.00           2527         940.00      4093.86
  269.88        2977.25           2530         925.00      4028.45
  269.91        2977.50           2534         888.00      3867.12
  269.94        2977.75           2537         854.00      3718.87
  269.97        2978.00           2541         908.00      3954.32
  270.00        2978.25           2544         888.00      3867.12
  270.03        2978.50           2548         877.00      3819.15
  270.06        2978.75           2552         840.00      3657.82
  270.09        2979.00           2555         873.00      3801.71
  270.12        2979.25           2559         848.00      3692.70
  270.15        2979.50           2562         845.00      3679.62
  270.18        2979.75           2566         850.00      3701.43
  270.21        2980.00           2569         817.00      3557.54
  270.24        2980.25           2573         811.00      3531.37
  270.27        2980.50           2577         803.00      3496.49
  270.30        2980.75           2580         827.00      3601.14
  270.34        2981.00           2584         800.00      3483.41
  270.37        2981.25           2587         810.00      3527.01
  270.40        2981.50           2591         781.00      3400.57
  270.43        2981.75           2594         812.00      3535.73
  270.46        2982.00           2598         760.00      3309.00
  270.49        2982.25           2601         791.00      3444.17
  270.52        2982.50           2605         789.00      3435.45
  270.55        2982.75           2609         795.00      3461.61
  270.58        2983.00           2612         778.00      3387.49
  270.61        2983.25           2616         770.00      3352.61
  270.64        2983.50           2619         782.00      3404.93
  270.67        2983.75           2623         775.00      3374.41
  270.70        2984.00           2626         804.00      3500.85
HS scan finished at 04:30:55
end
************************************************************
  HS Scan of 
************************************************************
Integration time is 0.2294 seconds per sample
dh200217Reading 51.44 .94 3.29pr1000
************************************************************
Dead Time -------------------------  3.4E-08 
Number of Cycles Used -------------  4 
Starting Wavelength (Angstroms) ---  2950 
Final Wavelength (Angstoms) -------  2984 
Wavelength Increment (Angstroms) --  .25 
Filter Wheel #1 Position ---------- (1) Ground quartz diffuser (ND=2.32)
Filter Wheel #2 Position ---------- (1) Neutral Density 0.494



************************************************************
HS scan start time = 18:37:29
Dark Count =  2 


Time (GMT)  Wavelength (Ang)  Step Number  Raw Counts  Counts/Second

 1118.39        2950.00           2144         643.00      2794.51
 1118.58        2950.25           2147         620.00      2694.23
 1118.61        2950.50           2151         676.00      2938.39
 1118.64        2950.75           2155         655.00      2846.83
 1118.67        2951.00           2158         628.00      2729.11
 1118.70        2951.25           2162         640.00      2781.43
 1118.73        2951.50           2165         638.00      2772.71
 1118.76        2951.75           2169         643.00      2794.51
 1118.79        2952.00           2172         605.00      2628.83
 1118.82        2952.25           2176         628.00      2729.11
 1118.85        2952.50           2179         645.00      2803.23
 1118.89        2952.75           2183         637.00      2768.35
 1118.92        2953.00           2186         615.00      2672.43
 1118.95        2953.25           2190         646.00      2807.59
 1118.98        2953.50           2193         660.00      2868.63
 1119.01        2953.75           2197         655.00      2846.83
 1119.04        2954.00           2200         645.00      2803.23
 1119.07        2954.25           2204         656.00      2851.19
 1119.10        2954.50           2208         641.00      2785.79
 1119.13        2954.75           2211         664.00      2886.07
 1119.16        2955.00           2215         685.00      2977.63
 1119.19        2955.25           2218         669.00      2907.87
 1119.22        2955.50           2222         675.00      2934.03
 1119.25        2955.75           2225         667.00      2899.15
 1119.28        2956.00           2229         701.00      3047.40
 1119.31        2956.25           2232         685.00      2977.63
 1119.34        2956.50           2236         705.00      3064.84
 1119.37        2956.75           2239         683.00      2968.91
 1119.41        2957.00           2243         699.00      3038.68
 1119.44        2957.25           2246         752.00      3269.76
 1119.47        2957.50           2250         697.00      3029.95
 1119.50        2957.75           2254         739.00      3213.08
 1119.53        2958.00           2257         714.00      3104.08
 1119.56        2958.25           2261         751.00      3265.40
 1119.59        2958.50           2264         747.00      3247.96
 1119.62        2958.75           2268         736.00      3200.00
 1119.65        2959.00           2271         721.00      3134.60
 1119.68        2959.25           2275         776.00      3374.41
 1119.71        2959.50           2278         781.00      3396.21
 1119.74        2959.75           2282         812.00      3531.37
 1119.77        2960.00           2285         821.00      3570.62
 1119.80        2960.25           2289         818.00      3557.54
 1119.83        2960.50           2293         824.00      3583.70
 1119.86        2960.75           2296         828.00      3601.14
 1119.89        2961.00           2300         877.00      3814.79
 1119.93        2961.25           2303        1001.00      4355.48
 1119.96        2961.50           2307        2551.00     11115.80
 1119.99        2961.75           2310        7021.00     30629.09
 1120.02        2962.00           2314       15971.00     69777.38
 1120.05        2962.25           2317       23623.00    103331.00
 1120.08        2962.50           2321       33385.00    146248.50
 1120.11        2962.75           2324       41052.00    180043.90
 1120.14        2963.00           2328       49755.00    218500.40
 1120.17        2963.25           2331       56480.00    248285.90
 1120.20        2963.50           2335       67843.00    298751.60
 1120.23        2963.75           2339       78161.00    344727.50
 1120.26        2964.00           2342       85626.00    378081.00
 1120.29        2964.25           2346       96229.00    425586.50
 1120.32        2964.50           2349      103026.00    456121.00
 1120.35        2964.75           2353      112332.00    498030.90
 1120.38        2965.00           2356      119981.00    532568.90
 1120.41        2965.25           2360      130605.00    580676.20
 1120.45        2965.50           2363      138586.00    616920.50
 1120.48        2965.75           2367      147895.00    659309.90
 1120.51        2966.00           2370      154409.00    689045.80
 1120.54        2966.25           2374      162634.00    726679.30
 1120.57        2966.50           2378      168312.00    752716.00
 1120.60        2966.75           2381      169978.00    760364.40
 1120.63        2967.00           2385      170738.00    763854.80
 1120.66        2967.25           2388      170241.00    761572.10
 1120.69        2967.50           2392      170405.00    762325.30
 1120.72        2967.75           2395      170178.00    761282.80
 1120.75        2968.00           2399      167222.00    747714.00
 1120.78        2968.25           2402      162108.00    724269.60
 1120.81        2968.50           2406      154387.00    688945.20
 1120.84        2968.75           2409      148289.00    661106.70
 1120.87        2969.00           2413      138717.00    617516.00
 1120.90        2969.25           2417      128680.00    571947.60
 1120.93        2969.50           2420      122034.00    541852.80
 1120.97        2969.75           2424      112702.00    499699.70
 1121.00        2970.00           2427      105362.00    466630.00
 1121.03        2970.25           2431       95618.00    422844.70
 1121.06        2970.50           2434       87512.00    386519.70
 1121.09        2970.75           2438       76783.00    338578.90
 1121.12        2971.00           2441       68422.00    301327.70
 1121.15        2971.25           2445       58653.00    257923.30
 1121.18        2971.50           2449       49394.00    216903.20
 1121.21        2971.75           2452       42295.00    185530.20
 1121.24        2972.00           2456       32074.00    140477.60
 1121.27        2972.25           2459       25471.00    111445.90
 1121.30        2972.50           2463       16480.00     72006.94
 1121.33        2972.75           2466        9660.00     42161.53
 1121.36        2973.00           2470        2965.00     12921.98
 1121.39        2973.25           2473        1257.00      5471.81
 1121.42        2973.50           2477         902.00      3923.80
 1121.45        2973.75           2481         863.00      3753.75
 1121.49        2974.00           2484         835.00      3631.66
 1121.52        2974.25           2488         834.00      3627.30
 1121.55        2974.50           2491         810.00      3522.65
 1121.58        2974.75           2495         820.00      3566.26
 1121.61        2975.00           2498         792.00      3444.17
 1121.64        2975.25           2502         805.00      3500.85
 1121.67        2975.50           2505         789.00      3431.09
 1121.70        2975.75           2509         739.00      3213.08
 1121.73        2976.00           2512         791.00      3439.81
 1121.76        2976.25           2516         743.00      3230.52
 1121.79        2976.50           2520         735.00      3195.64
 1121.82        2976.75           2523         761.00      3309.00
 1121.85        2977.00           2527         700.00      3043.04
 1121.88        2977.25           2530         705.00      3064.84
 1121.91        2977.50           2534         673.00      2925.31
 1121.94        2977.75           2537         745.00      3239.24
 1121.97        2978.00           2541         711.00      3091.00
 1122.02        2978.25           2544         693.00      3012.51
 1122.05        2978.50           2548         691.00      3003.79
 1122.08        2978.75           2552         661.00      2872.99
 1122.11        2979.00           2555         635.00      2759.63
 1122.14        2979.25           2559         680.00      2955.83
 1122.17        2979.50           2562         668.00      2903.51
 1122.20        2979.75           2566         671.00      2916.59
 1122.23        2980.00           2569         638.00      2772.71
 1122.26        2980.25           2573         660.00      2868.63
 1122.30        2980.50           2577         663.00      2881.71
 1122.33        2980.75           2580         664.00      2886.07
 1122.36        2981.00           2584         637.00      2768.35
 1122.39        2981.25           2587         595.00      2585.23
 1122.42        2981.50           2591         659.00      2864.27
 1122.45        2981.75           2594         625.00      2716.03
 1122.48        2982.00           2598         618.00      2685.51
 1122.51        2982.25           2601         666.00      2894.79
 1122.54        2982.50           2605         608.00      2641.91
 1122.57        2982.75           2609         623.00      2707.31
 1122.60        2983.00           2612         651.00      2829.39
 1122.63        2983.25           2616         599.00      2602.67
 1122.66        2983.50           2619         635.00      2759.63
 1122.69        2983.75           2623         638.00      2772.71
 1122.72        2984.00           2626         583.00      2532.91
HS scan finished at 18:42:57
end
