************************************************************
  HS Scan of (1) Internal mercury lamp
************************************************************
Integration time is 0.2294 seconds per sample
dh200219Reading 51.44 .94 2.88pr1000
************************************************************
Dead Time -------------------------  3.4E-08 
Number of Cycles Used -------------  4 
Starting Wavelength (Angstroms) ---  2950 
Final Wavelength (Angstoms) -------  2984 
Wavelength Increment (Angstroms) --  .25 
Filter Wheel #1 Position ---------- (1) Ground quartz diffuser (ND=2.32)
Filter Wheel #2 Position ---------- (1) Neutral Density 0.494



************************************************************
HS scan start time = 04:26:24
Dark Count =  .7 


Time (GMT)  Wavelength (Ang)  Step Number  Raw Counts  Counts/Second

  267.30        2950.00           2144        1609.00      7012.57
  267.49        2950.25           2147        1589.00      6925.34
  267.52        2950.50           2151        1625.00      7082.35
  267.55        2950.75           2155        1590.00      6929.71
  267.59        2951.00           2158        1582.00      6894.82
  267.62        2951.25           2162        1654.00      7208.83
  267.65        2951.50           2165        1606.00      6999.49
  267.68        2951.75           2169        1616.00      7043.10
  267.71        2952.00           2172        1620.00      7060.54
  267.74        2952.25           2176        1675.00      7300.42
  267.77        2952.50           2179        1645.00      7169.58
  267.80        2952.75           2183        1654.00      7208.83
  267.83        2953.00           2186        1645.00      7169.58
  267.86        2953.25           2190        1674.00      7296.06
  267.89        2953.50           2193        1683.00      7335.31
  267.92        2953.75           2197        1670.00      7278.61
  267.95        2954.00           2200        1655.00      7213.19
  267.98        2954.25           2204        1666.00      7261.16
  268.01        2954.50           2208        1670.00      7278.61
  268.04        2954.75           2211        1680.00      7322.22
  268.07        2955.00           2215        1675.00      7300.42
  268.11        2955.25           2218        1699.00      7405.09
  268.14        2955.50           2222        1703.00      7422.54
  268.17        2955.75           2225        1738.00      7575.19
  268.20        2956.00           2229        1759.00      7666.78
  268.23        2956.25           2232        1799.00      7841.24
  268.26        2956.50           2236        1758.00      7662.42
  268.29        2956.75           2239        1752.00      7636.25
  268.32        2957.00           2243        1742.00      7592.63
  268.35        2957.25           2246        1832.00      7985.17
  268.38        2957.50           2250        1814.00      7906.66
  268.41        2957.75           2254        1847.00      8050.59
  268.44        2958.00           2257        1837.00      8006.97
  268.47        2958.25           2261        1828.00      7967.72
  268.50        2958.50           2264        1848.00      8054.95
  268.53        2958.75           2268        1899.00      8277.39
  268.56        2959.00           2271        1909.00      8321.01
  268.59        2959.25           2275        1874.00      8168.35
  268.62        2959.50           2278        1940.00      8456.22
  268.66        2959.75           2282        2003.00      8731.01
  268.69        2960.00           2285        1973.00      8600.16
  268.72        2960.25           2289        2002.00      8726.65
  268.75        2960.50           2293        2089.00      9106.13
  268.78        2960.75           2296        2125.00      9263.16
  268.81        2961.00           2300        2264.00      9869.48
  268.84        2961.25           2303        3103.00     13529.76
  268.87        2961.50           2307        9544.00     41660.10
  268.90        2961.75           2310       19483.00     85173.50
  268.93        2962.00           2314       37359.00    163761.50
  268.96        2962.25           2317       53799.00    236410.10
  268.99        2962.50           2321       79118.00    349004.90
  269.02        2962.75           2324       98713.00    436743.90
  269.05        2963.00           2328      121836.00    540963.00
  269.08        2963.25           2331      138890.00    618308.60
  269.11        2963.50           2335      163083.00    728742.40
  269.15        2963.75           2339      188576.00    846026.20
  269.18        2964.00           2342      208333.00    937578.20
  269.21        2964.25           2346      234425.00   1059381.00
  269.24        2964.50           2349      251428.00   1139310.00
  269.27        2964.75           2353      273351.00   1243028.00
  269.30        2965.00           2356      289644.00   1320596.00
  269.33        2965.25           2360      311721.00   1426375.00
  269.36        2965.50           2363      327410.00   1502023.00
  269.39        2965.75           2367      350014.00   1611721.00
  269.42        2966.00           2370      366784.00   1693654.00
  269.45        2966.25           2374      387113.00   1793610.00
  269.48        2966.50           2378      400370.00   1859174.00
  269.51        2966.75           2381      402710.00   1870778.00
  269.54        2967.00           2385      406043.00   1887323.00
  269.57        2967.25           2388      405920.00   1886712.00
  269.60        2967.50           2392      406045.00   1887332.00
  269.63        2967.75           2395      405198.00   1883126.00
  269.66        2968.00           2399      396765.00   1841315.00
  269.70        2968.25           2402      386381.00   1789999.00
  269.73        2968.50           2406      368660.00   1702849.00
  269.76        2968.75           2409      354415.00   1633177.00
  269.79        2969.00           2413      332504.00   1526671.00
  269.82        2969.25           2417      308245.00   1409668.00
  269.85        2969.50           2420      290755.00   1325901.00
  269.88        2969.75           2424      267768.00   1216544.00
  269.91        2970.00           2427      249854.00   1131893.00
  269.94        2970.25           2431      226062.00   1020229.00
  269.97        2970.50           2434      207513.00    933766.90
  270.00        2970.75           2438      184295.00    826264.60
  270.03        2971.00           2441      166798.00    745774.80
  270.06        2971.25           2445      140642.00    626277.90
  270.09        2971.50           2449      115174.00    510859.80
  270.12        2971.75           2452       96306.00    425937.80
  270.15        2972.00           2456       71997.00    317249.70
  270.18        2972.25           2459       54189.00    238137.90
  270.22        2972.50           2463       31904.00    139735.10
  270.25        2972.75           2466       17449.00     76258.06
  270.28        2973.00           2470        5716.00     24935.26
  270.31        2973.25           2473        2907.00     12674.60
  270.34        2973.50           2477        2252.00      9817.14
  270.37        2973.75           2481        2186.00      9529.24
  270.40        2974.00           2484        2080.00      9066.88
  270.43        2974.25           2488        2073.00      9036.34
  270.46        2974.50           2491        1979.00      8626.33
  270.49        2974.75           2495        1945.00      8478.03
  270.52        2975.00           2498        1936.00      8438.78
  270.55        2975.25           2502        1965.00      8565.27
  270.58        2975.50           2505        1911.00      8329.73
  270.61        2975.75           2509        1884.00      8211.97
  270.64        2976.00           2512        1872.00      8159.63
  270.67        2976.25           2516        1881.00      8198.89
  270.70        2976.50           2520        1780.00      7758.37
  270.74        2976.75           2523        1831.00      7980.81
  270.77        2977.00           2527        1736.00      7566.46
  270.80        2977.25           2530        1739.00      7579.55
  270.83        2977.50           2534        1694.00      7383.28
  270.86        2977.75           2537        1728.00      7531.57
  270.89        2978.00           2541        1761.00      7675.50
  270.92        2978.25           2544        1701.00      7413.81
  270.95        2978.50           2548        1692.00      7374.56
  270.98        2978.75           2552        1687.00      7352.75
  271.01        2979.00           2555        1679.00      7317.86
  271.04        2979.25           2559        1667.00      7265.53
  271.07        2979.50           2562        1633.00      7117.24
  271.10        2979.75           2566        1613.00      7030.01
  271.13        2980.00           2569        1600.00      6973.32
  271.16        2980.25           2573        1606.00      6999.49
  271.19        2980.50           2577        1583.00      6899.18
  271.22        2980.75           2580        1627.00      7091.07
  271.26        2981.00           2584        1585.00      6907.90
  271.29        2981.25           2587        1574.00      6859.93
  271.32        2981.50           2591        1554.00      6772.70
  271.35        2981.75           2594        1565.00      6820.68
  271.38        2982.00           2598        1570.00      6842.48
  271.41        2982.25           2601        1578.00      6877.37
  271.44        2982.50           2605        1576.00      6868.65
  271.47        2982.75           2609        1506.00      6563.37
  271.50        2983.00           2612        1516.00      6606.98
  271.53        2983.25           2616        1586.00      6912.26
  271.56        2983.50           2619        1499.00      6532.84
  271.59        2983.75           2623        1516.00      6606.98
  271.62        2984.00           2626        1487.00      6480.50
HS scan finished at 04:31:51
end
************************************************************
  HS Scan of (1) Internal mercury lamp
************************************************************
Integration time is 0.2294 seconds per sample
dh200219Reading 51.44 .94 3.07pr1000
************************************************************
Dead Time -------------------------  3.4E-08 
Number of Cycles Used -------------  4 
Starting Wavelength (Angstroms) ---  2950 
Final Wavelength (Angstoms) -------  2984 
Wavelength Increment (Angstroms) --  .25 
Filter Wheel #1 Position ---------- (1) Ground quartz diffuser (ND=2.32)
Filter Wheel #2 Position ---------- (1) Neutral Density 0.494



************************************************************
HS scan start time = 18:37:26
Dark Count =  1.1 


Time (GMT)  Wavelength (Ang)  Step Number  Raw Counts  Counts/Second

 1118.34        2950.00           2144        1372.00      5977.24
 1118.53        2950.25           2147        1363.00      5937.99
 1118.56        2950.50           2151        1317.00      5737.39
 1118.59        2950.75           2155        1342.00      5846.41
 1118.62        2951.00           2158        1372.00      5977.24
 1118.65        2951.25           2162        1353.00      5894.38
 1118.68        2951.50           2165        1371.00      5972.88
 1118.71        2951.75           2169        1350.00      5881.30
 1118.74        2952.00           2172        1362.00      5933.63
 1118.77        2952.25           2176        1346.00      5863.85
 1118.80        2952.50           2179        1401.00      6103.71
 1118.83        2952.75           2183        1365.00      5946.71
 1118.86        2953.00           2186        1375.00      5990.32
 1118.90        2953.25           2190        1392.00      6064.46
 1118.93        2953.50           2193        1370.00      5968.52
 1118.96        2953.75           2197        1410.00      6142.96
 1118.99        2954.00           2200        1383.00      6025.21
 1119.02        2954.25           2204        1402.00      6108.07
 1119.05        2954.50           2208        1436.00      6256.34
 1119.08        2954.75           2211        1402.00      6108.07
 1119.11        2955.00           2215        1419.00      6182.21
 1119.14        2955.25           2218        1428.00      6221.46
 1119.17        2955.50           2222        1422.00      6195.29
 1119.20        2955.75           2225        1441.00      6278.15
 1119.23        2956.00           2229        1467.00      6391.54
 1119.26        2956.25           2232        1463.00      6374.09
 1119.29        2956.50           2236        1451.00      6321.76
 1119.32        2956.75           2239        1475.00      6426.43
 1119.35        2957.00           2243        1496.00      6518.01
 1119.39        2957.25           2246        1458.00      6352.29
 1119.42        2957.50           2250        1498.00      6526.73
 1119.45        2957.75           2254        1504.00      6552.90
 1119.48        2958.00           2257        1542.00      6718.62
 1119.51        2958.25           2261        1582.00      6893.07
 1119.54        2958.50           2264        1576.00      6866.90
 1119.57        2958.75           2268        1605.00      6993.38
 1119.60        2959.00           2271        1651.00      7194.00
 1119.63        2959.25           2275        1608.00      7006.47
 1119.66        2959.50           2278        1637.00      7132.94
 1119.69        2959.75           2282        1637.00      7132.94
 1119.72        2960.00           2285        1652.00      7198.36
 1119.75        2960.25           2289        1718.00      7486.21
 1119.78        2960.50           2293        1734.00      7555.99
 1119.81        2960.75           2296        1804.00      7861.30
 1119.84        2961.00           2300        1821.00      7935.45
 1119.87        2961.25           2303        2128.00      9274.50
 1119.91        2961.50           2307        4689.00     20449.70
 1119.94        2961.75           2310       11056.00     48269.65
 1119.97        2962.00           2314       25353.00    110931.60
 1120.00        2962.25           2317       40220.00    176376.70
 1120.03        2962.50           2321       62155.00    273472.10
 1120.06        2962.75           2324       78200.00    344905.50
 1120.09        2963.00           2328       97223.00    430051.90
 1120.12        2963.25           2331      111584.00    494661.90
 1120.15        2963.50           2335      133253.00    592695.70
 1120.18        2963.75           2339      157102.00    701361.00
 1120.21        2964.00           2342      174752.00    782307.70
 1120.24        2964.25           2346      195722.00    879071.50
 1120.27        2964.50           2349      211477.00    952198.90
 1120.30        2964.75           2353      231595.00   1046118.00
 1120.33        2965.00           2356      247901.00   1122692.00
 1120.36        2965.25           2360      267983.00   1217561.00
 1120.39        2965.50           2363      283226.00   1289989.00
 1120.42        2965.75           2367      303952.00   1389060.00
 1120.46        2966.00           2370      318503.00   1459025.00
 1120.49        2966.25           2374      336457.00   1545825.00
 1120.52        2966.50           2378      350669.00   1614910.00
 1120.55        2966.75           2381      355495.00   1638446.00
 1120.58        2967.00           2385      357967.00   1650516.00
 1120.61        2967.25           2388      358516.00   1653198.00
 1120.64        2967.50           2392      357817.00   1649784.00
 1120.67        2967.75           2395      357762.00   1649515.00
 1120.70        2968.00           2399      354484.00   1633512.00
 1120.73        2968.25           2402      347208.00   1598055.00
 1120.76        2968.50           2406      331921.00   1523846.00
 1120.79        2968.75           2409      319897.00   1465745.00
 1120.82        2969.00           2413      299624.00   1368315.00
 1120.85        2969.25           2417      278417.00   1267099.00
 1120.88        2969.50           2420      263461.00   1196144.00
 1120.91        2969.75           2424      244386.00   1106151.00
 1120.94        2970.00           2427      229444.00   1036047.00
 1120.98        2970.25           2431      207803.00    935112.80
 1121.01        2970.50           2434      192730.00    865225.60
 1121.04        2970.75           2438      172407.00    771527.00
 1121.07        2971.00           2441      153937.00    686893.20
 1121.10        2971.25           2445      131752.00    585883.70
 1121.13        2971.50           2449      109856.00    486872.50
 1121.16        2971.75           2452       94647.00    418492.70
 1121.19        2972.00           2456       75340.00    332147.00
 1121.22        2972.25           2459       60903.00    267912.80
 1121.25        2972.50           2463       41300.00    181142.30
 1121.28        2972.75           2466       26083.00    114138.30
 1121.31        2973.00           2470        8511.00     37143.22
 1121.34        2973.25           2473        3392.00     14789.04
 1121.37        2973.50           2477        2054.00      8951.72
 1121.40        2973.75           2481        1861.00      8109.91
 1121.43        2974.00           2484        1733.00      7551.63
 1121.46        2974.25           2488        1747.00      7612.70
 1121.50        2974.50           2491        1707.00      7438.24
 1121.53        2974.75           2495        1690.00      7364.09
 1121.56        2975.00           2498        1639.00      7141.66
 1121.59        2975.25           2502        1640.00      7146.03
 1121.62        2975.50           2505        1632.00      7111.14
 1121.65        2975.75           2509        1614.00      7032.63
 1121.68        2976.00           2512        1622.00      7067.52
 1121.71        2976.25           2516        1588.00      6919.24
 1121.74        2976.50           2520        1529.00      6661.93
 1121.77        2976.75           2523        1510.00      6579.07
 1121.80        2977.00           2527        1504.00      6552.90
 1121.83        2977.25           2530        1518.00      6613.96
 1121.86        2977.50           2534        1491.00      6496.20
 1121.89        2977.75           2537        1476.00      6430.79
 1121.92        2978.00           2541        1458.00      6352.29
 1121.95        2978.25           2544        1425.00      6208.37
 1121.98        2978.50           2548        1407.00      6129.87
 1122.02        2978.75           2552        1421.00      6190.93
 1122.05        2979.00           2555        1403.00      6112.43
 1122.08        2979.25           2559        1393.00      6068.82
 1122.11        2979.50           2562        1347.00      5868.22
 1122.14        2979.75           2566        1382.00      6020.85
 1122.17        2980.00           2569        1373.00      5981.60
 1122.20        2980.25           2573        1356.00      5907.46
 1122.23        2980.50           2577        1371.00      5972.88
 1122.26        2980.75           2580        1358.00      5916.19
 1122.29        2981.00           2584        1304.00      5680.70
 1122.32        2981.25           2587        1334.00      5811.52
 1122.35        2981.50           2591        1358.00      5916.19
 1122.38        2981.75           2594        1308.00      5698.14
 1122.41        2982.00           2598        1328.00      5785.36
 1122.44        2982.25           2601        1291.00      5624.01
 1122.47        2982.50           2605        1308.00      5698.14
 1122.50        2982.75           2609        1274.00      5549.87
 1122.54        2983.00           2612        1299.00      5658.89
 1122.57        2983.25           2616        1278.00      5567.31
 1122.60        2983.50           2619        1300.00      5663.25
 1122.63        2983.75           2623        1265.00      5510.62
 1122.66        2984.00           2626        1276.00      5558.59
HS scan finished at 18:42:53
end
