************************************************************
  HS Scan of (1) Internal mercury lamp
************************************************************
Integration time is 0.2294 seconds per sample
dh220219Reading 51.44 .94 2.96pr1000
************************************************************
Dead Time -------------------------  3.4E-08 
Number of Cycles Used -------------  4 
Starting Wavelength (Angstroms) ---  2950 
Final Wavelength (Angstoms) -------  2984 
Wavelength Increment (Angstroms) --  .25 
Filter Wheel #1 Position ---------- (1) Ground quartz diffuser (ND=2.32)
Filter Wheel #2 Position ---------- (1) Neutral Density 0.494



************************************************************
HS scan start time = 04:22:06
Dark Count =  .7 


Time (GMT)  Wavelength (Ang)  Step Number  Raw Counts  Counts/Second

  263.00        2950.00           2144        1547.00      6742.17
  263.19        2950.25           2147        1543.00      6724.73
  263.22        2950.50           2151        1569.00      6838.12
  263.25        2950.75           2155        1567.00      6829.40
  263.28        2951.00           2158        1610.00      7016.93
  263.31        2951.25           2162        1579.00      6881.73
  263.34        2951.50           2165        1576.00      6868.65
  263.37        2951.75           2169        1566.00      6825.04
  263.40        2952.00           2172        1613.00      7030.01
  263.43        2952.25           2176        1605.00      6995.12
  263.47        2952.50           2179        1626.00      7086.71
  263.50        2952.75           2183        1597.00      6960.23
  263.53        2953.00           2186        1599.00      6968.96
  263.56        2953.25           2190        1646.00      7173.94
  263.59        2953.50           2193        1646.00      7173.94
  263.63        2953.75           2197        1634.00      7121.60
  263.66        2954.00           2200        1658.00      7226.27
  263.69        2954.25           2204        1654.00      7208.83
  263.72        2954.50           2208        1656.00      7217.55
  263.75        2954.75           2211        1684.00      7339.67
  263.78        2955.00           2215        1667.00      7265.53
  263.81        2955.25           2218        1663.00      7248.08
  263.84        2955.50           2222        1694.00      7383.28
  263.87        2955.75           2225        1717.00      7483.60
  263.90        2956.00           2229        1731.00      7544.66
  263.93        2956.25           2232        1737.00      7570.82
  263.96        2956.50           2236        1758.00      7662.42
  263.99        2956.75           2239        1776.00      7740.92
  264.02        2957.00           2243        1793.00      7815.07
  264.05        2957.25           2246        1751.00      7631.88
  264.08        2957.50           2250        1773.00      7727.84
  264.11        2957.75           2254        1823.00      7945.91
  264.14        2958.00           2257        1782.00      7767.09
  264.18        2958.25           2261        1843.00      8033.14
  264.21        2958.50           2264        1827.00      7963.36
  264.24        2958.75           2268        1902.00      8290.48
  264.27        2959.00           2271        1867.00      8137.82
  264.30        2959.25           2275        1932.00      8421.33
  264.33        2959.50           2278        1921.00      8373.35
  264.36        2959.75           2282        1968.00      8578.35
  264.39        2960.00           2285        1939.00      8451.86
  264.42        2960.25           2289        1992.00      8683.04
  264.45        2960.50           2293        2066.00      9005.81
  264.48        2960.75           2296        2030.00      8848.78
  264.51        2961.00           2300        2170.00      9459.45
  264.54        2961.25           2303        2508.00     10933.88
  264.57        2961.50           2307        5768.00     25162.32
  264.60        2961.75           2310       14289.00     62417.85
  264.63        2962.00           2314       32493.00    142327.50
  264.66        2962.25           2317       47618.00    209053.90
  264.70        2962.50           2321       69485.00    306064.30
  264.73        2962.75           2324       87491.00    386431.50
  264.76        2963.00           2328      112269.00    497752.60
  264.79        2963.25           2331      129660.00    576396.50
  264.82        2963.50           2335      152892.00    682121.30
  264.85        2963.75           2339      177513.00    795013.00
  264.88        2964.00           2342      197339.00    886561.60
  264.91        2964.25           2346      223460.00   1008069.00
  264.94        2964.50           2349      242682.00   1098141.00
  264.97        2964.75           2353      264419.00   1200680.00
  265.00        2965.00           2356      281688.00   1282667.00
  265.03        2965.25           2360      304951.00   1393854.00
  265.06        2965.50           2363      322657.00   1479063.00
  265.09        2965.75           2367      345029.00   1587456.00
  265.12        2966.00           2370      361581.00   1668183.00
  265.15        2966.25           2374      383187.00   1774252.00
  265.18        2966.50           2378      399783.00   1856264.00
  265.22        2966.75           2381      407364.00   1893885.00
  265.25        2967.00           2385      411323.00   1913572.00
  265.28        2967.25           2388      411520.00   1914552.00
  265.31        2967.50           2392      412390.00   1918882.00
  265.34        2967.75           2395      411335.00   1913631.00
  265.37        2968.00           2399      406541.00   1889796.00
  265.40        2968.25           2402      395799.00   1836533.00
  265.43        2968.50           2406      378049.00   1748957.00
  265.46        2968.75           2409      362886.00   1674568.00
  265.49        2969.00           2413      340938.00   1567574.00
  265.52        2969.25           2417      317264.00   1453056.00
  265.55        2969.50           2420      298812.00   1364429.00
  265.58        2969.75           2424      273441.00   1243455.00
  265.61        2970.00           2427      255632.00   1159142.00
  265.64        2970.25           2431      232653.00   1051076.00
  265.67        2970.50           2434      215402.00    970476.40
  265.70        2970.75           2438      188172.00    844160.20
  265.74        2971.00           2441      168680.00    754411.00
  265.77        2971.25           2445      143491.00    639246.40
  265.80        2971.50           2449      118489.00    525831.30
  265.83        2971.75           2452      100616.00    445292.90
  265.86        2972.00           2456       76881.00    339021.80
  265.89        2972.25           2459       59610.00    262175.40
  265.92        2972.50           2463       37782.00    165626.20
  265.95        2972.75           2466       21367.00     93436.31
  265.98        2973.00           2470        6772.00     29547.10
  266.01        2973.25           2473        3220.00     14040.27
  266.04        2973.50           2477        2231.00      9725.53
  266.07        2973.75           2481        2179.00      9498.71
  266.10        2974.00           2484        2096.00      9136.67
  266.13        2974.25           2488        2049.00      8931.66
  266.16        2974.50           2491        1996.00      8700.48
  266.19        2974.75           2495        1990.00      8674.31
  266.22        2975.00           2498        1963.00      8556.54
  266.26        2975.25           2502        1900.00      8281.76
  266.29        2975.50           2505        1899.00      8277.39
  266.32        2975.75           2509        1894.00      8255.59
  266.35        2976.00           2512        1896.00      8264.31
  266.38        2976.25           2516        1829.00      7972.08
  266.41        2976.50           2520        1783.00      7771.45
  266.44        2976.75           2523        1780.00      7758.37
  266.47        2977.00           2527        1746.00      7610.08
  266.50        2977.25           2530        1771.00      7719.11
  266.53        2977.50           2534        1738.00      7575.19
  266.56        2977.75           2537        1714.00      7470.51
  266.59        2978.00           2541        1713.00      7466.15
  266.62        2978.25           2544        1711.00      7457.43
  266.65        2978.50           2548        1688.00      7357.12
  266.68        2978.75           2552        1676.00      7304.78
  266.71        2979.00           2555        1678.00      7313.50
  266.74        2979.25           2559        1651.00      7195.75
  266.78        2979.50           2562        1623.00      7073.63
  266.81        2979.75           2566        1586.00      6912.26
  266.84        2980.00           2569        1614.00      7034.38
  266.87        2980.25           2573        1571.00      6846.84
  266.90        2980.50           2577        1606.00      6999.49
  266.93        2980.75           2580        1583.00      6899.18
  266.96        2981.00           2584        1568.00      6833.76
  266.99        2981.25           2587        1567.00      6829.40
  267.02        2981.50           2591        1548.00      6746.53
  267.05        2981.75           2594        1523.00      6637.51
  267.08        2982.00           2598        1547.00      6742.17
  267.11        2982.25           2601        1501.00      6541.56
  267.14        2982.50           2605        1526.00      6650.59
  267.17        2982.75           2609        1510.00      6580.81
  267.20        2983.00           2612        1526.00      6650.59
  267.23        2983.25           2616        1510.00      6580.81
  267.26        2983.50           2619        1526.00      6650.59
  267.30        2983.75           2623        1486.00      6476.14
  267.33        2984.00           2626        1506.00      6563.37
HS scan finished at 04:27:33
end
************************************************************
  HS Scan of (1) Internal mercury lamp
************************************************************
Integration time is 0.2294 seconds per sample
dh220219Reading 51.44 .94 3.15pr1000
************************************************************
Dead Time -------------------------  3.4E-08 
Number of Cycles Used -------------  4 
Starting Wavelength (Angstroms) ---  2950 
Final Wavelength (Angstoms) -------  2984 
Wavelength Increment (Angstroms) --  .25 
Filter Wheel #1 Position ---------- (1) Ground quartz diffuser (ND=2.32)
Filter Wheel #2 Position ---------- (1) Neutral Density 0.494



************************************************************
HS scan start time = 18:37:25
Dark Count =  1 


Time (GMT)  Wavelength (Ang)  Step Number  Raw Counts  Counts/Second

 1118.31        2950.00           2144        1487.00      6479.20
 1118.50        2950.25           2147        1480.00      6448.67
 1118.53        2950.50           2151        1513.00      6592.58
 1118.56        2950.75           2155        1488.00      6483.56
 1118.59        2951.00           2158        1486.00      6474.83
 1118.62        2951.25           2162        1515.00      6601.31
 1118.66        2951.50           2165        1501.00      6540.25
 1118.69        2951.75           2169        1556.00      6780.12
 1118.72        2952.00           2172        1552.00      6762.67
 1118.75        2952.25           2176        1587.00      6915.31
 1118.78        2952.50           2179        1541.00      6714.70
 1118.81        2952.75           2183        1537.00      6697.25
 1118.84        2953.00           2186        1525.00      6644.92
 1118.87        2953.25           2190        1600.00      6972.01
 1118.90        2953.50           2193        1591.00      6932.76
 1118.93        2953.75           2197        1581.00      6889.15
 1118.96        2954.00           2200        1579.00      6880.42
 1118.99        2954.25           2204        1549.00      6749.59
 1119.02        2954.50           2208        1591.00      6932.76
 1119.05        2954.75           2211        1580.00      6884.79
 1119.08        2955.00           2215        1608.00      7006.90
 1119.11        2955.25           2218        1609.00      7011.26
 1119.14        2955.50           2222        1624.00      7076.68
 1119.18        2955.75           2225        1595.00      6950.20
 1119.21        2956.00           2229        1631.00      7107.21
 1119.24        2956.25           2232        1676.00      7303.47
 1119.27        2956.50           2236        1662.00      7242.41
 1119.30        2956.75           2239        1647.00      7176.99
 1119.33        2957.00           2243        1681.00      7325.28
 1119.36        2957.25           2246        1703.00      7421.23
 1119.39        2957.50           2250        1718.00      7486.65
 1119.42        2957.75           2254        1681.00      7325.28
 1119.45        2958.00           2257        1710.00      7451.76
 1119.48        2958.25           2261        1751.00      7630.58
 1119.51        2958.50           2264        1724.00      7512.82
 1119.54        2958.75           2268        1761.00      7674.19
 1119.57        2959.00           2271        1770.00      7713.44
 1119.60        2959.25           2275        1820.00      7931.52
 1119.63        2959.50           2278        1804.00      7861.74
 1119.66        2959.75           2282        1881.00      8197.58
 1119.70        2960.00           2285        1889.00      8232.47
 1119.73        2960.25           2289        1932.00      8420.02
 1119.76        2960.50           2293        1957.00      8529.06
 1119.79        2960.75           2296        1992.00      8681.73
 1119.82        2961.00           2300        2071.00      9026.31
 1119.85        2961.25           2303        2363.00     10300.03
 1119.88        2961.50           2307        5248.00     22890.52
 1119.91        2961.75           2310       13356.00     58332.67
 1119.94        2962.00           2314       31663.00    138673.20
 1119.97        2962.25           2317       48071.00    211055.80
 1120.00        2962.50           2321       70529.00    310710.60
 1120.03        2962.75           2324       86818.00    383418.40
 1120.06        2963.00           2328      108582.00    481132.70
 1120.09        2963.25           2331      129520.00    575760.30
 1120.12        2963.50           2335      155435.00    693739.40
 1120.15        2963.75           2339      180631.00    809371.00
 1120.18        2964.00           2342      198703.00    892880.10
 1120.21        2964.25           2346      222828.00   1005115.00
 1120.25        2964.50           2349      241534.00   1092744.00
 1120.28        2964.75           2353      265538.00   1205977.00
 1120.31        2965.00           2356      283635.00   1291938.00
 1120.34        2965.25           2360      307437.00   1405786.00
 1120.37        2965.50           2363      324600.00   1488443.00
 1120.40        2965.75           2367      346979.00   1596941.00
 1120.43        2966.00           2370      362252.00   1671464.00
 1120.46        2966.25           2374      381544.00   1766157.00
 1120.49        2966.50           2378      397420.00   1844557.00
 1120.52        2966.75           2381      403620.00   1875291.00
 1120.55        2967.00           2385      405707.00   1885652.00
 1120.58        2967.25           2388      406897.00   1891563.00
 1120.61        2967.50           2392      407349.00   1893809.00
 1120.64        2967.75           2395      406600.00   1890088.00
 1120.67        2968.00           2399      402199.00   1868241.00
 1120.70        2968.25           2402      393763.00   1826459.00
 1120.73        2968.50           2406      374149.00   1729785.00
 1120.77        2968.75           2409      357182.00   1646683.00
 1120.80        2969.00           2413      333007.00   1529106.00
 1120.83        2969.25           2417      312650.00   1430841.00
 1120.86        2969.50           2420      296175.00   1351806.00
 1120.89        2969.75           2424      273458.00   1243534.00
 1120.92        2970.00           2427      255872.00   1160273.00
 1120.95        2970.25           2431      232614.00   1050892.00
 1120.98        2970.50           2434      213854.00    963264.40
 1121.01        2970.75           2438      189209.00    848949.10
 1121.04        2971.00           2441      171396.00    766882.00
 1121.07        2971.25           2445      147699.00    658420.70
 1121.10        2971.50           2449      123809.00    549889.00
 1121.13        2971.75           2452      106745.00    472859.70
 1121.16        2972.00           2456       83460.00    368400.00
 1121.19        2972.25           2459       65842.00    289856.50
 1121.22        2972.50           2463       41687.00    182850.80
 1121.25        2972.75           2466       23756.00    103919.30
 1121.29        2973.00           2470        7325.00     31961.48
 1121.32        2973.25           2473        3431.00     14959.66
 1121.35        2973.50           2477        2299.00     10020.85
 1121.38        2973.75           2481        2101.00      9157.17
 1121.41        2974.00           2484        1994.00      8690.45
 1121.44        2974.25           2488        1972.00      8594.49
 1121.47        2974.50           2491        1941.00      8459.28
 1121.50        2974.75           2495        1912.00      8332.79
 1121.53        2975.00           2498        1865.00      8127.79
 1121.56        2975.25           2502        1864.00      8123.43
 1121.59        2975.50           2505        1827.00      7962.05
 1121.62        2975.75           2509        1783.00      7770.14
 1121.65        2976.00           2512        1793.00      7813.76
 1121.68        2976.25           2516        1763.00      7682.91
 1121.71        2976.50           2520        1747.00      7613.13
 1121.74        2976.75           2523        1730.00      7538.99
 1121.77        2977.00           2527        1701.00      7412.50
 1121.81        2977.25           2530        1695.00      7386.34
 1121.84        2977.50           2534        1629.00      7098.49
 1121.87        2977.75           2537        1628.00      7094.13
 1121.90        2978.00           2541        1657.00      7220.60
 1121.93        2978.25           2544        1668.00      7268.58
 1121.96        2978.50           2548        1647.00      7176.99
 1121.99        2978.75           2552        1617.00      7046.15
 1122.02        2979.00           2555        1597.00      6958.93
 1122.05        2979.25           2559        1585.00      6906.59
 1122.08        2979.50           2562        1596.00      6954.57
 1122.11        2979.75           2566        1581.00      6889.15
 1122.14        2980.00           2569        1503.00      6548.97
 1122.17        2980.25           2573        1523.00      6636.20
 1122.20        2980.50           2577        1534.00      6684.17
 1122.23        2980.75           2580        1520.00      6623.11
 1122.26        2981.00           2584        1485.00      6470.47
 1122.29        2981.25           2587        1469.00      6400.70
 1122.33        2981.50           2591        1478.00      6439.95
 1122.36        2981.75           2594        1519.00      6618.75
 1122.39        2982.00           2598        1481.00      6453.03
 1122.42        2982.25           2601        1485.00      6470.47
 1122.45        2982.50           2605        1478.00      6439.95
 1122.48        2982.75           2609        1444.00      6291.67
 1122.51        2983.00           2612        1431.00      6234.97
 1122.54        2983.25           2616        1442.00      6282.95
 1122.57        2983.50           2619        1470.00      6405.06
 1122.60        2983.75           2623        1441.00      6278.59
 1122.63        2984.00           2626        1457.00      6348.36
HS scan finished at 18:42:51
end
