************************************************************
  HS Scan of (1) Internal mercury lamp
************************************************************
Integration time is 0.2294 seconds per sample
dh280219Reading 51.44 .94 2.9pr1000
************************************************************
Dead Time -------------------------  3.4E-08 
Number of Cycles Used -------------  4 
Starting Wavelength (Angstroms) ---  2950 
Final Wavelength (Angstoms) -------  2984 
Wavelength Increment (Angstroms) --  .25 
Filter Wheel #1 Position ---------- (1) Ground quartz diffuser (ND=2.32)
Filter Wheel #2 Position ---------- (1) Neutral Density 0.494



************************************************************
HS scan start time = 04:08:14
Dark Count =  .6 


Time (GMT)  Wavelength (Ang)  Step Number  Raw Counts  Counts/Second

  249.13        2950.00           2144        1564.00      6816.75
  249.32        2950.25           2147        1564.00      6816.75
  249.35        2950.50           2151        1542.00      6720.80
  249.39        2950.75           2155        1580.00      6886.53
  249.42        2951.00           2158        1575.00      6864.72
  249.45        2951.25           2162        1622.00      7069.70
  249.48        2951.50           2165        1622.00      7069.70
  249.51        2951.75           2169        1614.00      7034.81
  249.54        2952.00           2172        1636.00      7130.76
  249.57        2952.25           2176        1616.00      7043.54
  249.60        2952.50           2179        1612.00      7026.09
  249.63        2952.75           2183        1648.00      7183.10
  249.66        2953.00           2186        1624.00      7078.43
  249.69        2953.25           2190        1638.00      7139.48
  249.72        2953.50           2193        1666.00      7261.60
  249.75        2953.75           2197        1661.00      7239.79
  249.78        2954.00           2200        1664.00      7252.88
  249.81        2954.25           2204        1691.00      7370.64
  249.84        2954.50           2208        1694.00      7383.72
  249.87        2954.75           2211        1716.00      7479.67
  249.91        2955.00           2215        1714.00      7470.95
  249.94        2955.25           2218        1746.00      7610.51
  249.97        2955.50           2222        1733.00      7553.82
  250.00        2955.75           2225        1757.00      7658.49
  250.03        2956.00           2229        1756.00      7654.13
  250.06        2956.25           2232        1761.00      7675.94
  250.09        2956.50           2236        1748.00      7619.24
  250.12        2956.75           2239        1807.00      7876.57
  250.15        2957.00           2243        1767.00      7702.10
  250.18        2957.25           2246        1790.00      7802.42
  250.21        2957.50           2250        1833.00      7989.96
  250.24        2957.75           2254        1833.00      7989.96
  250.27        2958.00           2257        1906.00      8308.36
  250.30        2958.25           2261        1893.00      8251.66
  250.33        2958.50           2264        1909.00      8321.45
  250.36        2958.75           2268        1936.00      8439.21
  250.39        2959.00           2271        1967.00      8574.43
  250.42        2959.25           2275        1969.00      8583.15
  250.46        2959.50           2278        2034.00      8866.67
  250.49        2959.75           2282        1949.00      8495.92
  250.52        2960.00           2285        2052.00      8945.18
  250.55        2960.25           2289        2114.00      9215.62
  250.58        2960.50           2293        2135.00      9307.22
  250.61        2960.75           2296        2158.00      9407.54
  250.64        2961.00           2300        2219.00      9673.63
  250.67        2961.25           2303        2512.00     10951.77
  250.70        2961.50           2307        5019.00     21892.49
  250.73        2961.75           2310       12352.00     53941.04
  250.76        2962.00           2314       30691.00    134398.30
  250.79        2962.25           2317       47537.00    208696.20
  250.82        2962.50           2321       75363.00    332251.80
  250.85        2962.75           2324       96568.00    427114.10
  250.88        2963.00           2328      126467.00    561926.00
  250.91        2963.25           2331      147066.00    655536.40
  250.94        2963.50           2335      175237.00    784540.70
  250.98        2963.75           2339      203811.00    916573.00
  251.01        2964.00           2342      224921.00   1014896.00
  251.04        2964.25           2346      252233.00   1143106.00
  251.07        2964.50           2349      273598.00   1244201.00
  251.10        2964.75           2353      301903.00   1379237.00
  251.13        2965.00           2356      323403.00   1482665.00
  251.16        2965.25           2360      355121.00   1636623.00
  251.19        2965.50           2363      375434.00   1736100.00
  251.22        2965.75           2367      399428.00   1854505.00
  251.25        2966.00           2370      416817.00   1940936.00
  251.28        2966.25           2374      444285.00   2078545.00
  251.31        2966.50           2378      464553.00   2180948.00
  251.34        2966.75           2381      471547.00   2216457.00
  251.37        2967.00           2385      473712.00   2227467.00
  251.40        2967.25           2388      474293.00   2230423.00
  251.43        2967.50           2392      474666.00   2232321.00
  251.46        2967.75           2395      473102.00   2224364.00
  251.50        2968.00           2399      467543.00   2196117.00
  251.53        2968.25           2402      455893.00   2137103.00
  251.56        2968.50           2406      434719.00   2030470.00
  251.59        2968.75           2409      416812.00   1940911.00
  251.62        2969.00           2413      393224.00   1823796.00
  251.65        2969.25           2417      368294.00   1701055.00
  251.68        2969.50           2420      348776.00   1605691.00
  251.72        2969.75           2424      321559.00   1473764.00
  251.76        2970.00           2427      299815.00   1369233.00
  251.79        2970.25           2431      268632.00   1220639.00
  251.82        2970.50           2434      246195.00   1114664.00
  251.85        2970.75           2438      216366.00    974969.10
  251.88        2971.00           2441      195627.00    878633.90
  251.91        2971.25           2445      168720.00    754595.10
  251.94        2971.50           2449      141047.00    628121.20
  251.97        2971.75           2452      118147.00    524286.60
  252.00        2972.00           2456       89316.00    394602.30
  252.03        2972.25           2459       68251.00    300573.10
  252.06        2972.50           2463       41517.00    182102.20
  252.09        2972.75           2466       23442.00    102542.60
  252.12        2973.00           2470        8152.00     35576.58
  252.16        2973.25           2473        3984.00     17374.69
  252.20        2973.50           2477        2470.00     10768.55
  252.23        2973.75           2481        2298.00     10018.23
  252.26        2974.00           2484        2231.00      9725.97
  252.29        2974.25           2488        2146.00      9355.20
  252.32        2974.50           2491        2119.00      9237.43
  252.35        2974.75           2495        2084.00      9084.76
  252.38        2975.00           2498        2037.00      8879.75
  252.41        2975.25           2502        2011.00      8766.34
  252.44        2975.50           2505        2005.00      8740.17
  252.47        2975.75           2509        1947.00      8487.19
  252.50        2976.00           2512        1985.00      8652.94
  252.53        2976.25           2516        1911.00      8330.17
  252.56        2976.50           2520        1874.00      8168.79
  252.59        2976.75           2523        1838.00      8011.77
  252.62        2977.00           2527        1763.00      7684.66
  252.66        2977.25           2530        1788.00      7793.70
  252.69        2977.50           2534        1770.00      7715.19
  252.72        2977.75           2537        1750.00      7627.96
  252.75        2978.00           2541        1760.00      7671.57
  252.78        2978.25           2544        1687.00      7353.19
  252.81        2978.50           2548        1716.00      7479.67
  252.84        2978.75           2552        1713.00      7466.59
  252.87        2979.00           2555        1639.00      7143.85
  252.90        2979.25           2559        1673.00      7292.13
  252.93        2979.50           2562        1636.00      7130.76
  252.96        2979.75           2566        1656.00      7217.99
  252.99        2980.00           2569        1625.00      7082.79
  253.02        2980.25           2573        1623.00      7074.06
  253.05        2980.50           2577        1676.00      7305.22
  253.08        2980.75           2580        1612.00      7026.09
  253.11        2981.00           2584        1596.00      6956.31
  253.15        2981.25           2587        1594.00      6947.59
  253.18        2981.50           2591        1603.00      6986.84
  253.21        2981.75           2594        1588.00      6921.42
  253.24        2982.00           2598        1547.00      6742.61
  253.27        2982.25           2601        1561.00      6803.67
  253.30        2982.50           2605        1579.00      6882.17
  253.33        2982.75           2609        1509.00      6576.89
  253.36        2983.00           2612        1549.00      6751.33
  253.39        2983.25           2616        1529.00      6664.11
  253.42        2983.50           2619        1557.00      6786.22
  253.45        2983.75           2623        1532.00      6677.19
  253.48        2984.00           2626        1553.00      6768.78
HS scan finished at 04:13:42
end
************************************************************
  HS Scan of (1) Internal mercury lamp
************************************************************
Integration time is 0.2294 seconds per sample
dh280219Reading 51.44 .94 3.17pr1000
************************************************************
Dead Time -------------------------  3.4E-08 
Number of Cycles Used -------------  4 
Starting Wavelength (Angstroms) ---  2950 
Final Wavelength (Angstoms) -------  2984 
Wavelength Increment (Angstroms) --  .25 
Filter Wheel #1 Position ---------- (1) Ground quartz diffuser (ND=2.32)
Filter Wheel #2 Position ---------- (1) Neutral Density 0.494



************************************************************
HS scan start time = 18:37:25
Dark Count =  1.5 


Time (GMT)  Wavelength (Ang)  Step Number  Raw Counts  Counts/Second

 1118.31        2950.00           2144        1545.00      6729.96
 1118.50        2950.25           2147        1519.00      6616.57
 1118.53        2950.50           2151        1565.00      6817.19
 1118.56        2950.75           2155        1533.00      6677.63
 1118.59        2951.00           2158        1569.00      6834.63
 1118.62        2951.25           2162        1551.00      6756.13
 1118.65        2951.50           2165        1581.00      6886.97
 1118.68        2951.75           2169        1527.00      6651.46
 1118.71        2952.00           2172        1527.00      6651.46
 1118.75        2952.25           2176        1594.00      6943.66
 1118.78        2952.50           2179        1592.00      6934.94
 1118.81        2952.75           2183        1578.00      6873.88
 1118.84        2953.00           2186        1581.00      6886.97
 1118.87        2953.25           2190        1628.00      7091.95
 1118.90        2953.50           2193        1584.00      6900.05
 1118.93        2953.75           2197        1595.00      6948.02
 1118.96        2954.00           2200        1603.00      6982.91
 1118.99        2954.25           2204        1643.00      7157.37
 1119.02        2954.50           2208        1644.00      7161.73
 1119.06        2954.75           2211        1588.00      6917.49
 1119.09        2955.00           2215        1628.00      7091.95
 1119.12        2955.25           2218        1634.00      7118.11
 1119.15        2955.50           2222        1659.00      7227.15
 1119.18        2955.75           2225        1679.00      7314.37
 1119.21        2956.00           2229        1655.00      7209.70
 1119.24        2956.25           2232        1718.00      7484.47
 1119.27        2956.50           2236        1701.00      7410.32
 1119.30        2956.75           2239        1695.00      7384.16
 1119.33        2957.00           2243        1713.00      7462.66
 1119.36        2957.25           2246        1735.00      7558.61
 1119.39        2957.50           2250        1751.00      7628.40
 1119.42        2957.75           2254        1767.00      7698.18
 1119.45        2958.00           2257        1792.00      7807.22
 1119.48        2958.25           2261        1788.00      7789.77
 1119.51        2958.50           2264        1797.00      7829.02
 1119.54        2958.75           2268        1834.00      7990.40
 1119.58        2959.00           2271        1843.00      8029.66
 1119.61        2959.25           2275        1861.00      8108.16
 1119.64        2959.50           2278        1859.00      8099.44
 1119.67        2959.75           2282        1920.00      8365.50
 1119.70        2960.00           2285        1936.00      8435.29
 1119.73        2960.25           2289        1958.00      8531.25
 1119.76        2960.50           2293        1994.00      8688.27
 1119.79        2960.75           2296        1976.00      8609.76
 1119.82        2961.00           2300        2149.00      9364.36
 1119.85        2961.25           2303        2451.00     10681.74
 1119.88        2961.50           2307        5603.00     24438.35
 1119.91        2961.75           2310       13636.00     59555.96
 1119.94        2962.00           2314       30323.00    132775.50
 1119.97        2962.25           2317       47128.00    206883.90
 1120.00        2962.50           2321       69979.00    308259.70
 1120.03        2962.75           2324       88278.00    389950.70
 1120.06        2963.00           2328      113032.00    501190.60
 1120.10        2963.25           2331      132398.00    588813.20
 1120.13        2963.50           2335      159689.00    713195.50
 1120.16        2963.75           2339      184431.00    826888.20
 1120.19        2964.00           2342      202147.00    908846.90
 1120.22        2964.25           2346      226695.00   1023185.00
 1120.25        2964.50           2349      246119.00   1114302.00
 1120.28        2964.75           2353      272526.00   1239107.00
 1120.31        2965.00           2356      291200.00   1328022.00
 1120.34        2965.25           2360      313925.00   1436974.00
 1120.37        2965.50           2363      329413.00   1511706.00
 1120.40        2965.75           2367      351170.00   1617350.00
 1120.43        2966.00           2370      369344.00   1706199.00
 1120.46        2966.25           2374      393451.00   1824914.00
 1120.49        2966.50           2378      411985.00   1916862.00
 1120.52        2966.75           2381      419821.00   1955916.00
 1120.55        2967.00           2385      423742.00   1975499.00
 1120.58        2967.25           2388      424578.00   1979678.00
 1120.62        2967.50           2392      424337.00   1978473.00
 1120.65        2967.75           2395      424742.00   1980498.00
 1120.68        2968.00           2399      422859.00   1971087.00
 1120.71        2968.25           2402      415538.00   1934557.00
 1120.74        2968.50           2406      397996.00   1847407.00
 1120.77        2968.75           2409      381239.00   1764652.00
 1120.80        2969.00           2413      358907.00   1655107.00
 1120.83        2969.25           2417      336769.00   1547337.00
 1120.86        2969.50           2420      320949.00   1470817.00
 1120.89        2969.75           2424      296572.00   1353703.00
 1120.92        2970.00           2427      275395.00   1252732.00
 1120.95        2970.25           2431      247583.00   1121193.00
 1120.98        2970.50           2434      228110.00   1029803.00
 1121.01        2970.75           2438      202156.00    908888.60
 1121.04        2971.00           2441      183483.00    822515.60
 1121.07        2971.25           2445      159501.00    712335.00
 1121.10        2971.50           2449      134453.00    598142.10
 1121.14        2971.75           2452      113962.00    505386.30
 1121.17        2972.00           2456       86378.00    381447.40
 1121.20        2972.25           2459       67669.00    297979.70
 1121.23        2972.50           2463       42217.00    185188.10
 1121.26        2972.75           2466       25903.00    113345.70
 1121.29        2973.00           2470        9905.00     43234.83
 1121.32        2973.25           2473        4549.00     19836.83
 1121.35        2973.50           2477        2522.00     10991.47
 1121.38        2973.75           2481        2238.00      9752.58
 1121.41        2974.00           2484        2103.00      9163.71
 1121.44        2974.25           2488        2012.00      8766.78
 1121.47        2974.50           2491        1971.00      8587.95
 1121.50        2974.75           2495        1984.00      8644.65
 1121.53        2975.00           2498        1915.00      8343.69
 1121.56        2975.25           2502        1890.00      8234.65
 1121.59        2975.50           2505        1847.00      8047.10
 1121.62        2975.75           2509        1853.00      8073.27
 1121.66        2976.00           2512        1845.00      8038.38
 1121.69        2976.25           2516        1832.00      7981.68
 1121.72        2976.50           2520        1799.00      7837.75
 1121.75        2976.75           2523        1753.00      7637.12
 1121.78        2977.00           2527        1702.00      7414.69
 1121.81        2977.25           2530        1719.00      7488.83
 1121.84        2977.50           2534        1687.00      7349.26
 1121.87        2977.75           2537        1698.00      7397.24
 1121.91        2978.00           2541        1696.00      7388.52
 1121.94        2978.25           2544        1697.00      7392.88
 1121.97        2978.50           2548        1631.00      7105.03
 1122.00        2978.75           2552        1609.00      7009.08
 1122.03        2979.00           2555        1623.00      7070.14
 1122.06        2979.25           2559        1593.00      6939.30
 1122.09        2979.50           2562        1568.00      6830.27
 1122.12        2979.75           2566        1579.00      6878.24
 1122.15        2980.00           2569        1602.00      6978.55
 1122.18        2980.25           2573        1587.00      6913.13
 1122.21        2980.50           2577        1553.00      6764.85
 1122.24        2980.75           2580        1511.00      6581.68
 1122.27        2981.00           2584        1516.00      6603.49
 1122.30        2981.25           2587        1530.00      6664.54
 1122.33        2981.50           2591        1540.00      6708.16
 1122.37        2981.75           2594        1497.00      6520.63
 1122.40        2982.00           2598        1495.00      6511.90
 1122.43        2982.25           2601        1509.00      6572.96
 1122.46        2982.50           2605        1458.00      6350.54
 1122.49        2982.75           2609        1507.00      6564.24
 1122.52        2983.00           2612        1517.00      6607.85
 1122.55        2983.25           2616        1485.00      6468.29
 1122.58        2983.50           2619        1474.00      6420.32
 1122.61        2983.75           2623        1450.00      6315.65
 1122.64        2984.00           2626        1470.00      6402.88
HS scan finished at 18:42:52
end
