************************************************************
  HS Scan of 
************************************************************
Integration time is 0.2294 seconds per sample
dh280217Reading 51.44 .94 2.5pr1000
************************************************************
Dead Time -------------------------  3.4E-08 
Number of Cycles Used -------------  4 
Starting Wavelength (Angstroms) ---  2950 
Final Wavelength (Angstoms) -------  2984 
Wavelength Increment (Angstroms) --  .25 
Filter Wheel #1 Position ---------- (1) Ground quartz diffuser (ND=2.32)
Filter Wheel #2 Position ---------- (1) Neutral Density 0.494



************************************************************
HS scan start time = 04:07:11
Dark Count =  .3 


Time (GMT)  Wavelength (Ang)  Step Number  Raw Counts  Counts/Second

  248.08        2950.00           2144         912.00      3974.82
  248.27        2950.25           2147         934.00      4070.75
  248.30        2950.50           2151         926.00      4035.86
  248.34        2950.75           2155         926.00      4035.86
  248.37        2951.00           2158         931.00      4057.67
  248.40        2951.25           2162         930.00      4053.30
  248.43        2951.50           2165         916.00      3992.26
  248.46        2951.75           2169         935.00      4075.11
  248.49        2952.00           2172         942.00      4105.63
  248.52        2952.25           2176         967.00      4214.64
  248.55        2952.50           2179         946.00      4123.07
  248.58        2952.75           2183         958.00      4175.40
  248.61        2953.00           2186         943.00      4109.99
  248.64        2953.25           2190         930.00      4053.30
  248.67        2953.50           2193         945.00      4118.71
  248.70        2953.75           2197         959.00      4179.76
  248.73        2954.00           2200         969.00      4223.36
  248.76        2954.25           2204         944.00      4114.35
  248.79        2954.50           2208         948.00      4131.79
  248.82        2954.75           2211         992.00      4323.65
  248.86        2955.00           2215         990.00      4314.93
  248.89        2955.25           2218         967.00      4214.64
  248.92        2955.50           2222         987.00      4301.85
  248.95        2955.75           2225         995.00      4336.73
  248.98        2956.00           2229        1024.00      4463.19
  249.01        2956.25           2232        1021.00      4450.11
  249.04        2956.50           2236        1030.00      4489.35
  249.07        2956.75           2239        1017.00      4432.66
  249.10        2957.00           2243        1045.00      4554.76
  249.13        2957.25           2246        1030.00      4489.35
  249.16        2957.50           2250        1058.00      4611.45
  249.19        2957.75           2254        1073.00      4676.86
  249.22        2958.00           2257        1059.00      4615.81
  249.25        2958.25           2261        1060.00      4620.17
  249.28        2958.50           2264        1105.00      4816.39
  249.31        2958.75           2268        1090.00      4750.99
  249.34        2959.00           2271        1135.00      4947.21
  249.38        2959.25           2275        1096.00      4777.15
  249.41        2959.50           2278        1113.00      4851.28
  249.44        2959.75           2282        1136.00      4951.57
  249.47        2960.00           2285        1146.00      4995.18
  249.50        2960.25           2289        1178.00      5134.72
  249.53        2960.50           2293        1181.00      5147.81
  249.56        2960.75           2296        1212.00      5282.99
  249.59        2961.00           2300        1308.00      5701.63
  249.62        2961.25           2303        1487.00      6482.25
  249.65        2961.50           2307        3893.00     16978.85
  249.68        2961.75           2310        9633.00     42050.93
  249.71        2962.00           2314       20334.00     88906.97
  249.74        2962.25           2317       29247.00    128048.40
  249.77        2962.50           2321       42069.00    184540.10
  249.80        2962.75           2324       52389.00    230166.90
  249.83        2963.00           2328       66799.00    294115.30
  249.86        2963.25           2331       78163.00    344744.00
  249.90        2963.50           2335       91997.00    406614.60
  249.93        2963.75           2339      105495.00    467236.20
  249.96        2964.00           2342      115387.00    511823.20
  249.99        2964.25           2346      130184.00    578774.60
  250.02        2964.50           2349      140583.00    626011.30
  250.05        2964.75           2353      154998.00    691745.30
  250.08        2965.00           2356      164462.00    735064.30
  250.11        2965.25           2360      176792.00    791696.40
  250.14        2965.50           2363      185333.00    831055.50
  250.17        2965.75           2367      198259.00    890825.90
  250.20        2966.00           2370      208033.00    936185.60
  250.23        2966.25           2374      221526.00    999039.20
  250.26        2966.50           2378      230743.00   1042132.00
  250.29        2966.75           2381      233587.00   1055455.00
  250.32        2967.00           2385      234807.00   1061174.00
  250.35        2967.25           2388      235543.00   1064625.00
  250.38        2967.50           2392      234670.00   1060531.00
  250.42        2967.75           2395      234450.00   1059500.00
  250.45        2968.00           2399      233067.00   1053018.00
  250.48        2968.25           2402      226956.00   1024411.00
  250.51        2968.50           2406      214932.00    968288.60
  250.54        2968.75           2409      205628.00    925011.10
  250.57        2969.00           2413      193086.00    866876.10
  250.60        2969.25           2417      181808.00    814798.50
  250.63        2969.50           2420      172629.00    772551.00
  250.66        2969.75           2424      157830.00    704694.50
  250.69        2970.00           2427      146560.00    653231.00
  250.72        2970.25           2431      131801.00    586109.60
  250.75        2970.50           2434      121277.00    538436.60
  250.78        2970.75           2438      106877.00    473457.20
  250.81        2971.00           2441       95434.00    422026.80
  250.84        2971.25           2445       80879.00    356870.30
  250.87        2971.50           2449       66321.00    291989.50
  250.90        2971.75           2452       55841.00    245460.70
  250.93        2972.00           2456       42493.00    186411.90
  250.97        2972.25           2459       31949.00    139934.90
  251.00        2972.50           2463       19300.00     84372.91
  251.03        2972.75           2466       11014.00     48089.46
  251.06        2973.00           2470        3910.00     17053.04
  251.09        2973.25           2473        1925.00      8392.54
  251.12        2973.50           2477        1339.00      5836.82
  251.15        2973.75           2481        1267.00      5522.83
  251.18        2974.00           2484        1214.00      5291.71
  251.21        2974.25           2488        1203.00      5243.74
  251.24        2974.50           2491        1205.00      5252.46
  251.27        2974.75           2495        1149.00      5008.26
  251.30        2975.00           2498        1148.00      5003.90
  251.33        2975.25           2502        1143.00      4982.10
  251.36        2975.50           2505        1097.00      4781.51
  251.39        2975.75           2509        1101.00      4798.95
  251.42        2976.00           2512        1095.00      4772.79
  251.46        2976.25           2516        1095.00      4772.79
  251.49        2976.50           2520        1047.00      4563.48
  251.52        2976.75           2523        1047.00      4563.48
  251.55        2977.00           2527        1053.00      4589.64
  251.58        2977.25           2530        1038.00      4524.24
  251.61        2977.50           2534        1028.00      4480.63
  251.64        2977.75           2537         997.00      4345.45
  251.67        2978.00           2541         998.00      4349.82
  251.70        2978.25           2544        1023.00      4458.83
  251.73        2978.50           2548         994.00      4332.37
  251.76        2978.75           2552         989.00      4310.57
  251.79        2979.00           2555         982.00      4280.05
  251.82        2979.25           2559         983.00      4284.41
  251.85        2979.50           2562         956.00      4166.68
  251.88        2979.75           2566         980.00      4271.33
  251.91        2980.00           2569         952.00      4149.23
  251.94        2980.25           2573         952.00      4149.23
  251.98        2980.50           2577         957.00      4171.04
  252.01        2980.75           2580         925.00      4031.50
  252.04        2981.00           2584         930.00      4053.30
  252.07        2981.25           2587         922.00      4018.42
  252.10        2981.50           2591         919.00      4005.34
  252.13        2981.75           2594         928.00      4044.58
  252.16        2982.00           2598         918.00      4000.98
  252.19        2982.25           2601         930.00      4053.30
  252.22        2982.50           2605         918.00      4000.98
  252.25        2982.75           2609         899.00      3918.13
  252.28        2983.00           2612         877.00      3822.21
  252.31        2983.25           2616         896.00      3905.05
  252.34        2983.50           2619         892.00      3887.61
  252.37        2983.75           2623         895.00      3900.69
  252.40        2984.00           2626         861.00      3752.44
HS scan finished at 04:12:38
end
************************************************************
  HS Scan of 
************************************************************
Integration time is 0.2294 seconds per sample
dh280217Reading 51.44 .94 2.8pr1000
************************************************************
Dead Time -------------------------  3.4E-08 
Number of Cycles Used -------------  4 
Starting Wavelength (Angstroms) ---  2950 
Final Wavelength (Angstoms) -------  2984 
Wavelength Increment (Angstroms) --  .25 
Filter Wheel #1 Position ---------- (1) Ground quartz diffuser (ND=2.32)
Filter Wheel #2 Position ---------- (1) Neutral Density 0.494



************************************************************
HS scan start time = 18:37:25
Dark Count =  .7 


Time (GMT)  Wavelength (Ang)  Step Number  Raw Counts  Counts/Second

 1118.31        2950.00           2144         794.00      3458.56
 1118.50        2950.25           2147         783.00      3410.60
 1118.53        2950.50           2151         783.00      3410.60
 1118.56        2950.75           2155         792.00      3449.84
 1118.59        2951.00           2158         764.00      3327.75
 1118.62        2951.25           2162         778.00      3388.80
 1118.65        2951.50           2165         797.00      3471.64
 1118.68        2951.75           2169         806.00      3510.88
 1118.72        2952.00           2172         793.00      3454.20
 1118.75        2952.25           2176         809.00      3523.96
 1118.78        2952.50           2179         796.00      3467.28
 1118.81        2952.75           2183         792.00      3449.84
 1118.84        2953.00           2186         802.00      3493.44
 1118.87        2953.25           2190         812.00      3537.04
 1118.90        2953.50           2193         801.00      3489.08
 1118.93        2953.75           2197         805.00      3506.52
 1118.96        2954.00           2200         809.00      3523.96
 1118.99        2954.25           2204         803.00      3497.80
 1119.02        2954.50           2208         837.00      3646.05
 1119.05        2954.75           2211         826.00      3598.09
 1119.08        2955.00           2215         844.00      3676.57
 1119.11        2955.25           2218         821.00      3576.29
 1119.14        2955.50           2222         836.00      3641.69
 1119.17        2955.75           2225         823.00      3585.01
 1119.20        2956.00           2229         832.00      3624.25
 1119.24        2956.25           2232         812.00      3537.04
 1119.27        2956.50           2236         806.00      3510.88
 1119.30        2956.75           2239         833.00      3628.61
 1119.33        2957.00           2243         843.00      3672.21
 1119.36        2957.25           2246         862.00      3755.06
 1119.39        2957.50           2250         863.00      3759.42
 1119.42        2957.75           2254         872.00      3798.66
 1119.45        2958.00           2257         856.00      3728.90
 1119.48        2958.25           2261         866.00      3772.50
 1119.52        2958.50           2264         926.00      4034.12
 1119.55        2958.75           2268         914.00      3981.79
 1119.58        2959.00           2271         904.00      3938.19
 1119.61        2959.25           2275         892.00      3885.87
 1119.64        2959.50           2278         918.00      3999.24
 1119.67        2959.75           2282         936.00      4077.72
 1119.70        2960.00           2285         915.00      3986.16
 1119.73        2960.25           2289         981.00      4273.94
 1119.76        2960.50           2293         970.00      4225.98
 1119.79        2960.75           2296         991.00      4317.55
 1119.82        2961.00           2300        1020.00      4444.00
 1119.85        2961.25           2303        1188.00      5176.59
 1119.88        2961.50           2307        2891.00     12604.79
 1119.91        2961.75           2310        7148.00     31189.55
 1119.94        2962.00           2314       15385.00     67216.65
 1119.97        2962.25           2317       22573.00     98727.98
 1120.00        2962.50           2321       32149.00    140813.40
 1120.04        2962.75           2324       39113.00    171495.30
 1120.07        2963.00           2328       49440.00    217112.50
 1120.10        2963.25           2331       57084.00    250969.80
 1120.13        2963.50           2335       67932.00    299153.30
 1120.16        2963.75           2339       77915.00    343635.40
 1120.19        2964.00           2342       85056.00    375537.40
 1120.22        2964.25           2346       95446.00    422078.80
 1120.25        2964.50           2349      103300.00    457359.10
 1120.28        2964.75           2353      114418.00    507447.70
 1120.31        2965.00           2356      121460.00    539262.40
 1120.34        2965.25           2360      130056.00    578192.20
 1120.37        2965.50           2363      136833.00    608957.60
 1120.40        2965.75           2367      146988.00    655180.30
 1120.43        2966.00           2370      154625.00    690038.80
 1120.46        2966.25           2374      163792.00    731991.50
 1120.49        2966.50           2378      171311.00    766492.80
 1120.52        2966.75           2381      173081.00    774626.50
 1120.56        2967.00           2385      174227.00    779895.20
 1120.59        2967.25           2388      174235.00    779932.00
 1120.62        2967.50           2392      174485.00    781081.60
 1120.65        2967.75           2395      174444.00    780893.10
 1120.68        2968.00           2399      173138.00    774888.50
 1120.71        2968.25           2402      169225.00    756913.00
 1120.74        2968.50           2406      160621.00    717465.70
 1120.77        2968.75           2409      152911.00    682208.00
 1120.80        2969.00           2413      143921.00    641204.70
 1120.83        2969.25           2417      135682.00    603727.90
 1120.86        2969.50           2420      128454.00    570929.10
 1120.89        2969.75           2424      117375.00    520798.50
 1120.92        2970.00           2427      108586.00    481152.00
 1120.95        2970.25           2431       98211.00    434489.50
 1120.98        2970.50           2434       90189.00    398511.80
 1121.01        2970.75           2438       79984.00    352871.40
 1121.04        2971.00           2441       71990.00    317218.50
 1121.08        2971.25           2445       60984.00    268274.20
 1121.11        2971.50           2449       50093.00    220001.80
 1121.14        2971.75           2452       42281.00    185474.20
 1121.17        2972.00           2456       32448.00    142129.40
 1121.20        2972.25           2459       25012.00    109435.70
 1121.23        2972.50           2463       15383.00     67207.90
 1121.26        2972.75           2466        9064.00     39561.90
 1121.29        2973.00           2470        3107.00     13547.22
 1121.32        2973.25           2473        1521.00      6628.78
 1121.35        2973.50           2477        1072.00      4670.75
 1121.38        2973.75           2481        1024.00      4461.44
 1121.41        2974.00           2484         967.00      4212.90
 1121.44        2974.25           2488         992.00      4321.91
 1121.47        2974.50           2491         928.00      4042.84
 1121.50        2974.75           2495         942.00      4103.89
 1121.53        2975.00           2498         936.00      4077.72
 1121.56        2975.25           2502         930.00      4051.56
 1121.60        2975.50           2505         914.00      3981.79
 1121.63        2975.75           2509         865.00      3768.14
 1121.66        2976.00           2512         879.00      3829.18
 1121.69        2976.25           2516         876.00      3816.10
 1121.72        2976.50           2520         865.00      3768.14
 1121.75        2976.75           2523         859.00      3741.98
 1121.78        2977.00           2527         839.00      3654.77
 1121.81        2977.25           2530         831.00      3619.89
 1121.84        2977.50           2534         820.00      3571.92
 1121.87        2977.75           2537         850.00      3702.73
 1121.90        2978.00           2541         811.00      3532.68
 1121.93        2978.25           2544         822.00      3580.65
 1121.96        2978.50           2548         798.00      3476.00
 1121.99        2978.75           2552         814.00      3545.76
 1122.02        2979.00           2555         786.00      3423.68
 1122.05        2979.25           2559         803.00      3497.80
 1122.08        2979.50           2562         812.00      3537.04
 1122.11        2979.75           2566         797.00      3471.64
 1122.15        2980.00           2569         778.00      3388.80
 1122.18        2980.25           2573         787.00      3428.04
 1122.21        2980.50           2577         796.00      3467.28
 1122.24        2980.75           2580         776.00      3380.07
 1122.27        2981.00           2584         782.00      3406.24
 1122.30        2981.25           2587         773.00      3366.99
 1122.33        2981.50           2591         748.00      3257.99
 1122.36        2981.75           2594         759.00      3305.95
 1122.39        2982.00           2598         773.00      3366.99
 1122.42        2982.25           2601         773.00      3366.99
 1122.45        2982.50           2605         768.00      3345.19
 1122.48        2982.75           2609         747.00      3253.63
 1122.51        2983.00           2612         729.00      3175.15
 1122.54        2983.25           2616         719.00      3131.55
 1122.57        2983.50           2619         724.00      3153.35
 1122.60        2983.75           2623         746.00      3249.27
 1122.63        2984.00           2626         753.00      3279.79
HS scan finished at 18:42:52
end
