************************************************************
  HS Scan of 
************************************************************
Integration time is 0.2294 seconds per sample
dh010317Reading 51.44 .94 2.72pr1000
************************************************************
Dead Time -------------------------  3.4E-08 
Number of Cycles Used -------------  4 
Starting Wavelength (Angstroms) ---  2950 
Final Wavelength (Angstoms) -------  2984 
Wavelength Increment (Angstroms) --  .25 
Filter Wheel #1 Position ---------- (1) Ground quartz diffuser (ND=2.32)
Filter Wheel #2 Position ---------- (1) Neutral Density 0.494



************************************************************
HS scan start time = 04:04:40
Dark Count =  .7 


Time (GMT)  Wavelength (Ang)  Step Number  Raw Counts  Counts/Second

  245.57        2950.00           2144         857.00      3733.26
  245.76        2950.25           2147         891.00      3881.51
  245.79        2950.50           2151         901.00      3925.11
  245.82        2950.75           2155         901.00      3925.11
  245.85        2951.00           2158         902.00      3929.47
  245.88        2951.25           2162         897.00      3907.67
  245.91        2951.50           2165         949.00      4134.41
  245.95        2951.75           2169         896.00      3903.31
  245.98        2952.00           2172         900.00      3920.75
  246.01        2952.25           2176         943.00      4108.25
  246.04        2952.50           2179         925.00      4029.76
  246.07        2952.75           2183         918.00      3999.24
  246.10        2953.00           2186         930.00      4051.56
  246.13        2953.25           2190         937.00      4082.08
  246.16        2953.50           2193         912.00      3973.07
  246.19        2953.75           2197         929.00      4047.20
  246.22        2954.00           2200         951.00      4143.13
  246.25        2954.25           2204         961.00      4186.73
  246.28        2954.50           2208         953.00      4151.85
  246.31        2954.75           2211         989.00      4308.83
  246.34        2955.00           2215         959.00      4178.01
  246.37        2955.25           2218         982.00      4278.30
  246.40        2955.50           2222         967.00      4212.90
  246.44        2955.75           2225         958.00      4173.65
  246.47        2956.00           2229         971.00      4230.34
  246.50        2956.25           2232         972.00      4234.70
  246.53        2956.50           2236        1009.00      4396.04
  246.56        2956.75           2239        1012.00      4409.12
  246.59        2957.00           2243        1007.00      4387.32
  246.62        2957.25           2246        1032.00      4496.33
  246.65        2957.50           2250        1044.00      4548.66
  246.68        2957.75           2254        1023.00      4457.08
  246.71        2958.00           2257        1032.00      4496.33
  246.74        2958.25           2261        1053.00      4587.90
  246.77        2958.50           2264        1062.00      4627.15
  246.80        2958.75           2268        1075.00      4683.83
  246.83        2959.00           2271        1080.00      4705.64
  246.86        2959.25           2275        1072.00      4670.75
  246.89        2959.50           2278        1114.00      4853.90
  246.92        2959.75           2282        1125.00      4901.86
  246.96        2960.00           2285        1117.00      4866.98
  246.99        2960.25           2289        1172.00      5106.82
  247.02        2960.50           2293        1217.00      5303.05
  247.05        2960.75           2296        1189.00      5180.95
  247.08        2961.00           2300        1281.00      5582.14
  247.11        2961.25           2303        1543.00      6724.73
  247.14        2961.50           2307        4660.00     20324.85
  247.17        2961.75           2310       10877.00     47488.56
  247.20        2962.00           2314       21902.00     95783.53
  247.23        2962.25           2317       31873.00    139598.70
  247.26        2962.50           2321       44758.00    196413.20
  247.29        2962.75           2324       54702.00    240410.90
  247.32        2963.00           2328       68434.00    301386.90
  247.35        2963.25           2331       79306.00    349844.20
  247.38        2963.50           2335       94844.00    419378.20
  247.41        2963.75           2339      110566.00    490074.20
  247.44        2964.00           2342      121979.00    541609.90
  247.47        2964.25           2346      135997.00    605159.00
  247.51        2964.50           2349      145859.00    650034.10
  247.54        2964.75           2353      159448.00    712096.00
  247.57        2965.00           2356      170862.00    764430.30
  247.60        2965.25           2360      183696.00    823501.60
  247.63        2965.50           2363      192488.00    864108.20
  247.66        2965.75           2367      206553.00    929306.10
  247.69        2966.00           2370      215975.00    973146.30
  247.72        2966.25           2374      228735.00   1032731.00
  247.75        2966.50           2378      239794.00   1084572.00
  247.78        2966.75           2381      243468.00   1101836.00
  247.81        2967.00           2385      244589.00   1107108.00
  247.84        2967.25           2388      244569.00   1107014.00
  247.87        2967.50           2392      244055.00   1104596.00
  247.90        2967.75           2395      244127.00   1104935.00
  247.93        2968.00           2399      241675.00   1093408.00
  247.96        2968.25           2402      236272.00   1068042.00
  247.99        2968.50           2406      224372.00   1012330.00
  248.03        2968.75           2409      213552.00    961859.50
  248.06        2969.00           2413      199169.00    895041.10
  248.09        2969.25           2417      184147.00    825581.80
  248.12        2969.50           2420      172750.00    773105.10
  248.15        2969.75           2424      160030.00    714760.00
  248.18        2970.00           2427      150631.00    671798.00
  248.21        2970.25           2431      135519.00    602987.40
  248.24        2970.50           2434      124213.00    551718.90
  248.27        2970.75           2438      108455.00    480561.90
  248.30        2971.00           2441       97573.00    431625.00
  248.33        2971.25           2445       83406.00    368160.00
  248.36        2971.50           2449       69662.00    306852.10
  248.39        2971.75           2452       59326.00    260915.10
  248.42        2972.00           2456       44212.00    194001.20
  248.45        2972.25           2459       33136.00    145158.00
  248.48        2972.50           2463       19139.00     83665.30
  248.51        2972.75           2466       10377.00     45302.07
  248.54        2973.00           2470        3397.00     14812.60
  248.58        2973.25           2473        1735.00      7562.10
  248.61        2973.50           2477        1288.00      5612.67
  248.64        2973.75           2481        1197.00      5215.83
  248.67        2974.00           2484        1205.00      5250.72
  248.70        2974.25           2488        1179.00      5137.34
  248.73        2974.50           2491        1168.00      5089.37
  248.76        2974.75           2495        1136.00      4949.83
  248.79        2975.00           2498        1127.00      4910.59
  248.82        2975.25           2502        1112.00      4845.18
  248.85        2975.50           2505        1114.00      4853.90
  248.88        2975.75           2509        1100.00      4792.85
  248.91        2976.00           2512        1082.00      4714.36
  248.94        2976.25           2516        1053.00      4587.90
  248.97        2976.50           2520        1057.00      4605.34
  249.00        2976.75           2523        1037.00      4518.13
  249.03        2977.00           2527        1009.00      4396.04
  249.06        2977.25           2530        1007.00      4387.32
  249.10        2977.50           2534         974.00      4243.42
  249.13        2977.75           2537        1011.00      4404.76
  249.16        2978.00           2541         989.00      4308.83
  249.19        2978.25           2544        1006.00      4382.95
  249.22        2978.50           2548         971.00      4230.34
  249.25        2978.75           2552         974.00      4243.42
  249.28        2979.00           2555         942.00      4103.89
  249.31        2979.25           2559         922.00      4016.68
  249.34        2979.50           2562         943.00      4108.25
  249.37        2979.75           2566         965.00      4204.18
  249.40        2980.00           2569         930.00      4051.56
  249.43        2980.25           2573         931.00      4055.92
  249.46        2980.50           2577         922.00      4016.68
  249.49        2980.75           2580         922.00      4016.68
  249.52        2981.00           2584         908.00      3955.63
  249.55        2981.25           2587         891.00      3881.51
  249.58        2981.50           2591         925.00      4029.76
  249.62        2981.75           2594         889.00      3872.79
  249.65        2982.00           2598         885.00      3855.34
  249.68        2982.25           2601         898.00      3912.03
  249.71        2982.50           2605         877.00      3820.46
  249.74        2982.75           2609         876.00      3816.10
  249.77        2983.00           2612         885.00      3855.34
  249.80        2983.25           2616         851.00      3707.09
  249.83        2983.50           2619         891.00      3881.51
  249.86        2983.75           2623         909.00      3959.99
  249.89        2984.00           2626         846.00      3685.29
HS scan finished at 04:10:07
end
************************************************************
  HS Scan of 
************************************************************
Integration time is 0.2294 seconds per sample
dh010317Reading 51.44 .94 2.96pr1000
************************************************************
Dead Time -------------------------  3.4E-08 
Number of Cycles Used -------------  4 
Starting Wavelength (Angstroms) ---  2950 
Final Wavelength (Angstoms) -------  2984 
Wavelength Increment (Angstroms) --  .25 
Filter Wheel #1 Position ---------- (1) Ground quartz diffuser (ND=2.32)
Filter Wheel #2 Position ---------- (1) Neutral Density 0.494



************************************************************
HS scan start time = 18:37:32
Dark Count =  .8 


Time (GMT)  Wavelength (Ang)  Step Number  Raw Counts  Counts/Second

 1118.43        2950.00           2144         889.00      3872.35
 1118.62        2950.25           2147         890.00      3876.71
 1118.65        2950.50           2151         865.00      3767.70
 1118.68        2950.75           2155         904.00      3937.76
 1118.71        2951.00           2158         865.00      3767.70
 1118.74        2951.25           2162         898.00      3911.59
 1118.78        2951.50           2165         897.00      3907.23
 1118.81        2951.75           2169         894.00      3894.15
 1118.84        2952.00           2172         881.00      3837.47
 1118.87        2952.25           2176         887.00      3863.63
 1118.90        2952.50           2179         927.00      4038.04
 1118.93        2952.75           2183         863.00      3758.98
 1118.96        2953.00           2186         918.00      3998.80
 1118.99        2953.25           2190         890.00      3876.71
 1119.02        2953.50           2193         923.00      4020.60
 1119.05        2953.75           2197         916.00      3990.08
 1119.08        2954.00           2200         916.00      3990.08
 1119.11        2954.25           2204         891.00      3881.07
 1119.14        2954.50           2208         949.00      4133.97
 1119.17        2954.75           2211         939.00      4090.37
 1119.20        2955.00           2215         914.00      3981.36
 1119.23        2955.25           2218         931.00      4055.49
 1119.26        2955.50           2222         956.00      4164.50
 1119.30        2955.75           2225         938.00      4086.01
 1119.33        2956.00           2229         943.00      4107.81
 1119.36        2956.25           2232         940.00      4094.73
 1119.39        2956.50           2236         926.00      4033.68
 1119.42        2956.75           2239         947.00      4125.25
 1119.45        2957.00           2243         990.00      4312.75
 1119.48        2957.25           2246         976.00      4251.70
 1119.51        2957.50           2250         958.00      4173.22
 1119.54        2957.75           2254         997.00      4343.27
 1119.57        2958.00           2257        1010.00      4399.96
 1119.60        2958.25           2261        1011.00      4404.32
 1119.63        2958.50           2264         994.00      4330.19
 1119.66        2958.75           2268        1016.00      4426.12
 1119.69        2959.00           2271        1015.00      4421.76
 1119.72        2959.25           2275        1044.00      4548.22
 1119.75        2959.50           2278        1060.00      4617.99
 1119.78        2959.75           2282        1043.00      4543.86
 1119.82        2960.00           2285        1068.00      4652.87
 1119.85        2960.25           2289        1120.00      4879.62
 1119.88        2960.50           2293        1119.00      4875.26
 1119.91        2960.75           2296        1119.00      4875.26
 1119.94        2961.00           2300        1173.00      5110.74
 1119.97        2961.25           2303        1479.00      6445.18
 1120.00        2961.50           2307        4575.00     19953.38
 1120.03        2961.75           2310       10437.00     45563.99
 1120.06        2962.00           2314       20780.00     90860.91
 1120.09        2962.25           2317       29186.00    127778.00
 1120.12        2962.50           2321       40924.00    179484.30
 1120.15        2962.75           2324       49891.00    219107.50
 1120.18        2963.00           2328       61701.00    271457.30
 1120.21        2963.25           2331       71202.00    313708.40
 1120.24        2963.50           2335       83191.00    367198.50
 1120.27        2963.75           2339       95608.00    422805.20
 1120.30        2964.00           2342      105014.00    465069.40
 1120.34        2964.25           2346      116559.00    517112.60
 1120.37        2964.50           2349      124914.00    554892.10
 1120.40        2964.75           2353      137475.00    611875.00
 1120.43        2965.00           2356      146724.00    653976.30
 1120.46        2965.25           2360      159493.00    712301.60
 1120.49        2965.50           2363      169231.00    756940.00
 1120.52        2965.75           2367      179379.00    803604.40
 1120.55        2966.00           2370      186957.00    838549.10
 1120.58        2966.25           2374      197643.00    887969.50
 1120.61        2966.50           2378      206533.00    929212.70
 1120.64        2966.75           2381      210015.00    945398.80
 1120.67        2967.00           2385      210759.00    948859.60
 1120.70        2967.25           2388      210860.00    949329.50
 1120.73        2967.50           2392      210373.00    947064.00
 1120.76        2967.75           2395      210755.00    948841.00
 1120.79        2968.00           2399      206590.00    929477.50
 1120.82        2968.25           2402      201029.00    903664.20
 1120.86        2968.50           2406      190985.00    857157.90
 1120.89        2968.75           2409      181501.00    813381.10
 1120.92        2969.00           2413      169769.00    759410.10
 1120.95        2969.25           2417      156400.00    698152.10
 1120.98        2969.50           2420      147432.00    657204.10
 1121.01        2969.75           2424      136367.00    606839.60
 1121.04        2970.00           2427      128211.00    569827.40
 1121.07        2970.25           2431      116042.00    514778.10
 1121.10        2970.50           2434      105588.00    467652.50
 1121.13        2970.75           2438       91589.00    404783.90
 1121.16        2971.00           2441       82401.00    363667.80
 1121.19        2971.25           2445       69658.00    306833.90
 1121.22        2971.50           2449       57353.00    252162.30
 1121.25        2971.75           2452       48421.00    212604.50
 1121.28        2972.00           2456       36519.00    160058.70
 1121.31        2972.25           2459       27682.00    121166.00
 1121.34        2972.50           2463       15802.00     69042.45
 1121.38        2972.75           2466        8054.00     35147.47
 1121.41        2973.00           2470        2590.00     11291.17
 1121.44        2973.25           2473        1445.00      6296.90
 1121.47        2973.50           2477        1188.00      5176.15
 1121.50        2973.75           2481        1161.00      5058.41
 1121.53        2974.00           2484        1124.00      4897.07
 1121.56        2974.25           2488        1106.00      4818.57
 1121.59        2974.50           2491        1090.00      4748.81
 1121.62        2974.75           2495        1065.00      4639.79
 1121.65        2975.00           2498        1050.00      4574.38
 1121.68        2975.25           2502        1063.00      4631.07
 1121.71        2975.50           2505        1072.00      4670.31
 1121.74        2975.75           2509         970.00      4225.54
 1121.77        2976.00           2512        1023.00      4456.65
 1121.80        2976.25           2516         974.00      4242.98
 1121.83        2976.50           2520         956.00      4164.50
 1121.86        2976.75           2523         971.00      4229.90
 1121.90        2977.00           2527         982.00      4277.87
 1121.93        2977.25           2530         980.00      4269.15
 1121.96        2977.50           2534         941.00      4099.09
 1121.99        2977.75           2537         952.00      4147.05
 1122.02        2978.00           2541         944.00      4112.17
 1122.05        2978.25           2544         925.00      4029.32
 1122.08        2978.50           2548         959.00      4177.58
 1122.11        2978.75           2552         931.00      4055.49
 1122.14        2979.00           2555         913.00      3977.00
 1122.17        2979.25           2559         912.00      3972.64
 1122.20        2979.50           2562         897.00      3907.23
 1122.23        2979.75           2566         868.00      3780.78
 1122.26        2980.00           2569         889.00      3872.35
 1122.29        2980.25           2573         896.00      3902.87
 1122.32        2980.50           2577         900.00      3920.31
 1122.35        2980.75           2580         876.00      3815.67
 1122.38        2981.00           2584         888.00      3867.99
 1122.42        2981.25           2587         836.00      3641.25
 1122.45        2981.50           2591         874.00      3806.94
 1122.48        2981.75           2594         837.00      3645.61
 1122.51        2982.00           2598         864.00      3763.34
 1122.54        2982.25           2601         884.00      3850.55
 1122.57        2982.50           2605         854.00      3719.74
 1122.60        2982.75           2609         815.00      3549.69
 1122.63        2983.00           2612         854.00      3719.74
 1122.66        2983.25           2616         819.00      3567.13
 1122.69        2983.50           2619         853.00      3715.38
 1122.72        2983.75           2623         836.00      3641.25
 1122.75        2984.00           2626         843.00      3671.78
HS scan finished at 18:42:59
end
