************************************************************
  HS Scan of (1) Internal mercury lamp
************************************************************
Integration time is 0.2294 seconds per sample
dh090318Reading 51.44 .94 2.54pr1000
************************************************************
Dead Time -------------------------  3.4E-08 
Number of Cycles Used -------------  4 
Starting Wavelength (Angstroms) ---  2950 
Final Wavelength (Angstoms) -------  2984 
Wavelength Increment (Angstroms) --  .25 
Filter Wheel #1 Position ---------- (1) Ground quartz diffuser (ND=2.32)
Filter Wheel #2 Position ---------- (1) Neutral Density 0.494



************************************************************
HS scan start time = 03:43:36
Dark Count =  .3 


Time (GMT)  Wavelength (Ang)  Step Number  Raw Counts  Counts/Second

  224.50        2950.00           2144         114.00       495.65
  224.69        2950.25           2147          89.00       386.67
  224.72        2950.50           2151          88.00       382.31
  224.75        2950.75           2155          88.00       382.31
  224.78        2951.00           2158          91.00       395.38
  224.82        2951.25           2162          92.00       399.74
  224.85        2951.50           2165          91.00       395.38
  224.88        2951.75           2169          92.00       399.74
  224.91        2952.00           2172          84.00       364.87
  224.94        2952.25           2176          90.00       391.03
  224.97        2952.50           2179          93.00       404.10
  225.00        2952.75           2183          99.00       430.26
  225.03        2953.00           2186         101.00       438.98
  225.06        2953.25           2190          97.00       421.54
  225.09        2953.50           2193          89.00       386.67
  225.12        2953.75           2197          99.00       430.26
  225.15        2954.00           2200          95.00       412.82
  225.18        2954.25           2204         107.00       465.13
  225.21        2954.50           2208          97.00       421.54
  225.24        2954.75           2211         116.00       504.37
  225.27        2955.00           2215         117.00       508.73
  225.30        2955.25           2218          99.00       430.26
  225.34        2955.50           2222         115.00       500.01
  225.37        2955.75           2225          94.00       408.46
  225.40        2956.00           2229          94.00       408.46
  225.43        2956.25           2232          93.00       404.10
  225.46        2956.50           2236         100.00       434.62
  225.49        2956.75           2239         102.00       443.34
  225.52        2957.00           2243         101.00       438.98
  225.55        2957.25           2246         101.00       438.98
  225.58        2957.50           2250          98.00       425.90
  225.61        2957.75           2254         116.00       504.37
  225.64        2958.00           2257         111.00       482.57
  225.67        2958.25           2261         102.00       443.34
  225.70        2958.50           2264         101.00       438.98
  225.73        2958.75           2268         125.00       543.60
  225.76        2959.00           2271         150.00       652.59
  225.79        2959.25           2275         110.00       478.21
  225.82        2959.50           2278         110.00       478.21
  225.85        2959.75           2282         104.00       452.06
  225.89        2960.00           2285         130.00       565.40
  225.92        2960.25           2289         121.00       526.16
  225.95        2960.50           2293         142.00       617.71
  225.98        2960.75           2296         125.00       543.60
  226.01        2961.00           2300         157.00       683.10
  226.04        2961.25           2303         241.00      1049.30
  226.07        2961.50           2307         943.00      4109.99
  226.10        2961.75           2310        1829.00      7973.83
  226.13        2962.00           2314        3201.00     13959.11
  226.16        2962.25           2317        4411.00     19239.70
  226.19        2962.50           2321        6148.00     26823.50
  226.22        2962.75           2324        7301.00     31859.69
  226.26        2963.00           2328        8987.00     39227.09
  226.29        2963.25           2331        9942.00     43401.84
  226.32        2963.50           2335       11644.00     50845.02
  226.36        2963.75           2339       13175.00     57543.60
  226.39        2964.00           2342       14596.00     63763.64
  226.42        2964.25           2346       16125.00     70459.35
  226.45        2964.50           2349       17333.00     75751.53
  226.48        2964.75           2353       18680.00     81654.88
  226.51        2965.00           2356       19796.00     86547.68
  226.54        2965.25           2360       21486.00     93960.10
  226.57        2965.50           2363       22240.00     97268.40
  226.60        2965.75           2367       24361.00    106578.60
  226.63        2966.00           2370       25459.00    111400.70
  226.66        2966.25           2374       27164.00    118891.60
  226.69        2966.50           2378       27577.00    120706.70
  226.72        2966.75           2381       27722.00    121344.00
  226.75        2967.00           2385       28119.00    123089.00
  226.78        2967.25           2388       27912.00    122179.10
  226.81        2967.50           2392       27495.00    120346.30
  226.84        2967.75           2395       27842.00    121871.40
  226.88        2968.00           2399       26788.00    117239.30
  226.91        2968.25           2402       25622.00    112116.60
  226.94        2968.50           2406       24446.00    106951.90
  226.97        2968.75           2409       23228.00    101604.50
  227.00        2969.00           2413       21688.00     94846.34
  227.03        2969.25           2417       19950.00     87222.97
  227.06        2969.50           2420       19100.00     83496.06
  227.09        2969.75           2424       17219.00     75252.01
  227.12        2970.00           2427       16182.00     70709.02
  227.15        2970.25           2431       14537.00     63505.33
  227.18        2970.50           2434       13060.00     57040.33
  227.21        2970.75           2438       11426.00     49891.46
  227.24        2971.00           2441       10279.00     44875.31
  227.27        2971.25           2445        8520.00     37186.05
  227.30        2971.50           2449        6839.00     29841.51
  227.33        2971.75           2452        5621.00     24522.18
  227.36        2972.00           2456        3966.00     17297.44
  227.40        2972.25           2459        3010.00     13125.73
  227.43        2972.50           2463        1656.00      7219.30
  227.46        2972.75           2466         863.00      3761.16
  227.49        2973.00           2470         263.00      1145.21
  227.52        2973.25           2473         146.00       635.15
  227.55        2973.50           2477         138.00       600.27
  227.58        2973.75           2481         156.00       678.74
  227.61        2974.00           2484         132.00       574.12
  227.64        2974.25           2488         120.00       521.81
  227.67        2974.50           2491         122.00       530.52
  227.70        2974.75           2495         156.00       678.74
  227.73        2975.00           2498         110.00       478.21
  227.76        2975.25           2502         102.00       443.34
  227.79        2975.50           2505         114.00       495.65
  227.82        2975.75           2509         111.00       482.57
  227.85        2976.00           2512         107.00       465.13
  227.88        2976.25           2516         121.00       526.16
  227.92        2976.50           2520         100.00       434.62
  227.95        2976.75           2523         120.00       521.81
  227.98        2977.00           2527         116.00       504.37
  228.01        2977.25           2530          97.00       421.54
  228.04        2977.50           2534         101.00       438.98
  228.07        2977.75           2537          98.00       425.90
  228.10        2978.00           2541          97.00       421.54
  228.13        2978.25           2544          95.00       412.82
  228.16        2978.50           2548          94.00       408.46
  228.19        2978.75           2552          96.00       417.18
  228.22        2979.00           2555          87.00       377.95
  228.25        2979.25           2559          93.00       404.10
  228.28        2979.50           2562          86.00       373.59
  228.31        2979.75           2566          91.00       395.38
  228.34        2980.00           2569          91.00       395.38
  228.37        2980.25           2573         105.00       456.42
  228.40        2980.50           2577          91.00       395.38
  228.44        2980.75           2580          90.00       391.03
  228.47        2981.00           2584          87.00       377.95
  228.50        2981.25           2587          77.00       334.35
  228.53        2981.50           2591          86.00       373.59
  228.56        2981.75           2594         114.00       495.65
  228.59        2982.00           2598          80.00       347.43
  228.62        2982.25           2601          84.00       364.87
  228.65        2982.50           2605          87.00       377.95
  228.68        2982.75           2609          86.00       373.59
  228.71        2983.00           2612          87.00       377.95
  228.74        2983.25           2616          94.00       408.46
  228.77        2983.50           2619          81.00       351.79
  228.80        2983.75           2623          88.00       382.31
  228.83        2984.00           2626          82.00       356.15
HS scan finished at 03:49:03
end
************************************************************
  HS Scan of (1) Internal mercury lamp
************************************************************
Integration time is 0.2294 seconds per sample
dh090318Reading 51.44 .94 2.9pr1000
************************************************************
Dead Time -------------------------  3.4E-08 
Number of Cycles Used -------------  4 
Starting Wavelength (Angstroms) ---  2950 
Final Wavelength (Angstoms) -------  2984 
Wavelength Increment (Angstroms) --  .25 
Filter Wheel #1 Position ---------- (1) Ground quartz diffuser (ND=2.32)
Filter Wheel #2 Position ---------- (1) Neutral Density 0.494



************************************************************
HS scan start time = 19:07:25
Dark Count =  .6 


Time (GMT)  Wavelength (Ang)  Step Number  Raw Counts  Counts/Second

 1148.32        2950.00           2144          68.00       293.81
 1148.51        2950.25           2147          68.00       293.81
 1148.54        2950.50           2151          69.00       298.17
 1148.57        2950.75           2155          71.00       306.89
 1148.60        2951.00           2158          62.00       267.66
 1148.63        2951.25           2162          63.00       272.02
 1148.66        2951.50           2165          70.00       302.53
 1148.69        2951.75           2169          70.00       302.53
 1148.72        2952.00           2172          65.00       280.74
 1148.75        2952.25           2176          64.00       276.38
 1148.78        2952.50           2179          68.00       293.81
 1148.82        2952.75           2183          67.00       289.45
 1148.85        2953.00           2186          71.00       306.89
 1148.88        2953.25           2190          76.00       328.69
 1148.91        2953.50           2193          72.00       311.25
 1148.94        2953.75           2197          70.00       302.53
 1148.97        2954.00           2200          69.00       298.17
 1149.01        2954.25           2204          72.00       311.25
 1149.04        2954.50           2208          77.00       333.05
 1149.07        2954.75           2211          64.00       276.38
 1149.10        2955.00           2215          75.00       324.33
 1149.13        2955.25           2218          75.00       324.33
 1149.16        2955.50           2222          67.00       289.45
 1149.19        2955.75           2225          72.00       311.25
 1149.22        2956.00           2229          78.00       337.41
 1149.25        2956.25           2232          67.00       289.45
 1149.28        2956.50           2236          71.00       306.89
 1149.31        2956.75           2239          80.00       346.12
 1149.34        2957.00           2243          77.00       333.05
 1149.37        2957.25           2246          83.00       359.20
 1149.40        2957.50           2250          81.00       350.48
 1149.43        2957.75           2254          80.00       346.12
 1149.46        2958.00           2257          79.00       341.77
 1149.49        2958.25           2261          80.00       346.12
 1149.53        2958.50           2264          76.00       328.69
 1149.56        2958.75           2268          80.00       346.12
 1149.59        2959.00           2271          81.00       350.48
 1149.62        2959.25           2275          87.00       376.64
 1149.65        2959.50           2278          83.00       359.20
 1149.68        2959.75           2282          92.00       398.44
 1149.71        2960.00           2285          85.00       367.92
 1149.74        2960.25           2289          90.00       389.72
 1149.77        2960.50           2293          89.00       385.36
 1149.80        2960.75           2296         121.00       524.86
 1149.83        2961.00           2300         119.00       516.14
 1149.86        2961.25           2303         229.00       995.67
 1149.89        2961.50           2307         881.00      3838.34
 1149.92        2961.75           2310        1614.00      7034.81
 1149.95        2962.00           2314        2698.00     11763.20
 1149.98        2962.25           2317        3713.00     16192.00
 1150.01        2962.50           2321        4896.00     21355.52
 1150.05        2962.75           2324        5906.00     25765.37
 1150.08        2963.00           2328        7216.00     31487.05
 1150.11        2963.25           2331        8164.00     35629.01
 1150.14        2963.50           2335        9209.00     40196.14
 1150.17        2963.75           2339       10516.00     45910.32
 1150.20        2964.00           2342       11534.00     50362.54
 1150.23        2964.25           2346       13130.00     57345.36
 1150.26        2964.50           2349       14003.00     61166.31
 1150.29        2964.75           2353       15310.00     66888.66
 1150.32        2965.00           2356       16203.00     70799.69
 1150.35        2965.25           2360       17518.00     76560.86
 1150.38        2965.50           2363       18573.00     81184.56
 1150.41        2965.75           2367       19609.00     85726.40
 1150.44        2966.00           2370       20483.00     89559.12
 1150.47        2966.25           2374       21840.00     95511.93
 1150.50        2966.50           2378       22251.00     97315.36
 1150.53        2966.75           2381       22403.00     97982.37
 1150.57        2967.00           2385       22523.00     98508.99
 1150.60        2967.25           2388       22296.00     97512.82
 1150.63        2967.50           2392       22233.00     97236.38
 1150.66        2967.75           2395       22317.00     97604.98
 1150.69        2968.00           2399       21713.00     94954.72
 1150.72        2968.25           2402       20753.00     90743.36
 1150.75        2968.50           2406       19898.00     86993.63
 1150.78        2968.75           2409       18971.00     82929.24
 1150.81        2969.00           2413       17616.00     76990.28
 1150.84        2969.25           2417       16547.00     72306.58
 1150.87        2969.50           2420       15239.00     66577.74
 1150.90        2969.75           2424       13797.00     60264.60
 1150.93        2970.00           2427       12932.00     56478.89
 1150.96        2970.25           2431       11830.00     51657.35
 1150.99        2970.50           2434       10965.00     47873.85
 1151.02        2970.75           2438        9680.00     42255.08
 1151.05        2971.00           2441        8627.00     37652.36
 1151.08        2971.25           2445        7258.00     31670.53
 1151.12        2971.50           2449        5868.00     25599.43
 1151.15        2971.75           2452        4807.00     20966.99
 1151.18        2972.00           2456        3425.00     14935.22
 1151.21        2972.25           2459        2500.00     10899.42
 1151.24        2972.50           2463        1330.00      5796.26
 1151.27        2972.75           2466         685.00      2983.74
 1151.30        2973.00           2470         207.00       899.77
 1151.33        2973.25           2473         157.00       681.79
 1151.36        2973.50           2477         121.00       524.86
 1151.39        2973.75           2481         116.00       503.06
 1151.43        2974.00           2484          91.00       394.08
 1151.46        2974.25           2488         117.00       507.42
 1151.49        2974.50           2491          86.00       372.28
 1151.52        2974.75           2495          97.00       420.23
 1151.55        2975.00           2498          89.00       385.36
 1151.58        2975.25           2502          82.00       354.84
 1151.61        2975.50           2505          86.00       372.28
 1151.64        2975.75           2509          81.00       350.48
 1151.67        2976.00           2512          79.00       341.77
 1151.70        2976.25           2516          87.00       376.64
 1151.73        2976.50           2520          82.00       354.84
 1151.76        2976.75           2523          74.00       319.97
 1151.80        2977.00           2527          85.00       367.92
 1151.83        2977.25           2530          79.00       341.77
 1151.86        2977.50           2534          84.00       363.56
 1151.89        2977.75           2537          80.00       346.12
 1151.92        2978.00           2541          87.00       376.64
 1151.95        2978.25           2544          78.00       337.41
 1151.98        2978.50           2548          73.00       315.61
 1152.01        2978.75           2552          65.00       280.74
 1152.04        2979.00           2555          72.00       311.25
 1152.07        2979.25           2559          70.00       302.53
 1152.10        2979.50           2562          72.00       311.25
 1152.13        2979.75           2566          71.00       306.89
 1152.16        2980.00           2569          73.00       315.61
 1152.19        2980.25           2573          70.00       302.53
 1152.22        2980.50           2577          63.00       272.02
 1152.25        2980.75           2580          68.00       293.81
 1152.28        2981.00           2584          68.00       293.81
 1152.32        2981.25           2587          67.00       289.45
 1152.35        2981.50           2591          60.00       258.94
 1152.38        2981.75           2594          65.00       280.74
 1152.41        2982.00           2598          69.00       298.17
 1152.44        2982.25           2601          70.00       302.53
 1152.47        2982.50           2605          71.00       306.89
 1152.50        2982.75           2609          70.00       302.53
 1152.53        2983.00           2612          60.00       258.94
 1152.56        2983.25           2616          61.00       263.30
 1152.59        2983.50           2619          73.00       315.61
 1152.62        2983.75           2623          66.00       285.09
 1152.65        2984.00           2626          67.00       289.45
HS scan finished at 19:12:53
end
