************************************************************
  HS Scan of 
************************************************************
Integration time is 0.2294 seconds per sample
dh060317Reading 51.44 .94 2.62pr1000
************************************************************
Dead Time -------------------------  3.4E-08 
Number of Cycles Used -------------  4 
Starting Wavelength (Angstroms) ---  2950 
Final Wavelength (Angstoms) -------  2984 
Wavelength Increment (Angstroms) --  .25 
Filter Wheel #1 Position ---------- (1) Ground quartz diffuser (ND=2.32)
Filter Wheel #2 Position ---------- (1) Neutral Density 0.494



************************************************************
HS scan start time = 03:51:22
Dark Count =  .4 


Time (GMT)  Wavelength (Ang)  Step Number  Raw Counts  Counts/Second

  232.27        2950.00           2144         979.00      4266.53
  232.46        2950.25           2147        1002.00      4366.82
  232.49        2950.50           2151         962.00      4192.40
  232.52        2950.75           2155         998.00      4349.38
  232.55        2951.00           2158        1022.00      4454.03
  232.58        2951.25           2162        1002.00      4366.82
  232.61        2951.50           2165         971.00      4231.65
  232.64        2951.75           2169         992.00      4323.22
  232.67        2952.00           2172         980.00      4270.89
  232.70        2952.25           2176         997.00      4345.02
  232.73        2952.50           2179         996.00      4340.66
  232.76        2952.75           2183        1003.00      4371.18
  232.79        2953.00           2186        1046.00      4558.68
  232.82        2953.25           2190        1029.00      4484.55
  232.86        2953.50           2193        1025.00      4467.11
  232.89        2953.75           2197        1029.00      4484.55
  232.92        2954.00           2200        1012.00      4410.43
  232.95        2954.25           2204        1019.00      4440.95
  232.98        2954.50           2208        1035.00      4510.72
  233.01        2954.75           2211        1078.00      4698.22
  233.04        2955.00           2215        1043.00      4545.60
  233.07        2955.25           2218        1056.00      4602.29
  233.10        2955.50           2222        1061.00      4624.09
  233.13        2955.75           2225        1029.00      4484.55
  233.16        2956.00           2229        1091.00      4754.91
  233.19        2956.25           2232        1045.00      4554.32
  233.22        2956.50           2236        1068.00      4654.62
  233.25        2956.75           2239        1078.00      4698.22
  233.28        2957.00           2243        1099.00      4789.79
  233.31        2957.25           2246        1119.00      4877.01
  233.34        2957.50           2250        1083.00      4720.03
  233.38        2957.75           2254        1109.00      4833.40
  233.41        2958.00           2257        1110.00      4837.76
  233.44        2958.25           2261        1150.00      5012.19
  233.47        2958.50           2264        1138.00      4959.86
  233.50        2958.75           2268        1153.00      5025.27
  233.53        2959.00           2271        1200.00      5230.22
  233.56        2959.25           2275        1204.00      5247.67
  233.59        2959.50           2278        1164.00      5073.24
  233.62        2959.75           2282        1188.00      5177.90
  233.65        2960.00           2285        1206.00      5256.39
  233.68        2960.25           2289        1218.00      5308.72
  233.71        2960.50           2293        1291.00      5627.06
  233.74        2960.75           2296        1251.00      5452.62
  233.77        2961.00           2300        1343.00      5853.82
  233.80        2961.25           2303        1571.00      6848.15
  233.83        2961.50           2307        4678.00     20404.74
  233.86        2961.75           2310       11017.00     48102.15
  233.90        2962.00           2314       21607.00     94490.52
  233.93        2962.25           2317       30949.00    135534.20
  233.96        2962.50           2321       44686.00    196096.50
  233.99        2962.75           2324       55426.00    243620.80
  234.02        2963.00           2328       70520.00    310673.30
  234.05        2963.25           2331       80386.00    354667.90
  234.08        2963.50           2335       94259.00    416755.60
  234.11        2963.75           2339      109111.00    483518.60
  234.14        2964.00           2342      120687.00    535768.10
  234.17        2964.25           2346      136659.00    608168.30
  234.20        2964.50           2349      147694.00    658400.60
  234.23        2964.75           2353      160808.00    718323.20
  234.26        2965.00           2356      170763.00    763976.80
  234.29        2965.25           2360      183874.00    824324.00
  234.32        2965.50           2363      195539.00    878227.40
  234.35        2965.75           2367      209496.00    942986.90
  234.39        2966.00           2370      217931.00    982265.60
  234.42        2966.25           2374      231022.00   1043438.00
  234.45        2966.50           2378      241567.00   1092902.00
  234.48        2966.75           2381      244747.00   1107852.00
  234.51        2967.00           2385      246149.00   1114448.00
  234.54        2967.25           2388      246052.00   1113992.00
  234.57        2967.50           2392      246500.00   1116100.00
  234.60        2967.75           2395      245909.00   1113319.00
  234.63        2968.00           2399      242742.00   1098424.00
  234.66        2968.25           2402      235051.00   1062317.00
  234.69        2968.50           2406      223596.00   1008706.00
  234.72        2968.75           2409      214373.00    965684.20
  234.75        2969.00           2413      200542.00    901407.60
  234.78        2969.25           2417      185093.00    829947.60
  234.81        2969.50           2420      174557.00    781414.10
  234.84        2969.75           2424      160309.00    716038.60
  234.87        2970.00           2427      149709.00    667591.80
  234.90        2970.25           2431      135272.00    601866.80
  234.94        2970.50           2434      124279.00    552019.10
  234.97        2970.75           2438      109398.00    484811.70
  235.00        2971.00           2441       98585.00    436170.40
  235.03        2971.25           2445       83477.00    368478.60
  235.06        2971.50           2449       68683.00    302496.30
  235.09        2971.75           2452       58315.00    256430.90
  235.12        2972.00           2456       44884.00    196971.20
  235.15        2972.25           2459       34553.00    151399.00
  235.18        2972.50           2463       20777.00     90849.50
  235.21        2972.75           2466       10913.00     47647.32
  235.24        2973.00           2470        3396.00     14809.55
  235.27        2973.25           2473        1777.00      7746.59
  235.30        2973.50           2477        1374.00      5989.01
  235.33        2973.75           2481        1317.00      5740.44
  235.36        2974.00           2484        1313.00      5723.00
  235.39        2974.25           2488        1245.00      5426.46
  235.42        2974.50           2491        1276.00      5561.64
  235.46        2974.75           2495        1210.00      5273.83
  235.49        2975.00           2498        1182.00      5151.73
  235.52        2975.25           2502        1155.00      5033.99
  235.55        2975.50           2505        1171.00      5103.76
  235.58        2975.75           2509        1139.00      4964.22
  235.61        2976.00           2512        1118.00      4872.65
  235.64        2976.25           2516        1139.00      4964.22
  235.67        2976.50           2520        1121.00      4885.73
  235.70        2976.75           2523        1095.00      4772.35
  235.73        2977.00           2527        1122.00      4890.09
  235.76        2977.25           2530        1075.00      4685.14
  235.79        2977.50           2534        1087.00      4737.47
  235.82        2977.75           2537        1074.00      4680.78
  235.85        2978.00           2541        1043.00      4545.60
  235.88        2978.25           2544        1031.00      4493.28
  235.91        2978.50           2548        1051.00      4580.49
  235.94        2978.75           2552        1032.00      4497.64
  235.98        2979.00           2555        1032.00      4497.64
  236.01        2979.25           2559        1006.00      4384.26
  236.04        2979.50           2562        1040.00      4532.52
  236.07        2979.75           2566        1020.00      4445.31
  236.10        2980.00           2569        1008.00      4392.98
  236.13        2980.25           2573        1002.00      4366.82
  236.16        2980.50           2577         975.00      4249.09
  236.19        2980.75           2580         978.00      4262.17
  236.22        2981.00           2584         963.00      4196.76
  236.25        2981.25           2587         981.00      4275.25
  236.28        2981.50           2591         957.00      4170.60
  236.31        2981.75           2594         961.00      4188.04
  236.34        2982.00           2598         945.00      4118.28
  236.37        2982.25           2601         934.00      4070.31
  236.40        2982.50           2605         942.00      4105.19
  236.43        2982.75           2609         944.00      4113.91
  236.46        2983.00           2612         936.00      4079.03
  236.50        2983.25           2616         979.00      4266.53
  236.53        2983.50           2619         937.00      4083.39
  236.56        2983.75           2623         937.00      4083.39
  236.59        2984.00           2626         948.00      4131.36
HS scan finished at 03:56:49
end
************************************************************
  HS Scan of 
************************************************************
Integration time is 0.2294 seconds per sample
dh060317Reading 51.44 .94 3pr1000
************************************************************
Dead Time -------------------------  3.4E-08 
Number of Cycles Used -------------  4 
Starting Wavelength (Angstroms) ---  2950 
Final Wavelength (Angstoms) -------  2984 
Wavelength Increment (Angstroms) --  .25 
Filter Wheel #1 Position ---------- (1) Ground quartz diffuser (ND=2.32)
Filter Wheel #2 Position ---------- (1) Neutral Density 0.494



************************************************************
HS scan start time = 18:37:23
Dark Count =  1 


Time (GMT)  Wavelength (Ang)  Step Number  Raw Counts  Counts/Second

 1118.29        2950.00           2144         813.00      3540.10
 1118.48        2950.25           2147         822.00      3579.34
 1118.51        2950.50           2151         818.00      3561.90
 1118.54        2950.75           2155         848.00      3692.70
 1118.57        2951.00           2158         823.00      3583.70
 1118.60        2951.25           2162         835.00      3636.02
 1118.63        2951.50           2165         836.00      3640.38
 1118.67        2951.75           2169         848.00      3692.70
 1118.70        2952.00           2172         850.00      3701.43
 1118.73        2952.25           2176         844.00      3675.26
 1118.76        2952.50           2179         817.00      3557.54
 1118.79        2952.75           2183         841.00      3662.18
 1118.82        2953.00           2186         864.00      3762.47
 1118.85        2953.25           2190         861.00      3749.39
 1118.88        2953.50           2193         840.00      3657.82
 1118.91        2953.75           2197         831.00      3618.58
 1118.94        2954.00           2200         856.00      3727.59
 1118.97        2954.25           2204         854.00      3718.87
 1119.00        2954.50           2208         886.00      3858.40
 1119.03        2954.75           2211         836.00      3640.38
 1119.06        2955.00           2215         880.00      3832.23
 1119.09        2955.25           2218         869.00      3784.27
 1119.12        2955.50           2222         881.00      3836.59
 1119.15        2955.75           2225         915.00      3984.85
 1119.19        2956.00           2229         870.00      3788.63
 1119.22        2956.25           2232         911.00      3967.41
 1119.25        2956.50           2236         921.00      4011.01
 1119.28        2956.75           2239         926.00      4032.81
 1119.31        2957.00           2243         921.00      4011.01
 1119.34        2957.25           2246         919.00      4002.29
 1119.37        2957.50           2250         915.00      3984.85
 1119.40        2957.75           2254         930.00      4050.25
 1119.43        2958.00           2257        1000.00      4355.48
 1119.46        2958.25           2261         957.00      4167.98
 1119.49        2958.50           2264         950.00      4137.46
 1119.52        2958.75           2268         936.00      4076.42
 1119.55        2959.00           2271         998.00      4346.76
 1119.58        2959.25           2275         977.00      4255.19
 1119.61        2959.50           2278        1015.00      4420.89
 1119.64        2959.75           2282        1017.00      4429.61
 1119.67        2960.00           2285        1003.00      4368.57
 1119.70        2960.25           2289        1072.00      4669.44
 1119.74        2960.50           2293        1058.00      4608.39
 1119.77        2960.75           2296        1057.00      4604.03
 1119.80        2961.00           2300        1165.00      5074.98
 1119.83        2961.25           2303        1465.00      6383.25
 1119.86        2961.50           2307        4430.00     19319.57
 1119.89        2961.75           2310        9930.00     43346.32
 1119.92        2962.00           2314       20038.00     87605.81
 1119.95        2962.25           2317       28343.00    124070.70
 1119.98        2962.50           2321       38705.00    169694.70
 1120.01        2962.75           2324       46939.00    206050.50
 1120.04        2963.00           2328       58513.00    257306.60
 1120.07        2963.25           2331       68531.00    301817.20
 1120.10        2963.50           2335       81167.00    358153.50
 1120.13        2963.75           2339       92781.00    410125.60
 1120.16        2964.00           2342      100841.00    446302.80
 1120.19        2964.25           2346      112922.00    500696.60
 1120.22        2964.50           2349      122096.00    542137.80
 1120.26        2964.75           2353      134665.00    599107.20
 1120.29        2965.00           2356      142987.00    636950.00
 1120.32        2965.25           2360      153369.00    684298.80
 1120.35        2965.50           2363      161260.00    720390.30
 1120.38        2965.75           2367      173268.00    775484.80
 1120.41        2966.00           2370      181229.00    812126.60
 1120.44        2966.25           2374      191625.00    860115.90
 1120.47        2966.50           2378      200096.00    899337.00
 1120.50        2966.75           2381      203022.00    912909.20
 1120.53        2967.00           2385      203851.00    916756.80
 1120.56        2967.25           2388      203883.00    916905.40
 1120.59        2967.50           2392      204136.00    918079.90
 1120.62        2967.75           2395      203481.00    915039.40
 1120.65        2968.00           2399      202763.00    911707.30
 1120.68        2968.25           2402      197251.00    886152.70
 1120.71        2968.50           2406      186902.00    838294.30
 1120.74        2968.75           2409      178170.00    798036.10
 1120.78        2969.00           2413      166198.00    743021.30
 1120.81        2969.25           2417      155520.00    694128.00
 1120.84        2969.50           2420      147185.00    656077.00
 1120.87        2969.75           2424      135207.00    601568.90
 1120.90        2970.00           2427      125145.00    555937.00
 1120.93        2970.25           2431      111363.00    493665.90
 1120.96        2970.50           2434      101804.00    450631.20
 1120.99        2970.75           2438       89578.00    395773.90
 1121.02        2971.00           2441       80275.00    354169.50
 1121.05        2971.25           2445       68002.00    299463.40
 1121.08        2971.50           2449       57246.00    251686.90
 1121.11        2971.75           2452       48288.00    212015.40
 1121.14        2972.00           2456       35893.00    157299.40
 1121.17        2972.25           2459       26930.00    117860.20
 1121.20        2972.50           2463       15819.00     69116.03
 1121.23        2972.75           2466        8564.00     37375.28
 1121.26        2973.00           2470        3049.00     13292.84
 1121.30        2973.25           2473        1559.00      6793.20
 1121.33        2973.50           2477        1146.00      4992.13
 1121.36        2973.75           2481        1077.00      4691.25
 1121.39        2974.00           2484        1076.00      4686.89
 1121.42        2974.25           2488        1053.00      4586.59
 1121.45        2974.50           2491        1038.00      4521.18
 1121.48        2974.75           2495        1017.00      4429.61
 1121.51        2975.00           2498        1022.00      4451.42
 1121.54        2975.25           2502         988.00      4303.16
 1121.57        2975.50           2505         963.00      4194.15
 1121.60        2975.75           2509         975.00      4246.47
 1121.63        2976.00           2512         949.00      4133.10
 1121.66        2976.25           2516         940.00      4093.86
 1121.69        2976.50           2520         927.00      4037.17
 1121.72        2976.75           2523         920.00      4006.65
 1121.75        2977.00           2527         930.00      4050.25
 1121.78        2977.25           2530         888.00      3867.12
 1121.82        2977.50           2534         922.00      4015.37
 1121.85        2977.75           2537         886.00      3858.40
 1121.88        2978.00           2541         869.00      3784.27
 1121.91        2978.25           2544         908.00      3954.32
 1121.94        2978.50           2548         858.00      3736.31
 1121.97        2978.75           2552         862.00      3753.75
 1122.00        2979.00           2555         873.00      3801.71
 1122.03        2979.25           2559         856.00      3727.59
 1122.06        2979.50           2562         841.00      3662.18
 1122.09        2979.75           2566         815.00      3548.82
 1122.12        2980.00           2569         860.00      3745.03
 1122.15        2980.25           2573         862.00      3753.75
 1122.18        2980.50           2577         830.00      3614.22
 1122.21        2980.75           2580         830.00      3614.22
 1122.24        2981.00           2584         826.00      3596.78
 1122.27        2981.25           2587         823.00      3583.70
 1122.30        2981.50           2591         802.00      3492.13
 1122.34        2981.75           2594         814.00      3544.46
 1122.37        2982.00           2598         807.00      3513.93
 1122.40        2982.25           2601         788.00      3431.09
 1122.43        2982.50           2605         789.00      3435.45
 1122.46        2982.75           2609         806.00      3509.57
 1122.49        2983.00           2612         795.00      3461.61
 1122.52        2983.25           2616         818.00      3561.90
 1122.55        2983.50           2619         764.00      3326.44
 1122.58        2983.75           2623         791.00      3444.17
 1122.61        2984.00           2626         802.00      3492.13
HS scan finished at 18:42:50
end
