************************************************************
  HS Scan of (1) Internal mercury lamp
************************************************************
Integration time is 0.2294 seconds per sample
dh020319Reading 51.44 .94 2.9pr1000
************************************************************
Dead Time -------------------------  3.4E-08 
Number of Cycles Used -------------  4 
Starting Wavelength (Angstroms) ---  2950 
Final Wavelength (Angstoms) -------  2984 
Wavelength Increment (Angstroms) --  .25 
Filter Wheel #1 Position ---------- (1) Ground quartz diffuser (ND=2.32)
Filter Wheel #2 Position ---------- (1) Neutral Density 0.494



************************************************************
HS scan start time = 04:03:15
Dark Count =  .8 


Time (GMT)  Wavelength (Ang)  Step Number  Raw Counts  Counts/Second

  244.15        2950.00           2144        1680.00      7321.79
  244.34        2950.25           2147        1636.00      7129.89
  244.37        2950.50           2151        1707.00      7439.55
  244.40        2950.75           2155        1654.00      7208.39
  244.43        2951.00           2158        1631.00      7108.08
  244.47        2951.25           2162        1627.00      7090.64
  244.50        2951.50           2165        1674.00      7295.62
  244.53        2951.75           2169        1681.00      7326.15
  244.56        2952.00           2172        1688.00      7356.68
  244.59        2952.25           2176        1683.00      7334.87
  244.62        2952.50           2179        1686.00      7347.96
  244.65        2952.75           2183        1708.00      7443.91
  244.68        2953.00           2186        1679.00      7317.43
  244.71        2953.25           2190        1687.00      7352.32
  244.74        2953.50           2193        1698.00      7400.29
  244.77        2953.75           2197        1710.00      7452.63
  244.80        2954.00           2200        1655.00      7212.75
  244.83        2954.25           2204        1751.00      7631.45
  244.86        2954.50           2208        1735.00      7561.67
  244.89        2954.75           2211        1725.00      7518.05
  244.92        2955.00           2215        1741.00      7587.83
  244.95        2955.25           2218        1769.00      7709.95
  244.99        2955.50           2222        1771.00      7718.68
  245.02        2955.75           2225        1788.00      7792.82
  245.05        2956.00           2229        1759.00      7666.34
  245.08        2956.25           2232        1835.00      7997.82
  245.11        2956.50           2236        1814.00      7906.22
  245.14        2956.75           2239        1816.00      7914.95
  245.17        2957.00           2243        1811.00      7893.14
  245.20        2957.25           2246        1853.00      8076.32
  245.23        2957.50           2250        1897.00      8268.24
  245.26        2957.75           2254        1862.00      8115.58
  245.29        2958.00           2257        1890.00      8237.70
  245.32        2958.25           2261        1928.00      8403.45
  245.35        2958.50           2264        1932.00      8420.89
  245.38        2958.75           2268        1916.00      8351.11
  245.41        2959.00           2271        1969.00      8582.28
  245.44        2959.25           2275        2010.00      8761.11
  245.47        2959.50           2278        1986.00      8656.43
  245.51        2959.75           2282        2017.00      8791.64
  245.54        2960.00           2285        2042.00      8900.69
  245.57        2960.25           2289        2103.00      9166.76
  245.60        2960.50           2293        2166.00      9441.57
  245.63        2960.75           2296        2161.00      9419.76
  245.66        2961.00           2300        2331.00     10161.31
  245.69        2961.25           2303        2903.00     12656.71
  245.72        2961.50           2307        8198.00     35776.71
  245.75        2961.75           2310       18009.00     78711.68
  245.78        2962.00           2314       36742.00    161041.50
  245.81        2962.25           2317       53317.00    234274.50
  245.84        2962.50           2321       77775.00    343010.30
  245.87        2962.75           2324       97591.00    431705.30
  245.90        2963.00           2328      125567.00    557848.90
  245.94        2963.25           2331      146003.00    650690.00
  245.97        2963.50           2335      170914.00    764668.70
  246.00        2963.75           2339      196190.00    881239.80
  246.03        2964.00           2342      215940.00    972982.80
  246.06        2964.25           2346      243592.00   1102419.00
  246.09        2964.50           2349      262868.00   1193339.00
  246.12        2964.75           2353      287121.00   1308557.00
  246.15        2965.00           2356      305442.00   1396210.00
  246.18        2965.25           2360      328793.00   1508710.00
  246.21        2965.50           2363      346471.00   1594470.00
  246.25        2965.75           2367      367932.00   1699279.00
  246.28        2966.00           2370      385318.00   1784755.00
  246.31        2966.25           2374      408570.00   1899879.00
  246.34        2966.50           2378      425524.00   1984411.00
  246.37        2966.75           2381      431378.00   2013717.00
  246.40        2967.00           2385      433543.00   2024570.00
  246.43        2967.25           2388      433638.00   2025046.00
  246.46        2967.50           2392      433698.00   2025347.00
  246.49        2967.75           2395      433198.00   2022840.00
  246.52        2968.00           2399      428972.00   2001665.00
  246.55        2968.25           2402      419810.00   1955865.00
  246.58        2968.50           2406      400648.00   1860551.00
  246.61        2968.75           2409      383975.00   1778134.00
  246.64        2969.00           2413      358625.00   1653732.00
  246.67        2969.25           2417      335164.00   1539558.00
  246.70        2969.50           2420      317319.00   1453320.00
  246.73        2969.75           2424      294918.00   1345794.00
  246.77        2970.00           2427      276797.00   1259398.00
  246.80        2970.25           2431      248965.00   1127704.00
  246.83        2970.50           2434      228567.00   1031944.00
  246.86        2970.75           2438      203522.00    915230.70
  246.89        2971.00           2441      184609.00    827712.60
  246.92        2971.25           2445      155519.00    694124.40
  246.95        2971.50           2449      124534.00    553171.60
  246.98        2971.75           2452      104053.00    460745.70
  247.01        2972.00           2456       78346.00    345558.50
  247.04        2972.25           2459       60193.00    264762.40
  247.07        2972.50           2463       36305.00    159115.70
  247.10        2972.75           2466       19842.00     86747.19
  247.13        2973.00           2470        6635.00     28948.27
  247.16        2973.25           2473        3425.00     14934.35
  247.19        2973.50           2477        2438.00     10628.08
  247.22        2973.75           2481        2190.00      9546.25
  247.25        2974.00           2484        2241.00      9768.72
  247.29        2974.25           2488        2127.00      9271.45
  247.32        2974.50           2491        2050.00      8935.58
  247.35        2974.75           2495        2035.00      8870.15
  247.38        2975.00           2498        2041.00      8896.33
  247.41        2975.25           2502        2017.00      8791.64
  247.44        2975.50           2505        1986.00      8656.43
  247.47        2975.75           2509        1931.00      8416.53
  247.50        2976.00           2512        1919.00      8364.19
  247.53        2976.25           2516        1889.00      8233.34
  247.56        2976.50           2520        1892.00      8246.43
  247.59        2976.75           2523        1875.00      8172.28
  247.62        2977.00           2527        1872.00      8159.19
  247.65        2977.25           2530        1812.00      7897.50
  247.68        2977.50           2534        1803.00      7858.25
  247.71        2977.75           2537        1789.00      7797.18
  247.74        2978.00           2541        1804.00      7862.61
  247.77        2978.25           2544        1737.00      7570.39
  247.81        2978.50           2548        1756.00      7653.26
  247.84        2978.75           2552        1737.00      7570.39
  247.87        2979.00           2555        1709.00      7448.27
  247.90        2979.25           2559        1690.00      7365.40
  247.93        2979.50           2562        1662.00      7243.28
  247.96        2979.75           2566        1687.00      7352.32
  247.99        2980.00           2569        1656.00      7217.12
  248.02        2980.25           2573        1645.00      7169.14
  248.05        2980.50           2577        1670.00      7278.17
  248.08        2980.75           2580        1638.00      7138.61
  248.11        2981.00           2584        1604.00      6990.33
  248.14        2981.25           2587        1645.00      7169.14
  248.17        2981.50           2591        1597.00      6959.80
  248.20        2981.75           2594        1608.00      7007.77
  248.23        2982.00           2598        1602.00      6981.60
  248.26        2982.25           2601        1613.00      7029.58
  248.29        2982.50           2605        1608.00      7007.77
  248.33        2982.75           2609        1560.00      6798.43
  248.36        2983.00           2612        1569.00      6837.68
  248.39        2983.25           2616        1583.00      6898.74
  248.42        2983.50           2619        1566.00      6824.60
  248.45        2983.75           2623        1618.00      7051.39
  248.48        2984.00           2626        1544.00      6728.65
HS scan finished at 04:08:42
end
************************************************************
  HS Scan of (1) Internal mercury lamp
************************************************************
Integration time is 0.2294 seconds per sample
dh020319Reading 51.44 .94 3.17pr1000
************************************************************
Dead Time -------------------------  3.4E-08 
Number of Cycles Used -------------  4 
Starting Wavelength (Angstroms) ---  2950 
Final Wavelength (Angstoms) -------  2984 
Wavelength Increment (Angstroms) --  .25 
Filter Wheel #1 Position ---------- (1) Ground quartz diffuser (ND=2.32)
Filter Wheel #2 Position ---------- (1) Neutral Density 0.494



************************************************************
HS scan start time = 18:37:25
Dark Count =  .9 


Time (GMT)  Wavelength (Ang)  Step Number  Raw Counts  Counts/Second

 1118.32        2950.00           2144        1532.00      6675.88
 1118.52        2950.25           2147        1563.00      6811.08
 1118.55        2950.50           2151        1537.00      6697.69
 1118.58        2950.75           2155        1555.00      6776.19
 1118.61        2951.00           2158        1557.00      6784.91
 1118.64        2951.25           2162        1560.00      6798.00
 1118.67        2951.50           2165        1574.00      6859.05
 1118.70        2951.75           2169        1580.00      6885.22
 1118.73        2952.00           2172        1626.00      7085.84
 1118.76        2952.25           2176        1584.00      6902.67
 1118.79        2952.50           2179        1541.00      6715.13
 1118.82        2952.75           2183        1567.00      6828.53
 1118.85        2953.00           2186        1613.00      7029.14
 1118.88        2953.25           2190        1661.00      7238.49
 1118.91        2953.50           2193        1585.00      6907.03
 1118.94        2953.75           2197        1614.00      7033.50
 1118.98        2954.00           2200        1649.00      7186.15
 1119.01        2954.25           2204        1645.00      7168.70
 1119.04        2954.50           2208        1645.00      7168.70
 1119.07        2954.75           2211        1640.00      7146.90
 1119.10        2955.00           2215        1637.00      7133.81
 1119.13        2955.25           2218        1640.00      7146.90
 1119.16        2955.50           2222        1693.00      7378.05
 1119.19        2955.75           2225        1675.00      7299.54
 1119.22        2956.00           2229        1716.00      7478.36
 1119.25        2956.25           2232        1677.00      7308.27
 1119.28        2956.50           2236        1687.00      7351.88
 1119.31        2956.75           2239        1717.00      7482.72
 1119.34        2957.00           2243        1719.00      7491.45
 1119.37        2957.25           2246        1761.00      7674.63
 1119.40        2957.50           2250        1768.00      7705.16
 1119.43        2957.75           2254        1822.00      7940.68
 1119.46        2958.00           2257        1759.00      7665.90
 1119.50        2958.25           2261        1815.00      7910.15
 1119.53        2958.50           2264        1813.00      7901.43
 1119.56        2958.75           2268        1877.00      8180.57
 1119.59        2959.00           2271        1916.00      8350.67
 1119.62        2959.25           2275        1899.00      8276.52
 1119.65        2959.50           2278        1923.00      8381.20
 1119.68        2959.75           2282        1902.00      8289.61
 1119.71        2960.00           2285        1974.00      8603.65
 1119.74        2960.25           2289        2064.00      8996.21
 1119.77        2960.50           2293        2077.00      9052.92
 1119.80        2960.75           2296        2133.00      9297.18
 1119.83        2961.00           2300        2170.00      9458.58
 1119.86        2961.25           2303        2783.00     12132.73
 1119.89        2961.50           2307        7164.00     31258.58
 1119.92        2961.75           2310       16277.00     71122.53
 1119.95        2962.00           2314       34687.00    151987.00
 1119.98        2962.25           2317       52973.00    232750.50
 1120.02        2962.50           2321       80783.00    356438.80
 1120.05        2962.75           2324       99212.00    438984.30
 1120.08        2963.00           2328      122380.00    543423.10
 1120.11        2963.25           2331      140446.00    625385.30
 1120.14        2963.50           2335      168989.00    755828.60
 1120.17        2963.75           2339      197423.00    886949.80
 1120.20        2964.00           2342      219191.00    988139.80
 1120.23        2964.25           2346      245103.00   1109524.00
 1120.26        2964.50           2349      263112.00   1194493.00
 1120.29        2964.75           2353      286528.00   1305728.00
 1120.32        2965.00           2356      305209.00   1395091.00
 1120.35        2965.25           2360      326748.00   1498822.00
 1120.38        2965.50           2363      343292.00   1579010.00
 1120.41        2965.75           2367      367760.00   1698436.00
 1120.44        2966.00           2370      386675.00   1791448.00
 1120.47        2966.25           2374      410374.00   1908849.00
 1120.50        2966.50           2378      427469.00   1994141.00
 1120.53        2966.75           2381      431920.00   2016433.00
 1120.57        2967.00           2385      435169.00   2032726.00
 1120.60        2967.25           2388      435511.00   2034443.00
 1120.63        2967.50           2392      435928.00   2036535.00
 1120.66        2967.75           2395      434663.00   2030187.00
 1120.69        2968.00           2399      428988.00   2001744.00
 1120.72        2968.25           2402      419616.00   1954896.00
 1120.75        2968.50           2406      401900.00   1866759.00
 1120.78        2968.75           2409      385858.00   1787418.00
 1120.81        2969.00           2413      362274.00   1671572.00
 1120.84        2969.25           2417      336970.00   1548314.00
 1120.87        2969.50           2420      318922.00   1461045.00
 1120.90        2969.75           2424      294569.00   1344125.00
 1120.93        2970.00           2427      276025.00   1255728.00
 1120.96        2970.25           2431      249957.00   1132377.00
 1120.99        2970.50           2434      231366.00   1045046.00
 1121.02        2970.75           2438      205711.00    925393.80
 1121.05        2971.00           2441      184694.00    828104.30
 1121.09        2971.25           2445      158365.00    707139.30
 1121.12        2971.50           2449      132133.00    587613.30
 1121.15        2971.75           2452      111759.00    495451.90
 1121.18        2972.00           2456       87816.00    387885.30
 1121.21        2972.25           2459       69920.00    307999.80
 1121.24        2972.50           2463       44686.00    196094.30
 1121.27        2972.75           2466       25706.00    112483.00
 1121.30        2973.00           2470        7947.00     34679.49
 1121.33        2973.25           2473        3551.00     15483.74
 1121.36        2973.50           2477        2278.00      9929.68
 1121.39        2973.75           2481        2110.00      9196.86
 1121.42        2974.00           2484        2085.00      9087.81
 1121.45        2974.25           2488        2013.00      8773.76
 1121.48        2974.50           2491        2029.00      8843.55
 1121.51        2974.75           2495        1966.00      8568.76
 1121.54        2975.00           2498        1933.00      8424.82
 1121.57        2975.25           2502        1945.00      8477.16
 1121.61        2975.50           2505        1913.00      8337.59
 1121.64        2975.75           2509        1881.00      8198.01
 1121.67        2976.00           2512        1862.00      8115.14
 1121.70        2976.25           2516        1822.00      7940.68
 1121.73        2976.50           2520        1800.00      7844.73
 1121.76        2976.75           2523        1784.00      7774.94
 1121.80        2977.00           2527        1770.00      7713.88
 1121.83        2977.25           2530        1750.00      7626.65
 1121.86        2977.50           2534        1750.00      7626.65
 1121.89        2977.75           2537        1713.00      7465.28
 1121.92        2978.00           2541        1728.00      7530.70
 1121.95        2978.25           2544        1700.00      7408.58
 1121.98        2978.50           2548        1692.00      7373.69
 1122.01        2978.75           2552        1644.00      7164.34
 1122.04        2979.00           2555        1652.00      7199.23
 1122.07        2979.25           2559        1635.00      7125.09
 1122.10        2979.50           2562        1634.00      7120.73
 1122.13        2979.75           2566        1565.00      6819.80
 1122.16        2980.00           2569        1643.00      7159.98
 1122.19        2980.25           2573        1591.00      6933.20
 1122.22        2980.50           2577        1582.00      6893.94
 1122.25        2980.75           2580        1541.00      6715.13
 1122.29        2981.00           2584        1532.00      6675.88
 1122.32        2981.25           2587        1591.00      6933.20
 1122.35        2981.50           2591        1512.00      6588.66
 1122.38        2981.75           2594        1539.00      6706.41
 1122.41        2982.00           2598        1508.00      6571.22
 1122.44        2982.25           2601        1517.00      6610.47
 1122.47        2982.50           2605        1514.00      6597.38
 1122.50        2982.75           2609        1515.00      6601.74
 1122.53        2983.00           2612        1516.00      6606.10
 1122.56        2983.25           2616        1486.00      6475.27
 1122.59        2983.50           2619        1453.00      6331.35
 1122.62        2983.75           2623        1479.00      6444.74
 1122.65        2984.00           2626        1464.00      6379.33
HS scan finished at 18:42:52
end
