************************************************************
  HS Scan of 
************************************************************
Integration time is 0.2294 seconds per sample
dh100317Reading 51.44 .94 2.88pr1000
************************************************************
Dead Time -------------------------  3.4E-08 
Number of Cycles Used -------------  4 
Starting Wavelength (Angstroms) ---  2950 
Final Wavelength (Angstoms) -------  2984 
Wavelength Increment (Angstroms) --  .25 
Filter Wheel #1 Position ---------- (1) Ground quartz diffuser (ND=2.32)
Filter Wheel #2 Position ---------- (1) Neutral Density 0.494



************************************************************
HS scan start time = 03:40:02
Dark Count =  .7 


Time (GMT)  Wavelength (Ang)  Step Number  Raw Counts  Counts/Second

  220.93        2950.00           2144         943.00      4108.25
  221.13        2950.25           2147         945.00      4116.97
  221.16        2950.50           2151         983.00      4282.66
  221.19        2950.75           2155         973.00      4239.06
  221.22        2951.00           2158         995.00      4334.99
  221.25        2951.25           2162         974.00      4243.42
  221.28        2951.50           2165         967.00      4212.90
  221.31        2951.75           2169        1000.00      4356.79
  221.34        2952.00           2172         968.00      4217.26
  221.37        2952.25           2176         975.00      4247.78
  221.40        2952.50           2179        1032.00      4496.33
  221.43        2952.75           2183         997.00      4343.71
  221.46        2953.00           2186         980.00      4269.58
  221.49        2953.25           2190        1022.00      4452.72
  221.52        2953.50           2193        1027.00      4474.53
  221.55        2953.75           2197        1037.00      4518.13
  221.58        2954.00           2200        1040.00      4531.21
  221.62        2954.25           2204        1017.00      4430.92
  221.65        2954.50           2208         998.00      4348.07
  221.68        2954.75           2211        1008.00      4391.68
  221.71        2955.00           2215        1014.00      4417.84
  221.74        2955.25           2218        1030.00      4487.61
  221.77        2955.50           2222        1030.00      4487.61
  221.80        2955.75           2225        1050.00      4574.82
  221.83        2956.00           2229        1064.00      4635.87
  221.86        2956.25           2232        1070.00      4662.03
  221.89        2956.50           2236        1110.00      4836.45
  221.92        2956.75           2239        1108.00      4827.73
  221.95        2957.00           2243        1082.00      4714.36
  221.98        2957.25           2246        1087.00      4736.16
  222.01        2957.50           2250        1082.00      4714.36
  222.04        2957.75           2254        1127.00      4910.59
  222.07        2958.00           2257        1103.00      4805.93
  222.10        2958.25           2261        1159.00      5050.13
  222.14        2958.50           2264        1154.00      5028.32
  222.17        2958.75           2268        1122.00      4888.78
  222.20        2959.00           2271        1162.00      5063.21
  222.23        2959.25           2275        1182.00      5150.42
  222.26        2959.50           2278        1223.00      5329.21
  222.29        2959.75           2282        1190.00      5185.31
  222.32        2960.00           2285        1232.00      5368.46
  222.35        2960.25           2289        1250.00      5446.96
  222.38        2960.50           2293        1286.00      5603.95
  222.41        2960.75           2296        1246.00      5429.51
  222.44        2961.00           2300        1405.00      6122.90
  222.47        2961.25           2303        1712.00      7461.79
  222.50        2961.50           2307        5363.00     23393.93
  222.53        2961.75           2310       12406.00     54176.86
  222.56        2962.00           2314       25185.00    110195.40
  222.59        2962.25           2317       36555.00    160217.90
  222.62        2962.50           2321       51154.00    224697.50
  222.66        2962.75           2324       61527.00    270685.10
  222.69        2963.00           2328       75775.00    334088.60
  222.72        2963.25           2331       87887.00    388204.00
  222.75        2963.50           2335      104625.00    463319.50
  222.78        2963.75           2339      121860.00    541071.60
  222.81        2964.00           2342      133240.00    592638.50
  222.84        2964.25           2346      147168.00    656000.90
  222.87        2964.50           2349      157861.00    704834.50
  222.90        2964.75           2353      174443.00    780888.50
  222.93        2965.00           2356      186671.00    837229.10
  222.96        2965.25           2360      201635.00    906475.40
  222.99        2965.50           2363      212404.00    956515.00
  223.02        2965.75           2367      225501.00   1017606.00
  223.05        2966.00           2370      235329.00   1063619.00
  223.08        2966.25           2374      250249.00   1133754.00
  223.11        2966.50           2378      261571.00   1187204.00
  223.14        2966.75           2381      265865.00   1207527.00
  223.18        2967.00           2385      267281.00   1214236.00
  223.21        2967.25           2388      267199.00   1213847.00
  223.24        2967.50           2392      267283.00   1214245.00
  223.27        2967.75           2395      266844.00   1212165.00
  223.30        2968.00           2399      264571.00   1201400.00
  223.33        2968.25           2402      258531.00   1172833.00
  223.36        2968.50           2406      245606.00   1111892.00
  223.39        2968.75           2409      234221.00   1058424.00
  223.42        2969.00           2413      217957.00    982385.60
  223.45        2969.25           2417      201721.00    906874.40
  223.48        2969.50           2420      190694.00    855813.20
  223.51        2969.75           2424      175540.00    785934.00
  223.54        2970.00           2427      163917.00    732564.40
  223.57        2970.25           2431      146028.00    650804.30
  223.60        2970.50           2434      133439.00    593541.80
  223.63        2970.75           2438      118296.00    524959.30
  223.66        2971.00           2441      106570.00    472073.20
  223.70        2971.25           2445       90668.00    400657.60
  223.73        2971.50           2449       75614.00    333370.60
  223.76        2971.75           2452       64782.00    285145.70
  223.79        2972.00           2456       48639.00    213569.20
  223.82        2972.25           2459       36515.00    160041.60
  223.85        2972.50           2463       21153.00     92497.51
  223.88        2972.75           2466       11382.00     49697.24
  223.91        2973.00           2470        3762.00     16405.40
  223.94        2973.25           2473        1883.00      8207.61
  223.97        2973.50           2477        1418.00      6179.59
  224.00        2973.75           2481        1374.00      5987.71
  224.03        2974.00           2484        1311.00      5712.97
  224.06        2974.25           2488        1298.00      5656.28
  224.09        2974.50           2491        1233.00      5372.82
  224.12        2974.75           2495        1231.00      5364.10
  224.15        2975.00           2498        1213.00      5285.61
  224.18        2975.25           2502        1206.00      5255.08
  224.22        2975.50           2505        1179.00      5137.34
  224.25        2975.75           2509        1157.00      5041.41
  224.28        2976.00           2512        1148.00      5002.16
  224.31        2976.25           2516        1134.00      4941.11
  224.34        2976.50           2520        1125.00      4901.86
  224.37        2976.75           2523        1131.00      4928.03
  224.40        2977.00           2527        1153.00      5023.96
  224.43        2977.25           2530        1090.00      4749.24
  224.46        2977.50           2534        1075.00      4683.83
  224.49        2977.75           2537        1080.00      4705.64
  224.52        2978.00           2541        1050.00      4574.82
  224.55        2978.25           2544        1052.00      4583.54
  224.58        2978.50           2548        1065.00      4640.23
  224.61        2978.75           2552        1030.00      4487.61
  224.64        2979.00           2555        1031.00      4491.97
  224.67        2979.25           2559        1028.00      4478.89
  224.70        2979.50           2562        1016.00      4426.56
  224.74        2979.75           2566        1002.00      4365.51
  224.77        2980.00           2569         985.00      4291.39
  224.80        2980.25           2573        1000.00      4356.79
  224.83        2980.50           2577        1009.00      4396.04
  224.86        2980.75           2580         989.00      4308.83
  224.89        2981.00           2584         972.00      4234.70
  224.92        2981.25           2587         973.00      4239.06
  224.95        2981.50           2591         978.00      4260.86
  224.98        2981.75           2594         941.00      4099.53
  225.01        2982.00           2598         985.00      4291.39
  225.04        2982.25           2601         951.00      4143.13
  225.07        2982.50           2605         959.00      4178.01
  225.10        2982.75           2609         939.00      4090.80
  225.13        2983.00           2612         928.00      4042.84
  225.16        2983.25           2616         928.00      4042.84
  225.19        2983.50           2619         940.00      4095.16
  225.22        2983.75           2623         929.00      4047.20
  225.25        2984.00           2626         944.00      4112.61
HS scan finished at 03:45:29
end
