************************************************************
  HS Scan of (1) Internal mercury lamp
************************************************************
Integration time is 0.2294 seconds per sample
dh090319Reading 51.44 .94 2.78pr1000
************************************************************
Dead Time -------------------------  3.4E-08 
Number of Cycles Used -------------  4 
Starting Wavelength (Angstroms) ---  2950 
Final Wavelength (Angstoms) -------  2984 
Wavelength Increment (Angstroms) --  .25 
Filter Wheel #1 Position ---------- (1) Ground quartz diffuser (ND=2.32)
Filter Wheel #2 Position ---------- (1) Neutral Density 0.494



************************************************************
HS scan start time = 03:44:22
Dark Count =  .4 


Time (GMT)  Wavelength (Ang)  Step Number  Raw Counts  Counts/Second

  225.26        2950.00           2144        1637.00      7135.99
  225.45        2950.25           2147        1683.00      7336.62
  225.48        2950.50           2151        1657.00      7223.22
  225.51        2950.75           2155        1719.00      7493.63
  225.54        2951.00           2158        1687.00      7354.06
  225.57        2951.25           2162        1689.00      7362.78
  225.61        2951.50           2165        1703.00      7423.84
  225.64        2951.75           2169        1702.00      7419.48
  225.67        2952.00           2172        1706.00      7436.93
  225.70        2952.25           2176        1670.00      7279.92
  225.73        2952.50           2179        1731.00      7545.96
  225.76        2952.75           2183        1746.00      7611.39
  225.79        2953.00           2186        1739.00      7580.85
  225.82        2953.25           2190        1714.00      7471.82
  225.85        2953.50           2193        1698.00      7402.04
  225.88        2953.75           2197        1734.00      7559.05
  225.91        2954.00           2200        1783.00      7772.76
  225.94        2954.25           2204        1783.00      7772.76
  225.97        2954.50           2208        1731.00      7545.96
  226.00        2954.75           2211        1748.00      7620.11
  226.03        2955.00           2215        1791.00      7807.65
  226.06        2955.25           2218        1795.00      7825.10
  226.09        2955.50           2222        1739.00      7580.85
  226.13        2955.75           2225        1760.00      7672.45
  226.16        2956.00           2229        1801.00      7851.27
  226.19        2956.25           2232        1802.00      7855.63
  226.22        2956.50           2236        1833.00      7990.84
  226.25        2956.75           2239        1846.00      8047.54
  226.28        2957.00           2243        1821.00      7938.50
  226.31        2957.25           2246        1867.00      8139.13
  226.34        2957.50           2250        1889.00      8235.09
  226.37        2957.75           2254        1926.00      8396.47
  226.40        2958.00           2257        1914.00      8344.13
  226.43        2958.25           2261        1956.00      8527.32
  226.46        2958.50           2264        1959.00      8540.40
  226.49        2958.75           2268        2000.00      8719.24
  226.52        2959.00           2271        2001.00      8723.60
  226.55        2959.25           2275        2011.00      8767.22
  226.58        2959.50           2278        1966.00      8570.94
  226.61        2959.75           2282        2005.00      8741.05
  226.65        2960.00           2285        2076.00      9050.74
  226.68        2960.25           2289        2060.00      8980.95
  226.71        2960.50           2293        2130.00      9286.28
  226.74        2960.75           2296        2174.00      9478.21
  226.77        2961.00           2300        2357.00     10276.48
  226.80        2961.25           2303        3296.00     14373.20
  226.83        2961.50           2307        9941.00     43397.03
  226.86        2961.75           2310       20321.00     88849.51
  226.89        2962.00           2314       39291.00    172281.70
  226.92        2962.25           2317       56390.00    247894.00
  226.95        2962.50           2321       79188.00    349318.70
  226.98        2962.75           2324       95728.00    423345.50
  227.01        2963.00           2328      119305.00    529520.50
  227.04        2963.25           2331      138456.00    616336.60
  227.07        2963.50           2335      164879.00    736975.50
  227.10        2963.75           2339      191776.00    860816.90
  227.13        2964.00           2342      210344.00    946930.80
  227.17        2964.25           2346      234488.00   1059677.00
  227.20        2964.50           2349      251454.00   1139434.00
  227.23        2964.75           2353      276694.00   1258910.00
  227.26        2965.00           2356      295465.00   1348412.00
  227.29        2965.25           2360      315951.00   1446733.00
  227.32        2965.50           2363      332140.00   1524910.00
  227.35        2965.75           2367      355585.00   1638888.00
  227.38        2966.00           2370      369996.00   1709402.00
  227.41        2966.25           2374      392231.00   1818887.00
  227.44        2966.50           2378      409507.00   1904539.00
  227.47        2966.75           2381      414913.00   1931448.00
  227.50        2967.00           2385      417474.00   1944213.00
  227.53        2967.25           2388      416866.00   1941182.00
  227.56        2967.50           2392      417227.00   1942982.00
  227.59        2967.75           2395      416738.00   1940543.00
  227.62        2968.00           2399      412212.00   1917997.00
  227.65        2968.25           2402      403474.00   1874570.00
  227.68        2968.50           2406      383610.00   1776338.00
  227.72        2968.75           2409      366618.00   1692842.00
  227.75        2969.00           2413      341916.00   1572326.00
  227.78        2969.25           2417      318896.00   1460922.00
  227.81        2969.50           2420      302405.00   1381645.00
  227.84        2969.75           2424      280085.00   1275038.00
  227.87        2970.00           2427      260357.00   1181465.00
  227.90        2970.25           2431      231748.00   1046838.00
  227.93        2970.50           2434      210791.00    949010.30
  227.96        2970.75           2438      185868.00    833524.00
  227.99        2971.00           2441      167387.00    748478.50
  228.02        2971.25           2445      143455.00    639083.80
  228.06        2971.50           2449      119580.00    530763.40
  228.10        2971.75           2452      101282.00    448287.50
  228.13        2972.00           2456       74616.00    328922.10
  228.16        2972.25           2459       55496.00    243931.00
  228.19        2972.50           2463       31904.00    139736.40
  228.22        2972.75           2466       17067.00     74585.60
  228.25        2973.00           2470        5866.00     25591.57
  228.28        2973.25           2473        3143.00     13705.60
  228.31        2973.50           2477        2344.00     10219.77
  228.34        2973.75           2481        2202.00      9600.35
  228.37        2974.00           2484        2180.00      9504.38
  228.40        2974.25           2488        2109.00      9194.68
  228.43        2974.50           2491        2125.00      9264.47
  228.46        2974.75           2495        2038.00      8884.98
  228.49        2975.00           2498        2009.00      8758.49
  228.52        2975.25           2502        1988.00      8666.89
  228.55        2975.50           2505        1967.00      8575.30
  228.59        2975.75           2509        1963.00      8557.85
  228.62        2976.00           2512        1926.00      8396.47
  228.65        2976.25           2516        1921.00      8374.66
  228.68        2976.50           2520        1860.00      8108.60
  228.71        2976.75           2523        1851.00      8069.35
  228.74        2977.00           2527        1863.00      8121.68
  228.77        2977.25           2530        1873.00      8165.30
  228.80        2977.50           2534        1807.00      7877.44
  228.83        2977.75           2537        1809.00      7886.16
  228.86        2978.00           2541        1771.00      7720.42
  228.89        2978.25           2544        1753.00      7641.92
  228.92        2978.50           2548        1732.00      7550.33
  228.95        2978.75           2552        1704.00      7428.21
  228.98        2979.00           2555        1697.00      7397.68
  229.01        2979.25           2559        1690.00      7367.15
  229.04        2979.50           2562        1740.00      7585.22
  229.07        2979.75           2566        1710.00      7454.37
  229.11        2980.00           2569        1714.00      7471.82
  229.14        2980.25           2573        1686.00      7349.70
  229.17        2980.50           2577        1699.00      7406.40
  229.20        2980.75           2580        1626.00      7088.02
  229.23        2981.00           2584        1662.00      7245.03
  229.26        2981.25           2587        1634.00      7122.91
  229.29        2981.50           2591        1632.00      7114.19
  229.32        2981.75           2594        1637.00      7135.99
  229.35        2982.00           2598        1599.00      6970.27
  229.38        2982.25           2601        1625.00      7083.66
  229.41        2982.50           2605        1602.00      6983.35
  229.44        2982.75           2609        1638.00      7140.36
  229.47        2983.00           2612        1536.00      6695.51
  229.50        2983.25           2616        1590.00      6931.01
  229.53        2983.50           2619        1575.00      6865.60
  229.56        2983.75           2623        1597.00      6961.54
  229.59        2984.00           2626        1574.00      6861.23
HS scan finished at 03:49:49
end
************************************************************
  HS Scan of (1) Internal mercury lamp
************************************************************
Integration time is 0.2294 seconds per sample
dh090319Reading 51.44 .94 2.94pr1000
************************************************************
Dead Time -------------------------  3.4E-08 
Number of Cycles Used -------------  4 
Starting Wavelength (Angstroms) ---  2950 
Final Wavelength (Angstoms) -------  2984 
Wavelength Increment (Angstroms) --  .25 
Filter Wheel #1 Position ---------- (1) Ground quartz diffuser (ND=2.32)
Filter Wheel #2 Position ---------- (1) Neutral Density 0.494



************************************************************
HS scan start time = 19:07:25
Dark Count =  .6 


Time (GMT)  Wavelength (Ang)  Step Number  Raw Counts  Counts/Second

 1148.32        2950.00           2144        1163.00      5068.01
 1148.51        2950.25           2147        1134.00      4941.55
 1148.54        2950.50           2151        1171.00      5102.89
 1148.57        2950.75           2155        1142.00      4976.43
 1148.60        2951.00           2158        1149.00      5006.96
 1148.63        2951.25           2162        1190.00      5185.74
 1148.66        2951.50           2165        1183.00      5155.22
 1148.69        2951.75           2169        1180.00      5142.14
 1148.72        2952.00           2172        1148.00      5002.59
 1148.75        2952.25           2176        1201.00      5233.71
 1148.78        2952.50           2179        1197.00      5216.27
 1148.81        2952.75           2183        1188.00      5177.02
 1148.85        2953.00           2186        1165.00      5076.73
 1148.88        2953.25           2190        1220.00      5316.57
 1148.91        2953.50           2193        1195.00      5207.55
 1148.94        2953.75           2197        1257.00      5477.92
 1148.97        2954.00           2200        1267.00      5521.53
 1149.00        2954.25           2204        1208.00      5264.24
 1149.03        2954.50           2208        1238.00      5395.06
 1149.06        2954.75           2211        1253.00      5460.47
 1149.09        2955.00           2215        1214.00      5290.40
 1149.12        2955.25           2218        1243.00      5416.87
 1149.15        2955.50           2222        1246.00      5429.95
 1149.18        2955.75           2225        1239.00      5399.42
 1149.21        2956.00           2229        1274.00      5552.05
 1149.24        2956.25           2232        1258.00      5482.28
 1149.27        2956.50           2236        1287.00      5608.74
 1149.30        2956.75           2239        1291.00      5626.19
 1149.33        2957.00           2243        1296.00      5647.99
 1149.37        2957.25           2246        1288.00      5613.10
 1149.40        2957.50           2250        1270.00      5534.61
 1149.43        2957.75           2254        1312.00      5717.76
 1149.46        2958.00           2257        1356.00      5909.64
 1149.49        2958.25           2261        1358.00      5918.37
 1149.52        2958.50           2264        1349.00      5879.12
 1149.55        2958.75           2268        1387.00      6044.83
 1149.58        2959.00           2271        1378.00      6005.59
 1149.61        2959.25           2275        1362.00      5935.81
 1149.64        2959.50           2278        1429.00      6228.00
 1149.67        2959.75           2282        1451.00      6323.94
 1149.70        2960.00           2285        1453.00      6332.66
 1149.73        2960.25           2289        1513.00      6594.33
 1149.76        2960.50           2293        1479.00      6446.05
 1149.79        2960.75           2296        1522.00      6633.58
 1149.82        2961.00           2300        1593.00      6943.23
 1149.85        2961.25           2303        1982.00      8639.85
 1149.89        2961.50           2307        5649.00     24643.13
 1149.92        2961.75           2310       12961.00     56605.79
 1149.95        2962.00           2314       26719.00    116934.80
 1149.98        2962.25           2317       38001.00    166592.20
 1150.01        2962.50           2321       54794.00    240819.00
 1150.04        2962.75           2324       67445.00    296987.30
 1150.07        2963.00           2328       85049.00    375506.50
 1150.10        2963.25           2331       98688.00    436632.10
 1150.13        2963.50           2335      118801.00    527241.70
 1150.16        2963.75           2339      138445.00    616285.70
 1150.19        2964.00           2342      152635.00    680948.00
 1150.22        2964.25           2346      169040.00    756064.10
 1150.25        2964.50           2349      181900.00    815221.30
 1150.28        2964.75           2353      199111.00    894772.80
 1150.31        2965.00           2356      213536.00    961785.50
 1150.34        2965.25           2360      231896.00   1047530.00
 1150.37        2965.50           2363      243817.00   1103478.00
 1150.41        2965.75           2367      260178.00   1180618.00
 1150.44        2966.00           2370      273092.00   1241798.00
 1150.47        2966.25           2374      287547.00   1310590.00
 1150.50        2966.50           2378      301215.00   1375940.00
 1150.53        2966.75           2381      307163.00   1404472.00
 1150.56        2967.00           2385      309219.00   1414348.00
 1150.59        2967.25           2388      309844.00   1417351.00
 1150.62        2967.50           2392      309730.00   1416803.00
 1150.65        2967.75           2395      309519.00   1415789.00
 1150.68        2968.00           2399      307154.00   1404429.00
 1150.71        2968.25           2402      301481.00   1377215.00
 1150.74        2968.50           2406      288330.00   1314325.00
 1150.77        2968.75           2409      275349.00   1252518.00
 1150.80        2969.00           2413      257550.00   1168199.00
 1150.83        2969.25           2417      238840.00   1080093.00
 1150.86        2969.50           2420      224663.00   1013690.00
 1150.89        2969.75           2424      206885.00    930849.10
 1150.93        2970.00           2427      194051.00    871339.40
 1150.96        2970.25           2431      173380.00    776001.50
 1150.99        2970.50           2434      158877.00    709483.40
 1151.02        2970.75           2438      139050.00    619036.80
 1151.05        2971.00           2441      125127.00    555857.30
 1151.08        2971.25           2445      107875.00    477950.00
 1151.11        2971.50           2449       91852.00    405963.40
 1151.14        2971.75           2452       77987.00    343957.20
 1151.17        2972.00           2456       58537.00    257414.80
 1151.20        2972.25           2459       44032.00    193206.60
 1151.23        2972.50           2463       26076.00    114109.70
 1151.26        2972.75           2466       14750.00     64436.57
 1151.29        2973.00           2470        5437.00     23717.46
 1151.32        2973.25           2473        2783.00     12134.04
 1151.35        2973.50           2477        1744.00      7601.79
 1151.38        2973.75           2481        1538.00      6703.36
 1151.41        2974.00           2484        1522.00      6633.58
 1151.45        2974.25           2488        1481.00      6454.77
 1151.48        2974.50           2491        1448.00      6310.86
 1151.51        2974.75           2495        1433.00      6245.44
 1151.54        2975.00           2498        1407.00      6132.05
 1151.57        2975.25           2502        1412.00      6153.86
 1151.60        2975.50           2505        1423.00      6201.83
 1151.63        2975.75           2509        1386.00      6040.47
 1151.66        2976.00           2512        1337.00      5826.79
 1151.69        2976.25           2516        1340.00      5839.87
 1151.72        2976.50           2520        1314.00      5726.49
 1151.75        2976.75           2523        1301.00      5669.79
 1151.78        2977.00           2527        1263.00      5504.08
 1151.81        2977.25           2530        1275.00      5556.41
 1151.84        2977.50           2534        1257.00      5477.92
 1151.87        2977.75           2537        1269.00      5530.25
 1151.90        2978.00           2541        1250.00      5447.39
 1151.93        2978.25           2544        1220.00      5316.57
 1151.97        2978.50           2548        1216.00      5299.12
 1152.00        2978.75           2552        1242.00      5412.50
 1152.03        2979.00           2555        1248.00      5438.67
 1152.06        2979.25           2559        1186.00      5168.30
 1152.09        2979.50           2562        1149.00      5006.96
 1152.12        2979.75           2566        1164.00      5072.37
 1152.15        2980.00           2569        1146.00      4993.87
 1152.18        2980.25           2573        1164.00      5072.37
 1152.21        2980.50           2577        1184.00      5159.58
 1152.24        2980.75           2580        1151.00      5015.68
 1152.27        2981.00           2584        1183.00      5155.22
 1152.30        2981.25           2587        1172.00      5107.25
 1152.33        2981.50           2591        1129.00      4919.74
 1152.36        2981.75           2594        1159.00      5050.56
 1152.39        2982.00           2598        1125.00      4902.30
 1152.42        2982.25           2601        1136.00      4950.27
 1152.45        2982.50           2605        1158.00      5046.20
 1152.49        2982.75           2609        1109.00      4832.53
 1152.52        2983.00           2612        1090.00      4749.68
 1152.55        2983.25           2616        1131.00      4928.46
 1152.58        2983.50           2619        1098.00      4784.56
 1152.61        2983.75           2623        1069.00      4658.11
 1152.64        2984.00           2626        1123.00      4893.58
HS scan finished at 19:12:52
end
