************************************************************
  HS Scan of 
************************************************************
Integration time is 0.2294 seconds per sample
dh030317Reading 51.44 .94 2.68pr1000
************************************************************
Dead Time -------------------------  3.4E-08 
Number of Cycles Used -------------  4 
Starting Wavelength (Angstroms) ---  2950 
Final Wavelength (Angstoms) -------  2984 
Wavelength Increment (Angstroms) --  .25 
Filter Wheel #1 Position ---------- (1) Ground quartz diffuser (ND=2.32)
Filter Wheel #2 Position ---------- (1) Neutral Density 0.494



************************************************************
HS scan start time = 03:59:28
Dark Count =  .5 


Time (GMT)  Wavelength (Ang)  Step Number  Raw Counts  Counts/Second

  240.36        2950.00           2144         906.00      3947.78
  240.55        2950.25           2147         922.00      4017.55
  240.58        2950.50           2151         925.00      4030.63
  240.61        2950.75           2155         910.00      3965.23
  240.64        2951.00           2158         930.00      4052.43
  240.67        2951.25           2162         918.00      4000.11
  240.70        2951.50           2165         944.00      4113.48
  240.74        2951.75           2169         936.00      4078.60
  240.77        2952.00           2172         957.00      4170.16
  240.80        2952.25           2176         929.00      4048.07
  240.83        2952.50           2179         956.00      4165.80
  240.86        2952.75           2183         973.00      4239.93
  240.89        2953.00           2186         950.00      4139.64
  240.92        2953.25           2190         957.00      4170.16
  240.95        2953.50           2193         955.00      4161.44
  240.98        2953.75           2197         971.00      4231.21
  241.01        2954.00           2200         968.00      4218.13
  241.04        2954.25           2204         976.00      4253.01
  241.07        2954.50           2208         968.00      4218.13
  241.10        2954.75           2211         993.00      4327.14
  241.13        2955.00           2215         998.00      4348.94
  241.16        2955.25           2218         988.00      4305.34
  241.19        2955.50           2222        1017.00      4431.79
  241.22        2955.75           2225        1008.00      4392.55
  241.26        2956.00           2229        1001.00      4362.02
  241.29        2956.25           2232        1009.00      4396.91
  241.32        2956.50           2236        1062.00      4628.02
  241.35        2956.75           2239        1035.00      4510.28
  241.38        2957.00           2243        1033.00      4501.56
  241.41        2957.25           2246        1035.00      4510.28
  241.44        2957.50           2250        1072.00      4671.62
  241.47        2957.75           2254        1095.00      4771.92
  241.50        2958.00           2257        1086.00      4732.67
  241.53        2958.25           2261        1083.00      4719.59
  241.56        2958.50           2264        1095.00      4771.92
  241.59        2958.75           2268        1085.00      4728.31
  241.62        2959.00           2271        1117.00      4867.85
  241.65        2959.25           2275        1103.00      4806.80
  241.68        2959.50           2278        1124.00      4898.37
  241.71        2959.75           2282        1159.00      5051.00
  241.74        2960.00           2285        1179.00      5138.21
  241.78        2960.25           2289        1202.00      5238.51
  241.81        2960.50           2293        1174.00      5116.41
  241.84        2960.75           2296        1207.00      5260.31
  241.87        2961.00           2300        1332.00      5805.42
  241.90        2961.25           2303        1519.00      6620.93
  241.93        2961.50           2307        4585.00     19998.34
  241.96        2961.75           2310       10934.00     47738.72
  241.99        2962.00           2314       22162.00     96925.26
  242.02        2962.25           2317       31849.00    139494.00
  242.05        2962.50           2321       45031.00    197620.30
  242.08        2962.75           2324       54718.00    240482.70
  242.11        2963.00           2328       67170.00    295764.50
  242.14        2963.25           2331       78024.00    344122.70
  242.17        2963.50           2335       93280.00    412365.00
  242.20        2963.75           2339      108777.00    482013.40
  242.23        2964.00           2342      120075.00    533000.60
  242.26        2964.25           2346      133937.00    595803.80
  242.30        2964.50           2349      143507.00    639320.10
  242.33        2964.75           2353      156694.00    699497.80
  242.36        2965.00           2356      167561.00    749276.40
  242.39        2965.25           2360      180316.00    807922.10
  242.42        2965.50           2363      190249.00    853757.20
  242.45        2965.75           2367      203735.00    916220.80
  242.48        2966.00           2370      213082.00    959672.10
  242.51        2966.25           2374      224321.00   1012092.00
  242.54        2966.50           2378      234743.00   1060873.00
  242.57        2966.75           2381      238701.00   1079441.00
  242.60        2967.00           2385      239921.00   1085170.00
  242.63        2967.25           2388      240267.00   1086795.00
  242.66        2967.50           2392      240161.00   1086297.00
  242.69        2967.75           2395      240089.00   1085959.00
  242.72        2968.00           2399      237073.00   1071801.00
  242.75        2968.25           2402      232239.00   1049138.00
  242.78        2968.50           2406      220011.00    991967.40
  242.82        2968.75           2409      210129.00    945930.40
  242.85        2969.00           2413      196150.00    881055.90
  242.88        2969.25           2417      181295.00    812433.10
  242.91        2969.50           2420      170229.00    761523.90
  242.94        2969.75           2424      157178.00    701711.30
  242.97        2970.00           2427      148068.00    660105.70
  243.00        2970.25           2431      132536.00    589444.00
  243.03        2970.50           2434      121902.00    541262.50
  243.06        2970.75           2438      106582.00    472128.20
  243.09        2971.00           2441       95362.00    421702.80
  243.12        2971.25           2445       82092.00    362288.30
  243.15        2971.50           2449       68930.00    303595.00
  243.18        2971.75           2452       58258.00    256177.60
  243.21        2972.00           2456       43172.00    189409.00
  243.24        2972.25           2459       32319.00    141562.50
  243.27        2972.50           2463       19082.00     83416.28
  243.30        2972.75           2466       10711.00     46763.49
  243.34        2973.00           2470        3596.00     15681.86
  243.37        2973.25           2473        1810.00      7890.09
  243.40        2973.50           2477        1347.00      5870.83
  243.43        2973.75           2481        1297.00      5652.79
  243.46        2974.00           2484        1248.00      5439.11
  243.49        2974.25           2488        1208.00      5264.67
  243.52        2974.50           2491        1192.00      5194.90
  243.55        2974.75           2495        1156.00      5037.92
  243.58        2975.00           2498        1171.00      5103.33
  243.61        2975.25           2502        1134.00      4941.98
  243.64        2975.50           2505        1127.00      4911.46
  243.67        2975.75           2509        1094.00      4767.56
  243.70        2976.00           2512        1105.00      4815.52
  243.73        2976.25           2516        1105.00      4815.52
  243.76        2976.50           2520        1075.00      4684.70
  243.79        2976.75           2523        1069.00      4658.54
  243.82        2977.00           2527        1027.00      4475.40
  243.86        2977.25           2530        1034.00      4505.92
  243.89        2977.50           2534        1026.00      4471.04
  243.92        2977.75           2537        1028.00      4479.76
  243.95        2978.00           2541        1005.00      4379.47
  243.98        2978.25           2544         983.00      4283.54
  244.01        2978.50           2548         947.00      4126.56
  244.04        2978.75           2552        1019.00      4440.51
  244.07        2979.00           2555         979.00      4266.09
  244.10        2979.25           2559         964.00      4200.69
  244.13        2979.50           2562         964.00      4200.69
  244.16        2979.75           2566         965.00      4205.05
  244.19        2980.00           2569         952.00      4148.36
  244.22        2980.25           2573         941.00      4100.40
  244.25        2980.50           2577         946.00      4122.20
  244.28        2980.75           2580         938.00      4087.32
  244.31        2981.00           2584         929.00      4048.07
  244.34        2981.25           2587         898.00      3912.90
  244.38        2981.50           2591         926.00      4034.99
  244.41        2981.75           2594         901.00      3925.98
  244.44        2982.00           2598         938.00      4087.32
  244.47        2982.25           2601         896.00      3904.18
  244.50        2982.50           2605         906.00      3947.78
  244.53        2982.75           2609         888.00      3869.30
  244.56        2983.00           2612         895.00      3899.82
  244.59        2983.25           2616         899.00      3917.26
  244.62        2983.50           2619         886.00      3860.58
  244.65        2983.75           2623         886.00      3860.58
  244.68        2984.00           2626         871.00      3795.17
HS scan finished at 04:04:54
end
************************************************************
  HS Scan of 
************************************************************
Integration time is 0.2294 seconds per sample
dh030317Reading 51.44 .94 3.09pr1000
************************************************************
Dead Time -------------------------  3.4E-08 
Number of Cycles Used -------------  4 
Starting Wavelength (Angstroms) ---  2950 
Final Wavelength (Angstoms) -------  2984 
Wavelength Increment (Angstroms) --  .25 
Filter Wheel #1 Position ---------- (1) Ground quartz diffuser (ND=2.32)
Filter Wheel #2 Position ---------- (1) Neutral Density 0.494



************************************************************
HS scan start time = 18:37:28
Dark Count =  1.2 


Time (GMT)  Wavelength (Ang)  Step Number  Raw Counts  Counts/Second

 1118.37        2950.00           2144         857.00      3731.07
 1118.56        2950.25           2147         870.00      3787.76
 1118.59        2950.50           2151         823.00      3582.83
 1118.62        2950.75           2155         834.00      3630.79
 1118.65        2951.00           2158         885.00      3853.16
 1118.68        2951.25           2162         894.00      3892.41
 1118.72        2951.50           2165         895.00      3896.77
 1118.75        2951.75           2169         863.00      3757.24
 1118.78        2952.00           2172         867.00      3774.68
 1118.81        2952.25           2176         878.00      3822.64
 1118.84        2952.50           2179         875.00      3809.56
 1118.87        2952.75           2183         890.00      3874.97
 1118.90        2953.00           2186         868.00      3779.04
 1118.93        2953.25           2190         886.00      3857.52
 1118.96        2953.50           2193         888.00      3866.25
 1118.99        2953.75           2197         925.00      4027.58
 1119.02        2954.00           2200         904.00      3936.01
 1119.05        2954.25           2204         886.00      3857.52
 1119.08        2954.50           2208         869.00      3783.40
 1119.11        2954.75           2211         936.00      4075.54
 1119.14        2955.00           2215         934.00      4066.82
 1119.17        2955.25           2218         910.00      3962.17
 1119.20        2955.50           2222         900.00      3918.57
 1119.24        2955.75           2225         914.00      3979.61
 1119.27        2956.00           2229         925.00      4027.58
 1119.30        2956.25           2232         949.00      4132.23
 1119.33        2956.50           2236         915.00      3983.97
 1119.36        2956.75           2239         921.00      4010.14
 1119.39        2957.00           2243         974.00      4241.24
 1119.42        2957.25           2246         932.00      4058.10
 1119.45        2957.50           2250         946.00      4119.15
 1119.48        2957.75           2254         966.00      4206.36
 1119.51        2958.00           2257        1016.00      4424.38
 1119.54        2958.25           2261         990.00      4311.01
 1119.57        2958.50           2264         997.00      4341.53
 1119.60        2958.75           2268         984.00      4284.84
 1119.63        2959.00           2271         994.00      4328.45
 1119.66        2959.25           2275        1026.00      4467.98
 1119.69        2959.50           2278        1060.00      4616.24
 1119.72        2959.75           2282        1054.00      4590.08
 1119.76        2960.00           2285        1060.00      4616.24
 1119.79        2960.25           2289        1049.00      4568.28
 1119.83        2960.50           2293        1111.00      4838.63
 1119.86        2960.75           2296        1100.00      4790.67
 1119.89        2961.00           2300        1185.00      5161.32
 1119.92        2961.25           2303        1428.00      6221.02
 1119.95        2961.50           2307        4697.00     20484.18
 1119.98        2961.75           2310       10780.00     47062.17
 1120.01        2962.00           2314       21204.00     92719.04
 1120.05        2962.25           2317       30376.00    133009.90
 1120.08        2962.50           2321       42189.00    185065.80
 1120.11        2962.75           2324       50688.00    222632.70
 1120.14        2963.00           2328       63230.00    278246.80
 1120.17        2963.25           2331       73410.00    323543.10
 1120.20        2963.50           2335       87236.00    385288.00
 1120.23        2963.75           2339      100320.00    443960.70
 1120.26        2964.00           2342      109905.00    487092.80
 1120.29        2964.25           2346      123274.00    547466.80
 1120.32        2964.50           2349      132103.00    587475.80
 1120.35        2964.75           2353      144919.00    645748.60
 1120.38        2965.00           2356      154608.00    689958.70
 1120.41        2965.25           2360      166655.00    745116.50
 1120.44        2965.50           2363      175752.00    786906.90
 1120.47        2965.75           2367      187625.00    841631.60
 1120.50        2966.00           2370      196092.00    880784.10
 1120.53        2966.25           2374      207104.00    931863.90
 1120.57        2966.50           2378      216498.00    975581.40
 1120.60        2966.75           2381      218942.00    986977.00
 1120.63        2967.00           2385      220259.00    993121.40
 1120.66        2967.25           2388      220674.00    995058.10
 1120.69        2967.50           2392      220581.00    994624.10
 1120.72        2967.75           2395      220428.00    993910.10
 1120.75        2968.00           2399      217754.00    981436.60
 1120.78        2968.25           2402      212650.00    957657.60
 1120.81        2968.50           2406      201126.00    904112.20
 1120.84        2968.75           2409      192366.00    863541.60
 1120.87        2969.00           2413      180296.00    807826.70
 1120.90        2969.25           2417      166789.00    745731.30
 1120.93        2969.50           2420      156802.00    699988.50
 1120.96        2969.75           2424      145325.00    647598.50
 1120.99        2970.00           2427      135823.00    604366.20
 1121.02        2970.25           2431      122203.00    542621.00
 1121.05        2970.50           2434      111470.00    494147.40
 1121.09        2970.75           2438       97185.00    429880.90
 1121.12        2971.00           2441       87478.00    386371.10
 1121.15        2971.25           2445       75088.00    331022.90
 1121.18        2971.50           2449       62259.00    273933.60
 1121.21        2971.75           2452       52044.00    228635.30
 1121.24        2972.00           2456       38646.00    169433.60
 1121.27        2972.25           2459       29350.00    128497.40
 1121.30        2972.50           2463       17278.00     75506.59
 1121.33        2972.75           2466        9586.00     41841.52
 1121.36        2973.00           2470        3250.00     14168.99
 1121.39        2973.25           2473        1558.00      6787.97
 1121.42        2973.50           2477        1239.00      5396.81
 1121.45        2973.75           2481        1131.00      4925.85
 1121.48        2974.00           2484        1129.00      4917.13
 1121.51        2974.25           2488        1094.00      4764.50
 1121.54        2974.50           2491        1117.00      4864.80
 1121.57        2974.75           2495        1073.00      4672.93
 1121.61        2975.00           2498        1021.00      4446.18
 1121.64        2975.25           2502        1066.00      4642.41
 1121.67        2975.50           2505        1016.00      4424.38
 1121.70        2975.75           2509        1006.00      4380.78
 1121.73        2976.00           2512         981.00      4271.76
 1121.76        2976.25           2516         984.00      4284.84
 1121.79        2976.50           2520         967.00      4210.72
 1121.82        2976.75           2523         952.00      4145.31
 1121.85        2977.00           2527         947.00      4123.51
 1121.88        2977.25           2530         949.00      4132.23
 1121.91        2977.50           2534         952.00      4145.31
 1121.94        2977.75           2537         911.00      3966.53
 1121.97        2978.00           2541         943.00      4106.07
 1122.00        2978.25           2544         919.00      4001.42
 1122.03        2978.50           2548         901.00      3922.93
 1122.06        2978.75           2552         891.00      3879.33
 1122.09        2979.00           2555         944.00      4110.43
 1122.13        2979.25           2559         916.00      3988.34
 1122.16        2979.50           2562         874.00      3805.20
 1122.19        2979.75           2566         888.00      3866.25
 1122.22        2980.00           2569         867.00      3774.68
 1122.25        2980.25           2573         845.00      3678.75
 1122.28        2980.50           2577         870.00      3787.76
 1122.31        2980.75           2580         847.00      3687.47
 1122.34        2981.00           2584         871.00      3792.12
 1122.37        2981.25           2587         855.00      3722.35
 1122.40        2981.50           2591         849.00      3696.19
 1122.43        2981.75           2594         852.00      3709.27
 1122.46        2982.00           2598         848.00      3691.83
 1122.49        2982.25           2601         835.00      3635.15
 1122.52        2982.50           2605         832.00      3622.07
 1122.55        2982.75           2609         828.00      3604.63
 1122.58        2983.00           2612         831.00      3617.71
 1122.61        2983.25           2616         821.00      3574.10
 1122.65        2983.50           2619         800.00      3482.54
 1122.68        2983.75           2623         810.00      3526.14
 1122.71        2984.00           2626         819.00      3565.38
HS scan finished at 18:42:56
end
