************************************************************
  HS Scan of (1) Internal mercury lamp
************************************************************
Integration time is 0.2294 seconds per sample
dh080319Reading 51.44 .94 2.6pr1000
************************************************************
Dead Time -------------------------  3.4E-08 
Number of Cycles Used -------------  4 
Starting Wavelength (Angstroms) ---  2950 
Final Wavelength (Angstoms) -------  2984 
Wavelength Increment (Angstroms) --  .25 
Filter Wheel #1 Position ---------- (1) Ground quartz diffuser (ND=2.32)
Filter Wheel #2 Position ---------- (1) Neutral Density 0.494



************************************************************
HS scan start time = 03:47:12
Dark Count =  .4 


Time (GMT)  Wavelength (Ang)  Step Number  Raw Counts  Counts/Second

  228.10        2950.00           2144        1745.00      7607.02
  228.30        2950.25           2147        1699.00      7406.40
  228.33        2950.50           2151        1689.00      7362.78
  228.36        2950.75           2155        1763.00      7685.53
  228.39        2951.00           2158        1730.00      7541.60
  228.42        2951.25           2162        1758.00      7663.72
  228.45        2951.50           2165        1778.00      7750.95
  228.48        2951.75           2169        1760.00      7672.45
  228.51        2952.00           2172        1773.00      7729.15
  228.54        2952.25           2176        1739.00      7580.85
  228.57        2952.50           2179        1799.00      7842.54
  228.60        2952.75           2183        1794.00      7820.74
  228.63        2953.00           2186        1780.00      7759.68
  228.66        2953.25           2190        1795.00      7825.10
  228.69        2953.50           2193        1765.00      7694.25
  228.72        2953.75           2197        1773.00      7729.15
  228.76        2954.00           2200        1842.00      8030.09
  228.79        2954.25           2204        1790.00      7803.29
  228.82        2954.50           2208        1851.00      8069.35
  228.85        2954.75           2211        1875.00      8174.02
  228.88        2955.00           2215        1827.00      7964.67
  228.91        2955.25           2218        1888.00      8230.72
  228.94        2955.50           2222        1861.00      8112.96
  228.97        2955.75           2225        1860.00      8108.60
  229.00        2956.00           2229        1847.00      8051.90
  229.03        2956.25           2232        1889.00      8235.09
  229.06        2956.50           2236        1900.00      8283.06
  229.09        2956.75           2239        1876.00      8178.39
  229.12        2957.00           2243        1922.00      8379.02
  229.15        2957.25           2246        1972.00      8597.11
  229.18        2957.50           2250        1990.00      8675.62
  229.21        2957.75           2254        1971.00      8592.75
  229.24        2958.00           2257        1994.00      8693.07
  229.27        2958.25           2261        1966.00      8570.94
  229.31        2958.50           2264        2018.00      8797.75
  229.34        2958.75           2268        1967.00      8575.30
  229.37        2959.00           2271        2004.00      8736.68
  229.40        2959.25           2275        1993.00      8688.70
  229.43        2959.50           2278        2018.00      8797.75
  229.46        2959.75           2282        2081.00      9072.55
  229.49        2960.00           2285        2075.00      9046.38
  229.52        2960.25           2289        2094.00      9129.25
  229.55        2960.50           2293        2102.00      9164.15
  229.58        2960.75           2296        2173.00      9473.85
  229.61        2961.00           2300        2326.00     10141.25
  229.64        2961.25           2303        3019.00     13164.57
  229.67        2961.50           2307        8653.00     37766.86
  229.70        2961.75           2310       18579.00     81211.74
  229.73        2962.00           2314       36483.00    159901.90
  229.76        2962.25           2317       52089.00    228838.10
  229.79        2962.50           2321       75117.00    331155.90
  229.83        2962.75           2324       93436.00    413064.90
  229.86        2963.00           2328      117465.00    521206.50
  229.89        2963.25           2331      134659.00    599082.60
  229.92        2963.50           2335      158727.00    708797.90
  229.95        2963.75           2339      183473.00    822474.60
  229.98        2964.00           2342      202233.00    909250.90
  230.01        2964.25           2346      227516.00   1027029.00
  230.04        2964.50           2349      244169.00   1105134.00
  230.07        2964.75           2353      265304.00   1204872.00
  230.10        2965.00           2356      283187.00   1289807.00
  230.13        2965.25           2360      305007.00   1394124.00
  230.16        2965.50           2363      322032.00   1476048.00
  230.19        2965.75           2367      344293.00   1583879.00
  230.22        2966.00           2370      360842.00   1664571.00
  230.25        2966.25           2374      380529.00   1761162.00
  230.28        2966.50           2378      394381.00   1829519.00
  230.31        2966.75           2381      397581.00   1845357.00
  230.35        2967.00           2385      399528.00   1855002.00
  230.38        2967.25           2388      399837.00   1856533.00
  230.41        2967.50           2392      400162.00   1858144.00
  230.44        2967.75           2395      397432.00   1844619.00
  230.47        2968.00           2399      393617.00   1825740.00
  230.50        2968.25           2402      383833.00   1777437.00
  230.53        2968.50           2406      365668.00   1688188.00
  230.56        2968.75           2409      350266.00   1612950.00
  230.59        2969.00           2413      328843.00   1508954.00
  230.62        2969.25           2417      305515.00   1396562.00
  230.65        2969.50           2420      289214.00   1318545.00
  230.68        2969.75           2424      267805.00   1216720.00
  230.71        2970.00           2427      249789.00   1131588.00
  230.74        2970.25           2431      226275.00   1021226.00
  230.77        2970.50           2434      208366.00    937733.00
  230.80        2970.75           2438      184196.00    825809.30
  230.83        2971.00           2441      165756.00    740996.80
  230.87        2971.25           2445      140678.00    626443.10
  230.90        2971.50           2449      115537.00    512499.90
  230.93        2971.75           2452       96787.00    428098.00
  230.96        2972.00           2456       73228.00    322735.60
  230.99        2972.25           2459       56710.00    249312.80
  231.02        2972.50           2463       34862.00    152760.00
  231.05        2972.75           2466       19566.00     85538.72
  231.08        2973.00           2470        5996.00     26159.26
  231.11        2973.25           2473        3039.00     13251.83
  231.14        2973.50           2477        2308.00     10062.73
  231.17        2973.75           2481        2123.00      9255.75
  231.20        2974.00           2484        2150.00      9373.52
  231.23        2974.25           2488        2130.00      9286.28
  231.26        2974.50           2491        2084.00      9085.63
  231.29        2974.75           2495        1989.00      8671.26
  231.32        2975.00           2498        2011.00      8767.22
  231.35        2975.25           2502        1993.00      8688.70
  231.39        2975.50           2505        1946.00      8483.70
  231.42        2975.75           2509        1923.00      8383.38
  231.45        2976.00           2512        1869.00      8147.85
  231.48        2976.25           2516        1940.00      8457.53
  231.51        2976.50           2520        1888.00      8230.72
  231.54        2976.75           2523        1875.00      8174.02
  231.57        2977.00           2527        1846.00      8047.54
  231.60        2977.25           2530        1813.00      7903.61
  231.63        2977.50           2534        1805.00      7868.71
  231.66        2977.75           2537        1787.00      7790.21
  231.69        2978.00           2541        1734.00      7559.05
  231.72        2978.25           2544        1780.00      7759.68
  231.75        2978.50           2548        1803.00      7859.99
  231.78        2978.75           2552        1798.00      7838.18
  231.81        2979.00           2555        1719.00      7493.63
  231.84        2979.25           2559        1757.00      7659.36
  231.87        2979.50           2562        1717.00      7484.90
  231.91        2979.75           2566        1627.00      7092.38
  231.94        2980.00           2569        1676.00      7306.09
  231.97        2980.25           2573        1733.00      7554.69
  232.00        2980.50           2577        1641.00      7153.44
  232.03        2980.75           2580        1668.00      7271.20
  232.06        2981.00           2584        1672.00      7288.64
  232.09        2981.25           2587        1650.00      7192.69
  232.12        2981.50           2591        1617.00      7048.77
  232.15        2981.75           2594        1659.00      7231.94
  232.18        2982.00           2598        1596.00      6957.18
  232.21        2982.25           2601        1605.00      6996.43
  232.24        2982.50           2605        1605.00      6996.43
  232.27        2982.75           2609        1597.00      6961.54
  232.30        2983.00           2612        1589.00      6926.65
  232.33        2983.25           2616        1594.00      6948.46
  232.36        2983.50           2619        1589.00      6926.65
  232.39        2983.75           2623        1588.00      6922.29
  232.42        2984.00           2626        1591.00      6935.38
HS scan finished at 03:52:39
end
************************************************************
  HS Scan of (1) Internal mercury lamp
************************************************************
Integration time is 0.2294 seconds per sample
dh080319Reading 51.44 .94 2.92pr1000
************************************************************
Dead Time -------------------------  3.4E-08 
Number of Cycles Used -------------  4 
Starting Wavelength (Angstroms) ---  2950 
Final Wavelength (Angstoms) -------  2984 
Wavelength Increment (Angstroms) --  .25 
Filter Wheel #1 Position ---------- (1) Ground quartz diffuser (ND=2.32)
Filter Wheel #2 Position ---------- (1) Neutral Density 0.494



************************************************************
HS scan start time = 18:37:23
Dark Count =  .6 


Time (GMT)  Wavelength (Ang)  Step Number  Raw Counts  Counts/Second

 1118.29        2950.00           2144        1610.00      7017.37
 1118.48        2950.25           2147        1621.00      7065.34
 1118.51        2950.50           2151        1643.00      7161.29
 1118.54        2950.75           2155        1645.00      7170.01
 1118.57        2951.00           2158        1626.00      7087.15
 1118.60        2951.25           2162        1664.00      7252.88
 1118.63        2951.50           2165        1612.00      7026.09
 1118.66        2951.75           2169        1626.00      7087.15
 1118.69        2952.00           2172        1640.00      7148.21
 1118.72        2952.25           2176        1649.00      7187.46
 1118.75        2952.50           2179        1667.00      7265.96
 1118.79        2952.75           2183        1686.00      7348.83
 1118.82        2953.00           2186        1675.00      7300.85
 1118.85        2953.25           2190        1635.00      7126.40
 1118.88        2953.50           2193        1662.00      7244.16
 1118.91        2953.75           2197        1646.00      7174.37
 1118.94        2954.00           2200        1706.00      7436.06
 1118.97        2954.25           2204        1712.00      7462.23
 1119.00        2954.50           2208        1675.00      7300.85
 1119.03        2954.75           2211        1709.00      7449.14
 1119.06        2955.00           2215        1709.00      7449.14
 1119.09        2955.25           2218        1699.00      7405.53
 1119.12        2955.50           2222        1762.00      7680.30
 1119.15        2955.75           2225        1728.00      7532.01
 1119.18        2956.00           2229        1707.00      7440.42
 1119.21        2956.25           2232        1807.00      7876.57
 1119.24        2956.50           2236        1792.00      7811.14
 1119.27        2956.75           2239        1800.00      7846.03
 1119.31        2957.00           2243        1820.00      7933.26
 1119.34        2957.25           2246        1835.00      7998.69
 1119.37        2957.50           2250        1826.00      7959.43
 1119.40        2957.75           2254        1812.00      7898.37
 1119.43        2958.00           2257        1850.00      8064.11
 1119.46        2958.25           2261        1870.00      8151.34
 1119.49        2958.50           2264        1921.00      8373.79
 1119.52        2958.75           2268        1882.00      8203.68
 1119.55        2959.00           2271        1889.00      8234.21
 1119.58        2959.25           2275        1918.00      8360.70
 1119.61        2959.50           2278        1971.00      8591.87
 1119.64        2959.75           2282        1994.00      8692.19
 1119.67        2960.00           2285        1996.00      8700.92
 1119.70        2960.25           2289        2037.00      8879.75
 1119.73        2960.50           2293        2046.00      8919.01
 1119.76        2960.75           2296        2103.00      9167.64
 1119.79        2961.00           2300        2220.00      9677.99
 1119.83        2961.25           2303        2535.00     11052.10
 1119.86        2961.50           2307        6236.00     27206.50
 1119.89        2961.75           2310       14800.00     64655.49
 1119.92        2962.00           2314       32659.00    143058.60
 1119.95        2962.25           2317       48862.00    214556.00
 1119.98        2962.50           2321       73592.00    324356.90
 1120.01        2962.75           2324       93242.00    412194.20
 1120.04        2963.00           2328      118200.00    524526.00
 1120.07        2963.25           2331      136015.00    605241.30
 1120.10        2963.50           2335      160786.00    718221.70
 1120.13        2963.75           2339      184798.00    828585.60
 1120.16        2964.00           2342      204640.00    920421.60
 1120.19        2964.25           2346      229914.00   1038250.00
 1120.22        2964.50           2349      247144.00   1119131.00
 1120.25        2964.75           2353      271402.00   1233777.00
 1120.28        2965.00           2356      289025.00   1317642.00
 1120.31        2965.25           2360      310726.00   1421591.00
 1120.34        2965.50           2363      326500.00   1497625.00
 1120.38        2965.75           2367      349443.00   1608940.00
 1120.41        2966.00           2370      366544.00   1692478.00
 1120.44        2966.25           2374      387508.00   1795560.00
 1120.47        2966.50           2378      403145.00   1872936.00
 1120.50        2966.75           2381      407926.00   1896679.00
 1120.53        2967.00           2385      410280.00   1908383.00
 1120.56        2967.25           2388      410698.00   1910462.00
 1120.59        2967.50           2392      411163.00   1912776.00
 1120.62        2967.75           2395      410280.00   1908383.00
 1120.65        2968.00           2399      406843.00   1891297.00
 1120.68        2968.25           2402      397132.00   1843133.00
 1120.71        2968.50           2406      377840.00   1747929.00
 1120.74        2968.75           2409      362526.00   1672807.00
 1120.77        2969.00           2413      342785.00   1576547.00
 1120.80        2969.25           2417      321348.00   1472747.00
 1120.83        2969.50           2420      304078.00   1389667.00
 1120.86        2969.75           2424      279637.00   1272905.00
 1120.90        2970.00           2427      260576.00   1182499.00
 1120.93        2970.25           2431      237064.00   1071758.00
 1120.96        2970.50           2434      219845.00    991192.40
 1120.99        2970.75           2438      195096.00    876175.80
 1121.02        2971.00           2441      175645.00    786417.50
 1121.05        2971.25           2445      148979.00    664260.50
 1121.08        2971.50           2449      122806.00    545351.80
 1121.11        2971.75           2452      104013.00    460566.60
 1121.14        2972.00           2456       78520.00    346335.90
 1121.17        2972.25           2459       60447.00    265890.70
 1121.20        2972.50           2463       36470.00    159843.70
 1121.23        2972.75           2466       20994.00     91800.48
 1121.26        2973.00           2470        7302.00     31862.75
 1121.29        2973.25           2473        3616.00     15768.70
 1121.32        2973.50           2477        2348.00     10236.34
 1121.35        2973.75           2481        2154.00      9390.10
 1121.38        2974.00           2484        2103.00      9167.64
 1121.42        2974.25           2488        2029.00      8844.86
 1121.45        2974.50           2491        2027.00      8836.13
 1121.48        2974.75           2495        2047.00      8923.37
 1121.51        2975.00           2498        1930.00      8413.04
 1121.54        2975.25           2502        1928.00      8404.32
 1121.57        2975.50           2505        1932.00      8421.77
 1121.60        2975.75           2509        1893.00      8251.66
 1121.63        2976.00           2512        1896.00      8264.75
 1121.66        2976.25           2516        1867.00      8138.26
 1121.69        2976.50           2520        1858.00      8099.00
 1121.72        2976.75           2523        1801.00      7850.40
 1121.75        2977.00           2527        1819.00      7928.90
 1121.78        2977.25           2530        1785.00      7780.61
 1121.81        2977.50           2534        1779.00      7754.44
 1121.84        2977.75           2537        1763.00      7684.66
 1121.87        2978.00           2541        1733.00      7553.82
 1121.90        2978.25           2544        1732.00      7549.45
 1121.94        2978.50           2548        1697.00      7396.80
 1121.97        2978.75           2552        1650.00      7191.82
 1122.00        2979.00           2555        1657.00      7222.35
 1122.03        2979.25           2559        1652.00      7200.54
 1122.06        2979.50           2562        1657.00      7222.35
 1122.09        2979.75           2566        1670.00      7279.05
 1122.12        2980.00           2569        1652.00      7200.54
 1122.15        2980.25           2573        1613.00      7030.45
 1122.18        2980.50           2577        1599.00      6969.39
 1122.21        2980.75           2580        1608.00      7008.65
 1122.24        2981.00           2584        1611.00      7021.73
 1122.27        2981.25           2587        1570.00      6842.92
 1122.30        2981.50           2591        1586.00      6912.70
 1122.33        2981.75           2594        1580.00      6886.53
 1122.36        2982.00           2598        1555.00      6777.50
 1122.39        2982.25           2601        1578.00      6877.81
 1122.42        2982.50           2605        1573.00      6856.00
 1122.45        2982.75           2609        1557.00      6786.22
 1122.49        2983.00           2612        1592.00      6938.86
 1122.52        2983.25           2616        1532.00      6677.19
 1122.55        2983.50           2619        1513.00      6594.33
 1122.58        2983.75           2623        1537.00      6699.00
 1122.61        2984.00           2626        1544.00      6729.53
HS scan finished at 18:42:50
end
