************************************************************
  HS Scan of 
************************************************************
Integration time is 0.2294 seconds per sample
dh090317Reading 51.44 .94 3.09pr1000
************************************************************
Dead Time -------------------------  3.4E-08 
Number of Cycles Used -------------  4 
Starting Wavelength (Angstroms) ---  2950 
Final Wavelength (Angstoms) -------  2984 
Wavelength Increment (Angstroms) --  .25 
Filter Wheel #1 Position ---------- (1) Ground quartz diffuser (ND=2.32)
Filter Wheel #2 Position ---------- (1) Neutral Density 0.494



************************************************************
HS scan start time = 03:42:57
Dark Count =  1.2 


Time (GMT)  Wavelength (Ang)  Step Number  Raw Counts  Counts/Second

  223.84        2950.00           2144         906.00      3944.73
  224.04        2950.25           2147         891.00      3879.33
  224.07        2950.50           2151         906.00      3944.73
  224.10        2950.75           2155         915.00      3983.97
  224.13        2951.00           2158         915.00      3983.97
  224.16        2951.25           2162         938.00      4084.26
  224.19        2951.50           2165         971.00      4228.16
  224.22        2951.75           2169         921.00      4010.14
  224.25        2952.00           2172         940.00      4092.98
  224.28        2952.25           2176         898.00      3909.85
  224.31        2952.50           2179         931.00      4053.74
  224.34        2952.75           2183         953.00      4149.67
  224.37        2953.00           2186         954.00      4154.03
  224.40        2953.25           2190         967.00      4210.72
  224.43        2953.50           2193         911.00      3966.53
  224.46        2953.75           2197         951.00      4140.95
  224.49        2954.00           2200         975.00      4245.60
  224.52        2954.25           2204         969.00      4219.44
  224.56        2954.50           2208        1015.00      4420.02
  224.59        2954.75           2211         970.00      4223.80
  224.62        2955.00           2215         978.00      4258.68
  224.65        2955.25           2218         978.00      4258.68
  224.68        2955.50           2222         976.00      4249.96
  224.71        2955.75           2225         962.00      4188.91
  224.74        2956.00           2229        1017.00      4428.74
  224.77        2956.25           2232         991.00      4315.37
  224.80        2956.50           2236        1050.00      4572.64
  224.83        2956.75           2239        1007.00      4385.14
  224.86        2957.00           2243        1036.00      4511.59
  224.89        2957.25           2246        1052.00      4581.36
  224.92        2957.50           2250        1081.00      4707.82
  224.95        2957.75           2254        1071.00      4664.21
  224.98        2958.00           2257        1056.00      4598.80
  225.01        2958.25           2261        1081.00      4707.82
  225.04        2958.50           2264        1088.00      4738.34
  225.07        2958.75           2268        1109.00      4829.91
  225.11        2959.00           2271        1097.00      4777.59
  225.14        2959.25           2275        1124.00      4895.32
  225.17        2959.50           2278        1154.00      5026.14
  225.20        2959.75           2282        1153.00      5021.78
  225.23        2960.00           2285        1202.00      5235.46
  225.26        2960.25           2289        1240.00      5401.17
  225.29        2960.50           2293        1289.00      5614.85
  225.32        2960.75           2296        1250.00      5444.77
  225.35        2961.00           2300        1369.00      5963.72
  225.38        2961.25           2303        1746.00      7607.90
  225.41        2961.50           2307        5467.00     23845.83
  225.44        2961.75           2310       13363.00     58362.42
  225.47        2962.00           2314       27399.00    119920.40
  225.50        2962.25           2317       38881.00    170469.90
  225.53        2962.50           2321       53530.00    235216.30
  225.56        2962.75           2324       65260.00    287268.20
  225.60        2963.00           2328       82655.00    364801.10
  225.63        2963.25           2331       97002.00    429059.40
  225.66        2963.50           2335      113785.00    504589.00
  225.69        2963.75           2339      129109.00    573896.00
  225.72        2964.00           2342      140820.00    627085.50
  225.75        2964.25           2346      157898.00    705001.40
  225.78        2964.50           2349      170056.00    760726.30
  225.81        2964.75           2353      186615.00    836968.40
  225.84        2965.00           2356      198234.00    890705.80
  225.87        2965.25           2360      213043.00    959487.30
  225.90        2965.50           2363      223828.00   1009786.00
  225.93        2965.75           2367      239457.00   1082987.00
  225.96        2966.00           2370      250594.00   1135377.00
  225.99        2966.25           2374      265658.00   1206545.00
  226.02        2966.50           2378      276366.00   1257348.00
  226.05        2966.75           2381      279895.00   1274130.00
  226.08        2967.00           2385      280739.00   1278147.00
  226.11        2967.25           2388      281223.00   1280451.00
  226.15        2967.50           2392      280580.00   1277390.00
  226.18        2967.75           2395      280853.00   1278689.00
  226.21        2968.00           2399      277827.00   1264293.00
  226.24        2968.25           2402      271088.00   1232284.00
  226.27        2968.50           2406      256305.00   1162317.00
  226.30        2968.75           2409      244567.00   1107002.00
  226.33        2969.00           2413      229059.00   1034245.00
  226.36        2969.25           2417      215377.00    970357.60
  226.39        2969.50           2420      204802.00    921171.00
  226.42        2969.75           2424      187175.00    839553.80
  226.45        2970.00           2427      173702.00    777479.10
  226.48        2970.25           2431      155636.00    694657.30
  226.51        2970.50           2434      142718.00    635724.30
  226.54        2970.75           2438      126149.00    560483.00
  226.57        2971.00           2441      112771.00    500014.60
  226.60        2971.25           2445       95388.00    421816.40
  226.63        2971.50           2449       78462.00    346074.40
  226.67        2971.75           2452       65679.00    289130.90
  226.70        2972.00           2456       48971.00    215035.50
  226.73        2972.25           2459       36892.00    161700.90
  226.76        2972.50           2463       21648.00     94666.91
  226.79        2972.75           2466       12315.00     53776.53
  226.82        2973.00           2470        4183.00     18240.60
  226.85        2973.25           2473        2040.00      8890.22
  226.88        2973.50           2477        1453.00      6330.05
  226.91        2973.75           2481        1313.00      5719.51
  226.94        2974.00           2484        1292.00      5627.93
  226.97        2974.25           2488        1256.00      5470.94
  227.00        2974.50           2491        1244.00      5418.61
  227.03        2974.75           2495        1202.00      5235.46
  227.06        2975.00           2498        1181.00      5143.88
  227.09        2975.25           2502        1164.00      5069.75
  227.12        2975.50           2505        1157.00      5039.22
  227.15        2975.75           2509        1127.00      4908.40
  227.19        2976.00           2512        1123.00      4890.96
  227.22        2976.25           2516        1102.00      4799.39
  227.25        2976.50           2520        1092.00      4755.78
  227.28        2976.75           2523        1097.00      4777.59
  227.31        2977.00           2527        1085.00      4725.26
  227.34        2977.25           2530        1055.00      4594.44
  227.37        2977.50           2534        1057.00      4603.16
  227.40        2977.75           2537        1016.00      4424.38
  227.43        2978.00           2541        1040.00      4529.03
  227.46        2978.25           2544        1008.00      4389.50
  227.49        2978.50           2548        1019.00      4437.46
  227.52        2978.75           2552         986.00      4293.57
  227.55        2979.00           2555        1004.00      4372.05
  227.58        2979.25           2559         974.00      4241.24
  227.61        2979.50           2562         972.00      4232.52
  227.64        2979.75           2566         966.00      4206.36
  227.67        2980.00           2569         967.00      4210.72
  227.71        2980.25           2573         967.00      4210.72
  227.74        2980.50           2577         970.00      4223.80
  227.77        2980.75           2580         946.00      4119.15
  227.80        2981.00           2584         936.00      4075.54
  227.83        2981.25           2587         942.00      4101.71
  227.86        2981.50           2591         948.00      4127.87
  227.89        2981.75           2594         922.00      4014.50
  227.92        2982.00           2598         909.00      3957.81
  227.95        2982.25           2601         931.00      4053.74
  227.98        2982.50           2605         893.00      3888.05
  228.01        2982.75           2609         918.00      3997.06
  228.04        2983.00           2612         908.00      3953.45
  228.07        2983.25           2616         900.00      3918.57
  228.10        2983.50           2619         900.00      3918.57
  228.13        2983.75           2623         886.00      3857.52
  228.16        2984.00           2626         907.00      3949.09
HS scan finished at 03:48:23
end
************************************************************
  HS Scan of 
************************************************************
Integration time is 0.2294 seconds per sample
dh090317Reading 51.44 .94 3.29pr1000
************************************************************
Dead Time -------------------------  3.4E-08 
Number of Cycles Used -------------  4 
Starting Wavelength (Angstroms) ---  2950 
Final Wavelength (Angstoms) -------  2984 
Wavelength Increment (Angstroms) --  .25 
Filter Wheel #1 Position ---------- (1) Ground quartz diffuser (ND=2.32)
Filter Wheel #2 Position ---------- (1) Neutral Density 0.494



************************************************************
HS scan start time = 19:07:24
Dark Count =  2.4 


Time (GMT)  Wavelength (Ang)  Step Number  Raw Counts  Counts/Second

 1148.31        2950.00           2144         800.00      3477.31
 1148.50        2950.25           2147         801.00      3481.67
 1148.53        2950.50           2151         768.00      3337.78
 1148.56        2950.75           2155         795.00      3455.51
 1148.59        2951.00           2158         807.00      3507.83
 1148.62        2951.25           2162         778.00      3381.38
 1148.65        2951.50           2165         774.00      3363.94
 1148.68        2951.75           2169         815.00      3542.71
 1148.71        2952.00           2172         806.00      3503.47
 1148.74        2952.25           2176         792.00      3442.43
 1148.77        2952.50           2179         784.00      3407.54
 1148.81        2952.75           2183         800.00      3477.31
 1148.84        2953.00           2186         813.00      3533.99
 1148.87        2953.25           2190         818.00      3555.79
 1148.90        2953.50           2193         823.00      3577.59
 1148.93        2953.75           2197         849.00      3690.96
 1148.96        2954.00           2200         823.00      3577.59
 1148.99        2954.25           2204         862.00      3747.64
 1149.02        2954.50           2208         838.00      3643.00
 1149.05        2954.75           2211         849.00      3690.96
 1149.08        2955.00           2215         838.00      3643.00
 1149.11        2955.25           2218         872.00      3791.25
 1149.14        2955.50           2222         899.00      3908.98
 1149.17        2955.75           2225         846.00      3677.88
 1149.20        2956.00           2229         870.00      3782.53
 1149.23        2956.25           2232         883.00      3839.21
 1149.26        2956.50           2236         866.00      3765.09
 1149.29        2956.75           2239         876.00      3808.69
 1149.33        2957.00           2243         899.00      3908.98
 1149.36        2957.25           2246         896.00      3895.90
 1149.39        2957.50           2250         879.00      3821.77
 1149.42        2957.75           2254         897.00      3900.26
 1149.45        2958.00           2257         891.00      3874.09
 1149.48        2958.25           2261         913.00      3970.02
 1149.51        2958.50           2264         905.00      3935.14
 1149.54        2958.75           2268         949.00      4127.00
 1149.57        2959.00           2271         917.00      3987.46
 1149.60        2959.25           2275         968.00      4209.84
 1149.63        2959.50           2278         941.00      4092.11
 1149.66        2959.75           2282         990.00      4305.77
 1149.69        2960.00           2285        1019.00      4432.23
 1149.72        2960.25           2289        1064.00      4628.45
 1149.75        2960.50           2293        1062.00      4619.73
 1149.78        2960.75           2296        1071.00      4658.98
 1149.81        2961.00           2300        1181.00      5138.65
 1149.85        2961.25           2303        1696.00      7384.59
 1149.88        2961.50           2307        6254.00     27277.25
 1149.91        2961.75           2310       12751.00     55678.98
 1149.94        2962.00           2314       24343.00    106490.40
 1149.97        2962.25           2317       33219.00    145515.90
 1150.00        2962.50           2321       45995.00    201871.70
 1150.03        2962.75           2324       55450.00    243718.30
 1150.06        2963.00           2328       68190.00    300293.60
 1150.09        2963.25           2331       78591.00    346644.80
 1150.12        2963.50           2335       92706.00    409783.10
 1150.15        2963.75           2339      105159.00    465714.70
 1150.18        2964.00           2342      114731.00    508852.70
 1150.21        2964.25           2346      128142.00    569507.30
 1150.24        2964.50           2349      137866.00    613645.10
 1150.27        2964.75           2353      150047.00    669125.00
 1150.30        2965.00           2356      160229.00    715663.20
 1150.33        2965.25           2360      171627.00    767936.80
 1150.37        2965.50           2363      179855.00    805789.50
 1150.40        2965.75           2367      192459.00    863966.10
 1150.43        2966.00           2370      201916.00    907771.00
 1150.46        2966.25           2374      213441.00    961334.80
 1150.49        2966.50           2378      220205.00    992863.80
 1150.52        2966.75           2381      221550.00    999141.40
 1150.55        2967.00           2385      222531.00   1003722.00
 1150.58        2967.25           2388      222312.00   1002699.00
 1150.61        2967.50           2392      222512.00   1003633.00
 1150.64        2967.75           2395      222115.00   1001779.00
 1150.67        2968.00           2399      218817.00    986388.20
 1150.70        2968.25           2402      212122.00    955194.50
 1150.73        2968.50           2406      200871.00    902924.10
 1150.76        2968.75           2409      191321.00    858703.80
 1150.79        2969.00           2413      178810.00    800976.50
 1150.82        2969.25           2417      168205.00    752223.10
 1150.85        2969.50           2420      158711.00    708715.60
 1150.88        2969.75           2424      144328.00    643050.80
 1150.92        2970.00           2427      133260.00    592721.60
 1150.95        2970.25           2431      120051.00    532883.50
 1150.98        2970.50           2434      110433.00    489467.10
 1151.01        2970.75           2438       97099.00    429489.50
 1151.04        2971.00           2441       87709.00    387399.60
 1151.07        2971.25           2445       73694.00    324803.50
 1151.10        2971.50           2449       59818.00    263090.90
 1151.13        2971.75           2452       48955.00    214959.40
 1151.16        2972.00           2456       36611.00    160457.10
 1151.19        2972.25           2459       27749.00    121453.40
 1151.22        2972.50           2463       15327.00     66955.21
 1151.25        2972.75           2466        7483.00     32645.63
 1151.28        2973.00           2470        2438.00     10621.10
 1151.31        2973.25           2473        1453.00      6324.81
 1151.34        2973.50           2477        1175.00      5112.48
 1151.37        2973.75           2481        1099.00      4781.07
 1151.40        2974.00           2484        1069.00      4650.26
 1151.44        2974.25           2488        1026.00      4462.75
 1151.47        2974.50           2491        1033.00      4493.28
 1151.50        2974.75           2495        1027.00      4467.11
 1151.53        2975.00           2498         993.00      4318.86
 1151.56        2975.25           2502        1002.00      4358.10
 1151.59        2975.50           2505         962.00      4183.68
 1151.62        2975.75           2509         918.00      3991.82
 1151.65        2976.00           2512         954.00      4148.80
 1151.68        2976.25           2516         918.00      3991.82
 1151.71        2976.50           2520         922.00      4009.27
 1151.74        2976.75           2523         892.00      3878.45
 1151.77        2977.00           2527         880.00      3826.13
 1151.80        2977.25           2530         905.00      3935.14
 1151.83        2977.50           2534         854.00      3712.76
 1151.86        2977.75           2537         854.00      3712.76
 1151.89        2978.00           2541         890.00      3869.73
 1151.92        2978.25           2544         868.00      3773.81
 1151.96        2978.50           2548         839.00      3647.36
 1151.99        2978.75           2552         851.00      3699.68
 1152.02        2979.00           2555         851.00      3699.68
 1152.05        2979.25           2559         867.00      3769.45
 1152.08        2979.50           2562         844.00      3669.16
 1152.11        2979.75           2566         833.00      3621.20
 1152.14        2980.00           2569         819.00      3560.15
 1152.17        2980.25           2573         810.00      3520.91
 1152.20        2980.50           2577         789.00      3429.34
 1152.23        2980.75           2580         801.00      3481.67
 1152.26        2981.00           2584         767.00      3333.42
 1152.29        2981.25           2587         801.00      3481.67
 1152.32        2981.50           2591         785.00      3411.90
 1152.35        2981.75           2594         769.00      3342.14
 1152.38        2982.00           2598         809.00      3516.55
 1152.43        2982.25           2601         790.00      3433.70
 1152.46        2982.50           2605         779.00      3385.74
 1152.49        2982.75           2609         789.00      3429.34
 1152.52        2983.00           2612         772.00      3355.22
 1152.55        2983.25           2616         757.00      3289.82
 1152.58        2983.50           2619         765.00      3324.70
 1152.61        2983.75           2623         758.00      3294.18
 1152.64        2984.00           2626         766.00      3329.06
HS scan finished at 19:12:52
end
