************************************************************
  HS Scan of 
************************************************************
Integration time is 0.2294 seconds per sample
dh040317Reading 51.44 .94 2.82pr1000
************************************************************
Dead Time -------------------------  3.4E-08 
Number of Cycles Used -------------  4 
Starting Wavelength (Angstroms) ---  2950 
Final Wavelength (Angstoms) -------  2984 
Wavelength Increment (Angstroms) --  .25 
Filter Wheel #1 Position ---------- (1) Ground quartz diffuser (ND=2.32)
Filter Wheel #2 Position ---------- (1) Neutral Density 0.494



************************************************************
HS scan start time = 03:56:48
Dark Count =  .4 


Time (GMT)  Wavelength (Ang)  Step Number  Raw Counts  Counts/Second

  237.69        2950.00           2144         877.00      3821.77
  237.88        2950.25           2147         914.00      3983.10
  237.91        2950.50           2151         922.00      4017.99
  237.94        2950.75           2155         940.00      4096.47
  237.98        2951.00           2158         920.00      4009.27
  238.01        2951.25           2162         908.00      3956.94
  238.04        2951.50           2165         944.00      4113.91
  238.07        2951.75           2169         911.00      3970.02
  238.10        2952.00           2172         935.00      4074.67
  238.13        2952.25           2176         934.00      4070.31
  238.16        2952.50           2179         954.00      4157.52
  238.19        2952.75           2183         975.00      4249.09
  238.22        2953.00           2186         953.00      4153.16
  238.25        2953.25           2190         941.00      4100.83
  238.28        2953.50           2193         992.00      4323.22
  238.31        2953.75           2197         958.00      4174.96
  238.34        2954.00           2200         969.00      4222.93
  238.37        2954.25           2204         973.00      4240.37
  238.40        2954.50           2208         975.00      4249.09
  238.43        2954.75           2211         966.00      4209.84
  238.46        2955.00           2215         995.00      4336.30
  238.50        2955.25           2218         985.00      4292.69
  238.53        2955.50           2222        1006.00      4384.26
  238.56        2955.75           2225        1037.00      4519.44
  238.59        2956.00           2229         989.00      4310.13
  238.62        2956.25           2232        1017.00      4432.23
  238.65        2956.50           2236        1000.00      4358.10
  238.68        2956.75           2239        1036.00      4515.08
  238.71        2957.00           2243        1068.00      4654.62
  238.74        2957.25           2246        1024.00      4462.75
  238.77        2957.50           2250        1034.00      4506.36
  238.80        2957.75           2254        1093.00      4763.63
  238.83        2958.00           2257        1042.00      4541.24
  238.86        2958.25           2261        1076.00      4689.50
  238.89        2958.50           2264        1106.00      4820.32
  238.92        2958.75           2268        1117.00      4868.29
  238.95        2959.00           2271        1108.00      4829.04
  238.98        2959.25           2275        1138.00      4959.86
  239.02        2959.50           2278        1109.00      4833.40
  239.05        2959.75           2282        1151.00      5016.55
  239.08        2960.00           2285        1181.00      5147.37
  239.11        2960.25           2289        1195.00      5208.42
  239.14        2960.50           2293        1228.00      5352.33
  239.17        2960.75           2296        1241.00      5409.02
  239.20        2961.00           2300        1285.00      5600.89
  239.23        2961.25           2303        1558.00      6791.45
  239.26        2961.50           2307        4380.00     19103.95
  239.29        2961.75           2310       11019.00     48110.89
  239.32        2962.00           2314       23237.00    101643.60
  239.35        2962.25           2317       32679.00    143147.50
  239.38        2962.50           2321       45829.00    201146.90
  239.41        2962.75           2324       56601.00    248829.50
  239.44        2963.00           2328       71813.00    316431.50
  239.47        2963.25           2331       84475.00    372940.60
  239.50        2963.50           2335      100397.00    444310.20
  239.54        2963.75           2339      115494.00    512305.80
  239.57        2964.00           2342      126528.00    562203.30
  239.60        2964.25           2346      142051.00    632691.50
  239.63        2964.50           2349      152886.00    682095.20
  239.66        2964.75           2353      167428.00    748666.60
  239.69        2965.00           2356      178078.00    797615.30
  239.72        2965.25           2360      192008.00    861889.60
  239.75        2965.50           2363      201830.00    907381.40
  239.78        2965.75           2367      215689.00    971815.10
  239.81        2966.00           2370      225413.00   1017196.00
  239.84        2966.25           2374      237953.00   1075931.00
  239.87        2966.50           2378      250683.00   1135801.00
  239.90        2966.75           2381      254100.00   1151913.00
  239.93        2967.00           2385      255596.00   1158973.00
  239.96        2967.25           2388      255491.00   1158478.00
  239.99        2967.50           2392      255328.00   1157708.00
  240.02        2967.75           2395      256173.00   1161697.00
  240.06        2968.00           2399      253443.00   1148814.00
  240.09        2968.25           2402      247308.00   1119903.00
  240.12        2968.50           2406      234361.00   1059082.00
  240.15        2968.75           2409      224534.00   1013088.00
  240.18        2969.00           2413      210825.00    949168.40
  240.21        2969.25           2417      195770.00    879296.90
  240.24        2969.50           2420      185215.00    830510.50
  240.27        2969.75           2424      170992.00    765028.80
  240.30        2970.00           2427      160093.00    715049.80
  240.33        2970.25           2431      145142.00    646768.30
  240.36        2970.50           2434      133118.00    592086.00
  240.39        2970.75           2438      116723.00    517855.10
  240.42        2971.00           2441      104684.00    463586.30
  240.45        2971.25           2445       90107.00    398145.90
  240.48        2971.50           2449       74570.00    328717.10
  240.51        2971.75           2452       61972.00    272662.50
  240.54        2972.00           2456       45849.00    201235.30
  240.57        2972.25           2459       35240.00    154425.10
  240.61        2972.50           2463       21927.00     95894.54
  240.64        2972.75           2466       13132.00     57354.98
  240.67        2973.00           2470        4235.00     18471.06
  240.70        2973.25           2473        1952.00      8509.87
  240.73        2973.50           2477        1380.00      6015.18
  240.76        2973.75           2481        1252.00      5456.99
  240.79        2974.00           2484        1260.00      5491.87
  240.82        2974.25           2488        1228.00      5352.33
  240.85        2974.50           2491        1188.00      5177.90
  240.88        2974.75           2495        1179.00      5138.65
  240.91        2975.00           2498        1153.00      5025.27
  240.94        2975.25           2502        1180.00      5143.01
  240.97        2975.50           2505        1146.00      4994.75
  241.00        2975.75           2509        1099.00      4789.79
  241.03        2976.00           2512        1116.00      4863.93
  241.06        2976.25           2516        1080.00      4706.94
  241.09        2976.50           2520        1070.00      4663.34
  241.13        2976.75           2523        1052.00      4584.85
  241.16        2977.00           2527        1054.00      4593.57
  241.19        2977.25           2530        1034.00      4506.36
  241.22        2977.50           2534        1057.00      4606.65
  241.25        2977.75           2537        1028.00      4480.19
  241.28        2978.00           2541        1017.00      4432.23
  241.31        2978.25           2544        1022.00      4454.03
  241.34        2978.50           2548        1006.00      4384.26
  241.37        2978.75           2552         984.00      4288.33
  241.40        2979.00           2555         950.00      4140.08
  241.43        2979.25           2559         989.00      4310.13
  241.46        2979.50           2562         980.00      4270.89
  241.49        2979.75           2566         958.00      4174.96
  241.52        2980.00           2569         969.00      4222.93
  241.55        2980.25           2573         948.00      4131.36
  241.58        2980.50           2577         937.00      4083.39
  241.61        2980.75           2580         958.00      4174.96
  241.65        2981.00           2584         919.00      4004.90
  241.68        2981.25           2587         931.00      4057.23
  241.71        2981.50           2591         914.00      3983.10
  241.74        2981.75           2594         924.00      4026.71
  241.77        2982.00           2598         921.00      4013.63
  241.80        2982.25           2601         887.00      3865.37
  241.83        2982.50           2605         920.00      4009.27
  241.86        2982.75           2609         895.00      3900.26
  241.89        2983.00           2612         910.00      3965.66
  241.92        2983.25           2616         918.00      4000.54
  241.95        2983.50           2619         876.00      3817.41
  241.98        2983.75           2623         888.00      3869.73
  242.01        2984.00           2626         892.00      3887.17
HS scan finished at 04:02:14
end
************************************************************
  HS Scan of 
************************************************************
Integration time is 0.2294 seconds per sample
dh040317Reading 51.44 .94 2.88pr1000
************************************************************
Dead Time -------------------------  3.4E-08 
Number of Cycles Used -------------  4 
Starting Wavelength (Angstroms) ---  2950 
Final Wavelength (Angstoms) -------  2984 
Wavelength Increment (Angstroms) --  .25 
Filter Wheel #1 Position ---------- (1) Ground quartz diffuser (ND=2.32)
Filter Wheel #2 Position ---------- (1) Neutral Density 0.494



************************************************************
HS scan start time = 18:37:25
Dark Count =  1 


Time (GMT)  Wavelength (Ang)  Step Number  Raw Counts  Counts/Second

 1118.31        2950.00           2144         812.00      3535.73
 1118.50        2950.25           2147         819.00      3566.26
 1118.53        2950.50           2151         782.00      3404.93
 1118.56        2950.75           2155         804.00      3500.85
 1118.59        2951.00           2158         811.00      3531.37
 1118.63        2951.25           2162         771.00      3356.97
 1118.66        2951.50           2165         796.00      3465.97
 1118.69        2951.75           2169         834.00      3631.66
 1118.72        2952.00           2172         804.00      3500.85
 1118.75        2952.25           2176         811.00      3531.37
 1118.78        2952.50           2179         813.00      3540.10
 1118.81        2952.75           2183         810.00      3527.01
 1118.84        2953.00           2186         813.00      3540.10
 1118.87        2953.25           2190         845.00      3679.62
 1118.90        2953.50           2193         834.00      3631.66
 1118.93        2953.75           2197         835.00      3636.02
 1118.96        2954.00           2200         801.00      3487.77
 1118.99        2954.25           2204         829.00      3609.86
 1119.02        2954.50           2208         814.00      3544.46
 1119.05        2954.75           2211         853.00      3714.51
 1119.08        2955.00           2215         836.00      3640.38
 1119.11        2955.25           2218         828.00      3605.50
 1119.15        2955.50           2222         854.00      3718.87
 1119.18        2955.75           2225         886.00      3858.40
 1119.21        2956.00           2229         879.00      3827.87
 1119.24        2956.25           2232         892.00      3884.56
 1119.27        2956.50           2236         853.00      3714.51
 1119.30        2956.75           2239         906.00      3945.60
 1119.33        2957.00           2243         878.00      3823.51
 1119.36        2957.25           2246         877.00      3819.15
 1119.39        2957.50           2250         911.00      3967.41
 1119.42        2957.75           2254         915.00      3984.85
 1119.45        2958.00           2257         887.00      3862.76
 1119.48        2958.25           2261         949.00      4133.10
 1119.51        2958.50           2264         929.00      4045.89
 1119.54        2958.75           2268         931.00      4054.61
 1119.57        2959.00           2271         912.00      3971.77
 1119.60        2959.25           2275         938.00      4085.14
 1119.64        2959.50           2278         935.00      4072.05
 1119.67        2959.75           2282         987.00      4298.80
 1119.70        2960.00           2285         965.00      4202.87
 1119.73        2960.25           2289        1011.00      4403.45
 1119.76        2960.50           2293        1026.00      4468.86
 1119.79        2960.75           2296        1046.00      4556.07
 1119.82        2961.00           2300        1063.00      4630.20
 1119.85        2961.25           2303        1249.00      5441.29
 1119.88        2961.50           2307        3011.00     13127.04
 1119.91        2961.75           2310        7254.00     31651.31
 1119.94        2962.00           2314       15665.00     68441.56
 1119.97        2962.25           2317       23907.00    104582.20
 1120.00        2962.50           2321       35155.00    154048.00
 1120.03        2962.75           2324       43433.00    190559.30
 1120.06        2963.00           2328       54192.00    238149.80
 1120.09        2963.25           2331       62417.00    274636.30
 1120.12        2963.50           2335       73134.00    322314.10
 1120.15        2963.75           2339       84828.00    374516.40
 1120.19        2964.00           2342       93849.00    414914.20
 1120.22        2964.25           2346      105280.00    466265.40
 1120.25        2964.50           2349      113714.00    504269.60
 1120.28        2964.75           2353      124503.00    553030.40
 1120.31        2965.00           2356      132335.00    588529.60
 1120.34        2965.25           2360      142926.00    636672.30
 1120.37        2965.50           2363      151351.00    675083.30
 1120.40        2965.75           2367      162498.00    726060.80
 1120.43        2966.00           2370      170153.00    761172.60
 1120.46        2966.25           2374      179842.00    805736.10
 1120.49        2966.50           2378      186826.00    837943.40
 1120.52        2966.75           2381      189195.00    848884.40
 1120.55        2967.00           2385      189989.00    852553.40
 1120.58        2967.25           2388      190437.00    854623.90
 1120.61        2967.50           2392      190206.00    853556.20
 1120.64        2967.75           2395      190217.00    853607.10
 1120.68        2968.00           2399      188447.00    845429.00
 1120.71        2968.25           2402      183099.00    820747.10
 1120.74        2968.50           2406      174685.00    782000.00
 1120.77        2968.75           2409      167598.00    749443.90
 1120.80        2969.00           2413      157470.00    703044.60
 1120.83        2969.25           2417      146381.00    652411.90
 1120.86        2969.50           2420      137746.00    613106.00
 1120.89        2969.75           2424      127140.00    564973.10
 1120.92        2970.00           2427      118896.00    527669.20
 1120.95        2970.25           2431      108150.00    479186.80
 1120.98        2970.50           2434       99851.00    441854.30
 1121.01        2970.75           2438       89024.00    393293.00
 1121.04        2971.00           2441       80439.00    354901.90
 1121.07        2971.25           2445       68272.00    300664.70
 1121.10        2971.50           2449       56369.00    247798.30
 1121.13        2971.75           2452       48166.00    211475.90
 1121.16        2972.00           2456       36748.00    161067.10
 1121.19        2972.25           2459       28686.00    125578.60
 1121.23        2972.50           2463       18067.00     78965.00
 1121.26        2972.75           2466       10671.00     46586.38
 1121.29        2973.00           2470        3394.00     14798.20
 1121.32        2973.25           2473        1537.00      6697.25
 1121.35        2973.50           2477        1121.00      4883.11
 1121.38        2973.75           2481        1045.00      4551.71
 1121.41        2974.00           2484        1035.00      4508.10
 1121.44        2974.25           2488         980.00      4268.27
 1121.47        2974.50           2491         996.00      4338.04
 1121.50        2974.75           2495         990.00      4311.88
 1121.53        2975.00           2498         954.00      4154.90
 1121.56        2975.25           2502         955.00      4159.26
 1121.59        2975.50           2505         932.00      4058.97
 1121.62        2975.75           2509         904.00      3936.88
 1121.65        2976.00           2512         928.00      4041.53
 1121.68        2976.25           2516         918.00      3997.93
 1121.71        2976.50           2520         901.00      3923.80
 1121.75        2976.75           2523         903.00      3932.52
 1121.78        2977.00           2527         884.00      3849.68
 1121.81        2977.25           2530         867.00      3775.55
 1121.84        2977.50           2534         898.00      3910.72
 1121.87        2977.75           2537         854.00      3718.87
 1121.90        2978.00           2541         848.00      3692.70
 1121.93        2978.25           2544         830.00      3614.22
 1121.96        2978.50           2548         842.00      3666.54
 1121.99        2978.75           2552         834.00      3631.66
 1122.02        2979.00           2555         830.00      3614.22
 1122.05        2979.25           2559         823.00      3583.70
 1122.08        2979.50           2562         833.00      3627.30
 1122.11        2979.75           2566         821.00      3574.98
 1122.14        2980.00           2569         798.00      3474.69
 1122.17        2980.25           2573         799.00      3479.05
 1122.20        2980.50           2577         808.00      3518.29
 1122.23        2980.75           2580         806.00      3509.57
 1122.27        2981.00           2584         819.00      3566.26
 1122.30        2981.25           2587         807.00      3513.93
 1122.33        2981.50           2591         795.00      3461.61
 1122.36        2981.75           2594         766.00      3335.16
 1122.39        2982.00           2598         761.00      3313.36
 1122.42        2982.25           2601         765.00      3330.80
 1122.45        2982.50           2605         792.00      3448.53
 1122.48        2982.75           2609         777.00      3383.13
 1122.51        2983.00           2612         764.00      3326.44
 1122.54        2983.25           2616         761.00      3313.36
 1122.57        2983.50           2619         757.00      3295.92
 1122.60        2983.75           2623         763.00      3322.08
 1122.63        2984.00           2626         748.00      3256.68
HS scan finished at 18:42:51
end
