************************************************************
  HS Scan of (1) Internal mercury lamp
************************************************************
Integration time is 0.2294 seconds per sample
dh070319Reading 51.44 .94 2.78pr1000
************************************************************
Dead Time -------------------------  3.4E-08 
Number of Cycles Used -------------  4 
Starting Wavelength (Angstroms) ---  2950 
Final Wavelength (Angstoms) -------  2984 
Wavelength Increment (Angstroms) --  .25 
Filter Wheel #1 Position ---------- (1) Ground quartz diffuser (ND=2.32)
Filter Wheel #2 Position ---------- (1) Neutral Density 0.494



************************************************************
HS scan start time = 03:49:58
Dark Count =  .6 


Time (GMT)  Wavelength (Ang)  Step Number  Raw Counts  Counts/Second

  230.86        2950.00           2144        1645.00      7170.01
  231.06        2950.25           2147        1599.00      6969.39
  231.09        2950.50           2151        1608.00      7008.65
  231.12        2950.75           2155        1675.00      7300.85
  231.15        2951.00           2158        1642.00      7156.93
  231.18        2951.25           2162        1617.00      7047.90
  231.21        2951.50           2165        1628.00      7095.87
  231.24        2951.75           2169        1675.00      7300.85
  231.27        2952.00           2172        1655.00      7213.63
  231.30        2952.25           2176        1680.00      7322.66
  231.33        2952.50           2179        1682.00      7331.38
  231.36        2952.75           2183        1717.00      7484.03
  231.39        2953.00           2186        1699.00      7405.53
  231.42        2953.25           2190        1659.00      7231.07
  231.45        2953.50           2193        1683.00      7335.75
  231.48        2953.75           2197        1743.00      7597.43
  231.52        2954.00           2200        1733.00      7553.82
  231.55        2954.25           2204        1719.00      7492.75
  231.58        2954.50           2208        1729.00      7536.37
  231.61        2954.75           2211        1752.00      7636.68
  231.64        2955.00           2215        1763.00      7684.66
  231.67        2955.25           2218        1771.00      7719.55
  231.70        2955.50           2222        1765.00      7693.38
  231.73        2955.75           2225        1790.00      7802.42
  231.76        2956.00           2229        1793.00      7815.50
  231.79        2956.25           2232        1815.00      7911.46
  231.82        2956.50           2236        1837.00      8007.41
  231.85        2956.75           2239        1847.00      8051.03
  231.88        2957.00           2243        1836.00      8003.05
  231.91        2957.25           2246        1882.00      8203.68
  231.94        2957.50           2250        1937.00      8443.58
  231.97        2957.75           2254        1885.00      8216.77
  232.00        2958.00           2257        1905.00      8304.00
  232.04        2958.25           2261        1969.00      8583.15
  232.07        2958.50           2264        1958.00      8535.17
  232.10        2958.75           2268        1968.00      8578.79
  232.13        2959.00           2271        2035.00      8871.03
  232.16        2959.25           2275        2076.00      9049.86
  232.19        2959.50           2278        2088.00      9102.21
  232.22        2959.75           2282        2090.00      9110.93
  232.25        2960.00           2285        2097.00      9141.46
  232.28        2960.25           2289        2200.00      9590.75
  232.31        2960.50           2293        2231.00      9725.97
  232.34        2960.75           2296        2313.00     10083.67
  232.37        2961.00           2300        2472.00     10777.27
  232.40        2961.25           2303        3376.00     14721.40
  232.43        2961.50           2307       10149.00     44305.58
  232.46        2961.75           2310       22724.00     99391.12
  232.49        2962.00           2314       44433.00    194977.90
  232.52        2962.25           2317       63677.00    280235.50
  232.55        2962.50           2321       92041.00    406810.40
  232.59        2962.75           2324      114879.00    509528.70
  232.62        2963.00           2328      146322.00    652144.80
  232.65        2963.25           2331      168229.00    752341.50
  232.68        2963.50           2335      195293.00    877087.80
  232.71        2963.75           2339      223145.00   1006598.00
  232.74        2964.00           2342      244920.00   1108665.00
  232.78        2964.25           2346      276819.00   1259504.00
  232.81        2964.50           2349      298285.00   1361906.00
  232.84        2964.75           2353      325046.00   1490599.00
  232.87        2965.00           2356      345958.00   1591976.00
  232.90        2965.25           2360      371072.00   1714680.00
  232.93        2965.50           2363      389822.00   1806984.00
  232.96        2965.75           2367      414895.00   1931357.00
  232.99        2966.00           2370      435535.00   2034565.00
  233.02        2966.25           2374      459096.00   2153304.00
  233.05        2966.50           2378      476222.00   2240242.00
  233.08        2966.75           2381      480864.00   2263899.00
  233.11        2967.00           2385      483264.00   2276146.00
  233.14        2967.25           2388      482303.00   2271241.00
  233.17        2967.50           2392      483509.00   2277397.00
  233.20        2967.75           2395      482301.00   2271231.00
  233.23        2968.00           2399      476184.00   2240049.00
  233.26        2968.25           2402      463956.00   2177921.00
  233.30        2968.50           2406      441551.00   2064789.00
  233.33        2968.75           2409      421681.00   1965207.00
  233.36        2969.00           2413      397899.00   1846931.00
  233.39        2969.25           2417      372360.00   1721001.00
  233.42        2969.50           2420      351509.00   1619007.00
  233.45        2969.75           2424      323927.00   1485195.00
  233.48        2970.00           2427      301042.00   1375111.00
  233.51        2970.25           2431      271882.00   1236055.00
  233.54        2970.50           2434      250425.00   1134584.00
  233.57        2970.75           2438      221609.00    999425.30
  233.60        2971.00           2441      199115.00    894791.40
  233.63        2971.25           2445      168909.00    755462.80
  233.66        2971.50           2449      137361.00    611357.80
  233.69        2971.75           2452      114147.00    506225.20
  233.72        2972.00           2456       85153.00    375971.60
  233.75        2972.25           2459       64137.00    282279.50
  233.78        2972.50           2463       37832.00    165847.10
  233.82        2972.75           2466       20525.00     89743.34
  233.85        2973.00           2470        6840.00     29844.57
  233.88        2973.25           2473        3509.00     15301.77
  233.91        2973.50           2477        2507.00     10929.96
  233.94        2973.75           2481        2320.00     10114.20
  233.97        2974.00           2484        2285.00      9961.53
  234.00        2974.25           2488        2218.00      9669.26
  234.03        2974.50           2491        2185.00      9525.32
  234.06        2974.75           2495        2131.00      9289.77
  234.09        2975.00           2498        2102.00      9163.27
  234.12        2975.25           2502        2081.00      9071.67
  234.15        2975.50           2505        2046.00      8919.01
  234.18        2975.75           2509        2004.00      8735.81
  234.21        2976.00           2512        1995.00      8696.56
  234.24        2976.25           2516        1974.00      8604.96
  234.27        2976.50           2520        1933.00      8426.13
  234.30        2976.75           2523        1929.00      8408.68
  234.34        2977.00           2527        1963.00      8556.98
  234.37        2977.25           2530        1859.00      8103.37
  234.40        2977.50           2534        1872.00      8160.07
  234.43        2977.75           2537        1843.00      8033.58
  234.46        2978.00           2541        1869.00      8146.98
  234.50        2978.25           2544        1817.00      7920.18
  234.54        2978.50           2548        1829.00      7972.52
  234.57        2978.75           2552        1775.00      7737.00
  234.60        2979.00           2555        1798.00      7837.31
  234.63        2979.25           2559        1764.00      7689.02
  234.66        2979.50           2562        1768.00      7706.47
  234.69        2979.75           2566        1740.00      7584.34
  234.72        2980.00           2569        1702.00      7418.61
  234.75        2980.25           2573        1697.00      7396.80
  234.78        2980.50           2577        1681.00      7327.02
  234.81        2980.75           2580        1740.00      7584.34
  234.84        2981.00           2584        1705.00      7431.70
  234.87        2981.25           2587        1662.00      7244.16
  234.90        2981.50           2591        1670.00      7279.05
  234.93        2981.75           2594        1675.00      7300.85
  234.96        2982.00           2598        1637.00      7135.12
  235.00        2982.25           2601        1608.00      7008.65
  235.03        2982.50           2605        1629.00      7100.23
  235.06        2982.75           2609        1647.00      7178.74
  235.09        2983.00           2612        1647.00      7178.74
  235.12        2983.25           2616        1624.00      7078.43
  235.15        2983.50           2619        1602.00      6982.48
  235.18        2983.75           2623        1589.00      6925.78
  235.21        2984.00           2626        1574.00      6860.36
HS scan finished at 03:55:26
end
************************************************************
  HS Scan of (1) Internal mercury lamp
************************************************************
Integration time is 0.2294 seconds per sample
dh070319Reading 51.44 .94 2.92pr1000
************************************************************
Dead Time -------------------------  3.4E-08 
Number of Cycles Used -------------  4 
Starting Wavelength (Angstroms) ---  2950 
Final Wavelength (Angstoms) -------  2984 
Wavelength Increment (Angstroms) --  .25 
Filter Wheel #1 Position ---------- (1) Ground quartz diffuser (ND=2.32)
Filter Wheel #2 Position ---------- (1) Neutral Density 0.494



************************************************************
HS scan start time = 18:37:22
Dark Count =  .8 


Time (GMT)  Wavelength (Ang)  Step Number  Raw Counts  Counts/Second

 1118.27        2950.00           2144        1291.00      5625.31
 1118.47        2950.25           2147        1257.00      5477.04
 1118.50        2950.50           2151        1287.00      5607.87
 1118.53        2950.75           2155        1259.00      5485.77
 1118.56        2951.00           2158        1249.00      5442.16
 1118.59        2951.25           2162        1274.00      5551.18
 1118.62        2951.50           2165        1275.00      5555.54
 1118.65        2951.75           2169        1263.00      5503.21
 1118.68        2952.00           2172        1280.00      5577.34
 1118.71        2952.25           2176        1267.00      5520.65
 1118.74        2952.50           2179        1297.00      5651.48
 1118.77        2952.75           2183        1322.00      5760.50
 1118.80        2953.00           2186        1297.00      5651.48
 1118.83        2953.25           2190        1327.00      5782.30
 1118.87        2953.50           2193        1314.00      5725.61
 1118.90        2953.75           2197        1315.00      5729.97
 1118.93        2954.00           2200        1391.00      6061.41
 1118.96        2954.25           2204        1294.00      5638.40
 1118.99        2954.50           2208        1323.00      5764.86
 1119.02        2954.75           2211        1296.00      5647.12
 1119.05        2955.00           2215        1347.00      5869.52
 1119.08        2955.25           2218        1368.00      5961.10
 1119.11        2955.50           2222        1373.00      5982.91
 1119.14        2955.75           2225        1410.00      6144.27
 1119.17        2956.00           2229        1352.00      5891.33
 1119.20        2956.25           2232        1380.00      6013.43
 1119.23        2956.50           2236        1382.00      6022.16
 1119.26        2956.75           2239        1416.00      6170.43
 1119.29        2957.00           2243        1366.00      5952.38
 1119.32        2957.25           2246        1412.00      6152.99
 1119.36        2957.50           2250        1443.00      6288.18
 1119.39        2957.75           2254        1427.00      6218.40
 1119.42        2958.00           2257        1442.00      6283.82
 1119.45        2958.25           2261        1423.00      6200.96
 1119.48        2958.50           2264        1488.00      6484.43
 1119.51        2958.75           2268        1492.00      6501.87
 1119.54        2959.00           2271        1485.00      6471.35
 1119.57        2959.25           2275        1521.00      6628.35
 1119.60        2959.50           2278        1550.00      6754.82
 1119.63        2959.75           2282        1586.00      6911.83
 1119.66        2960.00           2285        1585.00      6907.46
 1119.69        2960.25           2289        1624.00      7077.55
 1119.72        2960.50           2293        1652.00      7199.67
 1119.75        2960.75           2296        1697.00      7395.93
 1119.78        2961.00           2300        1732.00      7548.58
 1119.81        2961.25           2303        1942.00      8464.51
 1119.84        2961.50           2307        3981.00     17360.73
 1119.88        2961.75           2310        9674.00     42227.98
 1119.91        2962.00           2314       23700.00    103674.30
 1119.94        2962.25           2317       36654.00    160653.70
 1119.97        2962.50           2321       57208.00    251519.30
 1120.00        2962.75           2324       72082.00    317628.00
 1120.03        2963.00           2328       90371.00    399326.70
 1120.06        2963.25           2331      103652.00    458941.90
 1120.09        2963.50           2335      124465.00    552859.30
 1120.12        2963.75           2339      146080.00    651040.90
 1120.15        2964.00           2342      162156.00    724495.00
 1120.18        2964.25           2346      182394.00    817497.50
 1120.21        2964.50           2349      196261.00    881568.60
 1120.24        2964.75           2353      215622.00    971500.90
 1120.27        2965.00           2356      229114.00   1034504.00
 1120.30        2965.25           2360      246191.00   1114644.00
 1120.33        2965.50           2363      261539.00   1187052.00
 1120.36        2965.75           2367      280318.00   1276145.00
 1120.40        2966.00           2370      294285.00   1342768.00
 1120.43        2966.25           2374      310620.00   1421080.00
 1120.46        2966.50           2378      324436.00   1487652.00
 1120.49        2966.75           2381      328602.00   1507786.00
 1120.52        2967.00           2385      330922.00   1519011.00
 1120.55        2967.25           2388      331612.00   1522351.00
 1120.58        2967.50           2392      331534.00   1521974.00
 1120.61        2967.75           2395      331267.00   1520681.00
 1120.64        2968.00           2399      327960.00   1504681.00
 1120.67        2968.25           2402      321300.00   1472514.00
 1120.70        2968.50           2406      306176.00   1399733.00
 1120.73        2968.75           2409      294387.00   1343255.00
 1120.76        2969.00           2413      276591.00   1258419.00
 1120.79        2969.25           2417      258018.00   1170409.00
 1120.82        2969.50           2420      244667.00   1107474.00
 1120.85        2969.75           2424      225124.00   1015844.00
 1120.88        2970.00           2427      210323.00    946831.40
 1120.92        2970.25           2431      191079.00    857592.50
 1120.95        2970.50           2434      176854.00    791979.40
 1120.98        2970.75           2438      156562.00    698892.90
 1121.01        2971.00           2441      140292.00    624685.10
 1121.04        2971.25           2445      120002.00    532669.20
 1121.07        2971.50           2449       99791.00    441585.70
 1121.10        2971.75           2452       85101.00    375738.20
 1121.13        2972.00           2456       66445.00    292538.70
 1121.16        2972.25           2459       51575.00    226560.60
 1121.19        2972.50           2463       32719.00    143321.80
 1121.22        2972.75           2466       19153.00     83726.24
 1121.25        2973.00           2470        6869.00     29970.37
 1121.28        2973.25           2473        3175.00     13843.48
 1121.31        2973.50           2477        1875.00      8172.28
 1121.34        2973.75           2481        1734.00      7557.30
 1121.37        2974.00           2484        1669.00      7273.81
 1121.40        2974.25           2488        1626.00      7086.28
 1121.43        2974.50           2491        1584.00      6903.10
 1121.47        2974.75           2495        1566.00      6824.60
 1121.50        2975.00           2498        1553.00      6767.91
 1121.53        2975.25           2502        1535.00      6689.40
 1121.56        2975.50           2505        1552.00      6763.54
 1121.59        2975.75           2509        1476.00      6432.10
 1121.62        2976.00           2512        1459.00      6357.96
 1121.65        2976.25           2516        1446.00      6301.26
 1121.68        2976.50           2520        1448.00      6309.99
 1121.71        2976.75           2523        1416.00      6170.43
 1121.74        2977.00           2527        1455.00      6340.51
 1121.77        2977.25           2530        1411.00      6148.63
 1121.80        2977.50           2534        1400.00      6100.66
 1121.83        2977.75           2537        1377.00      6000.35
 1121.86        2978.00           2541        1377.00      6000.35
 1121.89        2978.25           2544        1358.00      5917.49
 1121.92        2978.50           2548        1353.00      5895.69
 1121.95        2978.75           2552        1360.00      5926.22
 1121.99        2979.00           2555        1323.00      5764.86
 1122.02        2979.25           2559        1319.00      5747.42
 1122.05        2979.50           2562        1271.00      5538.10
 1122.08        2979.75           2566        1288.00      5612.23
 1122.11        2980.00           2569        1265.00      5511.93
 1122.14        2980.25           2573        1256.00      5472.68
 1122.17        2980.50           2577        1282.00      5586.07
 1122.20        2980.75           2580        1278.00      5568.62
 1122.23        2981.00           2584        1276.00      5559.90
 1122.26        2981.25           2587        1239.00      5398.55
 1122.29        2981.50           2591        1235.00      5381.11
 1122.32        2981.75           2594        1252.00      5455.24
 1122.35        2982.00           2598        1251.00      5450.88
 1122.38        2982.25           2601        1205.00      5250.28
 1122.41        2982.50           2605        1203.00      5241.56
 1122.44        2982.75           2609        1205.00      5250.28
 1122.48        2983.00           2612        1218.00      5306.97
 1122.51        2983.25           2616        1216.00      5298.25
 1122.54        2983.50           2619        1181.00      5145.63
 1122.57        2983.75           2623        1230.00      5359.30
 1122.60        2984.00           2626        1198.00      5219.76
HS scan finished at 18:42:49
end
