************************************************************
  HS Scan of (1) Internal mercury lamp
************************************************************
Integration time is 0.2294 seconds per sample
dh100319Reading 51.44 .94 2.7pr1000
************************************************************
Dead Time -------------------------  3.4E-08 
Number of Cycles Used -------------  4 
Starting Wavelength (Angstroms) ---  2950 
Final Wavelength (Angstoms) -------  2984 
Wavelength Increment (Angstroms) --  .25 
Filter Wheel #1 Position ---------- (1) Ground quartz diffuser (ND=2.32)
Filter Wheel #2 Position ---------- (1) Neutral Density 0.494



************************************************************
HS scan start time = 03:41:26
Dark Count =  .6 


Time (GMT)  Wavelength (Ang)  Step Number  Raw Counts  Counts/Second

  222.34        2950.00           2144        1738.00      7575.62
  222.53        2950.25           2147        1691.00      7370.64
  222.56        2950.50           2151        1702.00      7418.61
  222.59        2950.75           2155        1715.00      7475.31
  222.62        2951.00           2158        1684.00      7340.11
  222.66        2951.25           2162        1704.00      7427.33
  222.69        2951.50           2165        1712.00      7462.23
  222.72        2951.75           2169        1697.00      7396.80
  222.75        2952.00           2172        1712.00      7462.23
  222.78        2952.25           2176        1731.00      7545.09
  222.81        2952.50           2179        1733.00      7553.82
  222.84        2952.75           2183        1665.00      7257.24
  222.87        2953.00           2186        1680.00      7322.66
  222.90        2953.25           2190        1684.00      7340.11
  222.93        2953.50           2193        1732.00      7549.45
  222.96        2953.75           2197        1724.00      7514.56
  222.99        2954.00           2200        1709.00      7449.14
  223.02        2954.25           2204        1753.00      7641.04
  223.05        2954.50           2208        1775.00      7737.00
  223.08        2954.75           2211        1757.00      7658.49
  223.11        2955.00           2215        1800.00      7846.03
  223.14        2955.25           2218        1797.00      7832.95
  223.18        2955.50           2222        1785.00      7780.61
  223.21        2955.75           2225        1805.00      7867.84
  223.24        2956.00           2229        1809.00      7885.29
  223.27        2956.25           2232        1832.00      7985.60
  223.30        2956.50           2236        1829.00      7972.52
  223.33        2956.75           2239        1837.00      8007.41
  223.36        2957.00           2243        1876.00      8177.51
  223.40        2957.25           2246        1839.00      8016.14
  223.44        2957.50           2250        1849.00      8059.75
  223.47        2957.75           2254        1954.00      8517.72
  223.50        2958.00           2257        1918.00      8360.70
  223.53        2958.25           2261        1951.00      8504.64
  223.56        2958.50           2264        1910.00      8325.81
  223.59        2958.75           2268        1974.00      8604.96
  223.62        2959.00           2271        1956.00      8526.45
  223.65        2959.25           2275        1987.00      8661.66
  223.68        2959.50           2278        1997.00      8705.28
  223.71        2959.75           2282        2021.00      8809.96
  223.74        2960.00           2285        2075.00      9045.50
  223.77        2960.25           2289        2068.00      9014.97
  223.80        2960.50           2293        2134.00      9302.86
  223.83        2960.75           2296        2171.00      9464.25
  223.86        2961.00           2300        2240.00      9765.23
  223.89        2961.25           2303        2688.00     11719.58
  223.92        2961.50           2307        6185.00     26983.77
  223.96        2961.75           2310       14411.00     62952.39
  223.99        2962.00           2314       33171.00    145312.50
  224.02        2962.25           2317       50640.00    222422.90
  224.05        2962.50           2321       73511.00    323995.90
  224.08        2962.75           2324       90357.00    399264.90
  224.11        2963.00           2328      113370.00    502719.30
  224.14        2963.25           2331      131665.00    585491.30
  224.17        2963.50           2335      155645.00    694701.30
  224.20        2963.75           2339      179411.00    803752.70
  224.23        2964.00           2342      197506.00    887335.80
  224.26        2964.25           2346      222100.00   1001718.00
  224.29        2964.50           2349      240270.00   1086808.00
  224.32        2964.75           2353      265553.00   1206050.00
  224.35        2965.00           2356      283555.00   1291559.00
  224.38        2965.25           2360      304500.00   1391691.00
  224.41        2965.50           2363      321951.00   1475656.00
  224.44        2965.75           2367      345028.00   1587452.00
  224.47        2966.00           2370      362103.00   1670737.00
  224.51        2966.25           2374      385201.00   1784180.00
  224.54        2966.50           2378      400716.00   1860889.00
  224.57        2966.75           2381      404891.00   1881602.00
  224.60        2967.00           2385      406375.00   1888972.00
  224.63        2967.25           2388      406652.00   1890348.00
  224.66        2967.50           2392      406552.00   1889851.00
  224.69        2967.75           2395      405614.00   1885192.00
  224.72        2968.00           2399      398739.00   1851092.00
  224.75        2968.25           2402      386451.00   1790345.00
  224.78        2968.50           2406      367390.00   1696624.00
  224.81        2968.75           2409      351622.00   1619557.00
  224.84        2969.00           2413      329098.00   1510186.00
  224.87        2969.25           2417      308736.00   1412027.00
  224.90        2969.50           2420      292279.00   1333181.00
  224.93        2969.75           2424      268381.00   1219450.00
  224.96        2970.00           2427      248583.00   1125906.00
  224.99        2970.25           2431      221121.00    997147.20
  225.03        2970.50           2434      203366.00    914507.50
  225.06        2970.75           2438      181300.00    812455.80
  225.09        2971.00           2441      165050.00    737758.60
  225.12        2971.25           2445      139992.00    623321.30
  225.15        2971.50           2449      112131.00    497130.70
  225.18        2971.75           2452       93829.00    414826.30
  225.21        2972.00           2456       69802.00    307475.80
  225.24        2972.25           2459       52851.00    232211.50
  225.27        2972.50           2463       30808.00    134913.00
  225.30        2972.75           2466       16744.00     73169.60
  225.33        2973.00           2470        5713.00     24922.59
  225.36        2973.25           2473        2960.00     12906.27
  225.39        2973.50           2477        2264.00      9869.92
  225.42        2973.75           2481        2171.00      9464.25
  225.45        2974.00           2484        2132.00      9294.13
  225.48        2974.25           2488        2078.00      9058.59
  225.51        2974.50           2491        2108.00      9189.44
  225.55        2974.75           2495        2058.00      8971.35
  225.58        2975.00           2498        2006.00      8744.53
  225.61        2975.25           2502        1968.00      8578.79
  225.64        2975.50           2505        1984.00      8648.58
  225.67        2975.75           2509        1922.00      8378.15
  225.70        2976.00           2512        1913.00      8338.89
  225.73        2976.25           2516        1891.00      8242.94
  225.76        2976.50           2520        1951.00      8504.64
  225.79        2976.75           2523        1833.00      7989.96
  225.82        2977.00           2527        1862.00      8116.45
  225.85        2977.25           2530        1825.00      7955.07
  225.88        2977.50           2534        1755.00      7649.77
  225.91        2977.75           2537        1785.00      7780.61
  225.94        2978.00           2541        1760.00      7671.57
  225.97        2978.25           2544        1790.00      7802.42
  226.00        2978.50           2548        1731.00      7545.09
  226.03        2978.75           2552        1752.00      7636.68
  226.07        2979.00           2555        1697.00      7396.80
  226.10        2979.25           2559        1719.00      7492.75
  226.13        2979.50           2562        1720.00      7497.12
  226.16        2979.75           2566        1699.00      7405.53
  226.19        2980.00           2569        1676.00      7305.22
  226.22        2980.25           2573        1718.00      7488.39
  226.25        2980.50           2577        1658.00      7226.71
  226.28        2980.75           2580        1661.00      7239.79
  226.31        2981.00           2584        1634.00      7122.04
  226.34        2981.25           2587        1633.00      7117.68
  226.37        2981.50           2591        1673.00      7292.13
  226.40        2981.75           2594        1710.00      7453.50
  226.43        2982.00           2598        1579.00      6882.17
  226.46        2982.25           2601        1595.00      6951.95
  226.49        2982.50           2605        1574.00      6860.36
  226.52        2982.75           2609        1606.00      6999.92
  226.55        2983.00           2612        1573.00      6856.00
  226.59        2983.25           2616        1573.00      6856.00
  226.62        2983.50           2619        1560.00      6799.30
  226.65        2983.75           2623        1546.00      6738.25
  226.68        2984.00           2626        1584.00      6903.97
HS scan finished at 03:46:54
end
************************************************************
  HS Scan of (1) Internal mercury lamp
************************************************************
Integration time is 0.2294 seconds per sample
dh100319Reading 51.44 .94 2.66pr1000
************************************************************
Dead Time -------------------------  3.4E-08 
Number of Cycles Used -------------  4 
Starting Wavelength (Angstroms) ---  2950 
Final Wavelength (Angstoms) -------  2984 
Wavelength Increment (Angstroms) --  .25 
Filter Wheel #1 Position ---------- (1) Ground quartz diffuser (ND=2.32)
Filter Wheel #2 Position ---------- (1) Neutral Density 0.494



************************************************************
HS scan start time = 19:07:22
Dark Count =  .5 


Time (GMT)  Wavelength (Ang)  Step Number  Raw Counts  Counts/Second

 1148.27        2950.00           2144        1595.00      6952.38
 1148.47        2950.25           2147        1637.00      7135.56
 1148.50        2950.50           2151        1607.00      7004.72
 1148.53        2950.75           2155        1633.00      7118.11
 1148.56        2951.00           2158        1609.00      7013.44
 1148.59        2951.25           2162        1595.00      6952.38
 1148.62        2951.50           2165        1632.00      7113.75
 1148.65        2951.75           2169        1633.00      7118.11
 1148.68        2952.00           2172        1612.00      7026.53
 1148.71        2952.25           2176        1617.00      7048.33
 1148.74        2952.50           2179        1614.00      7035.25
 1148.77        2952.75           2183        1627.00      7091.95
 1148.80        2953.00           2186        1672.00      7288.21
 1148.83        2953.25           2190        1635.00      7126.84
 1148.86        2953.50           2193        1671.00      7283.84
 1148.89        2953.75           2197        1639.00      7144.28
 1148.93        2954.00           2200        1676.00      7305.65
 1148.96        2954.25           2204        1659.00      7231.51
 1148.99        2954.50           2208        1696.00      7392.88
 1149.02        2954.75           2211        1718.00      7488.83
 1149.05        2955.00           2215        1739.00      7580.42
 1149.08        2955.25           2218        1733.00      7554.25
 1149.11        2955.50           2222        1677.00      7310.01
 1149.14        2955.75           2225        1723.00      7510.64
 1149.17        2956.00           2229        1716.00      7480.11
 1149.20        2956.25           2232        1743.00      7597.86
 1149.23        2956.50           2236        1750.00      7628.40
 1149.26        2956.75           2239        1740.00      7584.78
 1149.29        2957.00           2243        1767.00      7702.54
 1149.32        2957.25           2246        1787.00      7789.77
 1149.35        2957.50           2250        1764.00      7689.46
 1149.38        2957.75           2254        1822.00      7942.42
 1149.41        2958.00           2257        1823.00      7946.79
 1149.45        2958.25           2261        1855.00      8086.36
 1149.48        2958.50           2264        1849.00      8060.19
 1149.51        2958.75           2268        1855.00      8086.36
 1149.54        2959.00           2271        1859.00      8103.80
 1149.57        2959.25           2275        1906.00      8308.80
 1149.60        2959.50           2278        1921.00      8374.22
 1149.63        2959.75           2282        1935.00      8435.29
 1149.66        2960.00           2285        1926.00      8396.03
 1149.69        2960.25           2289        1970.00      8587.95
 1149.72        2960.50           2293        2032.00      8858.38
 1149.75        2960.75           2296        2022.00      8814.76
 1149.78        2961.00           2300        2169.00      9455.96
 1149.81        2961.25           2303        2677.00     11672.03
 1149.84        2961.50           2307        6740.00     29408.21
 1149.87        2961.75           2310       15521.00     67813.10
 1149.90        2962.00           2314       32979.00    144467.70
 1149.93        2962.25           2317       47993.00    210713.00
 1149.97        2962.50           2321       68895.00    303439.30
 1150.00        2962.75           2324       84143.00    371455.60
 1150.03        2963.00           2328      106306.00    470885.60
 1150.06        2963.25           2331      123126.00    546800.20
 1150.09        2963.50           2335      145801.00    649770.70
 1150.12        2963.75           2339      167351.00    748312.90
 1150.15        2964.00           2342      183434.00    822294.30
 1150.18        2964.25           2346      205088.00    922502.30
 1150.21        2964.50           2349      221000.00    996582.90
 1150.24        2964.75           2353      242910.00   1099214.00
 1150.27        2965.00           2356      260362.00   1181488.00
 1150.30        2965.25           2360      280232.00   1275737.00
 1150.33        2965.50           2363      293040.00   1336818.00
 1150.36        2965.75           2367      314863.00   1441493.00
 1150.39        2966.00           2370      330385.00   1516414.00
 1150.42        2966.25           2374      350061.00   1611951.00
 1150.45        2966.50           2378      364495.00   1682444.00
 1150.49        2966.75           2381      368529.00   1702208.00
 1150.52        2967.00           2385      372067.00   1719564.00
 1150.55        2967.25           2388      372058.00   1719520.00
 1150.58        2967.50           2392      372527.00   1721822.00
 1150.61        2967.75           2395      371899.00   1718739.00
 1150.64        2968.00           2399      368215.00   1700668.00
 1150.67        2968.25           2402      356058.00   1641197.00
 1150.70        2968.50           2406      343227.00   1578696.00
 1150.73        2968.75           2409      328041.00   1505075.00
 1150.76        2969.00           2413      308607.00   1411408.00
 1150.79        2969.25           2417      289384.00   1319356.00
 1150.82        2969.50           2420      274264.00   1247364.00
 1150.85        2969.75           2424      251197.00   1138223.00
 1150.88        2970.00           2427      233440.00   1054765.00
 1150.91        2970.25           2431      207692.00    934599.70
 1150.94        2970.50           2434      192083.00    862236.10
 1150.97        2970.75           2438      171360.00    766718.90
 1151.00        2971.00           2441      154903.00    691310.10
 1151.05        2971.25           2445      131827.00    586226.60
 1151.08        2971.50           2449      109763.00    486456.10
 1151.11        2971.75           2452       92441.00    408603.70
 1151.14        2972.00           2456       70363.00    309973.80
 1151.17        2972.25           2459       53461.00    234913.70
 1151.20        2972.50           2463       31307.00    137108.90
 1151.23        2972.75           2466       17569.00     76784.78
 1151.26        2973.00           2470        6446.00     28124.09
 1151.30        2973.25           2473        3325.00     14499.30
 1151.33        2973.50           2477        2243.00      9778.75
 1151.36        2973.75           2481        2080.00      9067.75
 1151.39        2974.00           2484        1997.00      8705.72
 1151.42        2974.25           2488        1981.00      8635.93
 1151.45        2974.50           2491        1976.00      8614.12
 1151.48        2974.75           2495        1928.00      8404.76
 1151.51        2975.00           2498        1971.00      8592.31
 1151.54        2975.25           2502        1879.00      8191.03
 1151.57        2975.50           2505        1848.00      8055.82
 1151.60        2975.75           2509        1925.00      8391.67
 1151.63        2976.00           2512        1786.00      7785.41
 1151.66        2976.25           2516        1832.00      7986.04
 1151.69        2976.50           2520        1745.00      7606.59
 1151.72        2976.75           2523        1726.00      7523.72
 1151.75        2977.00           2527        1722.00      7506.27
 1151.78        2977.25           2530        1746.00      7610.95
 1151.82        2977.50           2534        1702.00      7419.05
 1151.85        2977.75           2537        1695.00      7388.52
 1151.88        2978.00           2541        1672.00      7288.21
 1151.91        2978.25           2544        1671.00      7283.84
 1151.94        2978.50           2548        1643.00      7161.73
 1151.97        2978.75           2552        1695.00      7388.52
 1152.00        2979.00           2555        1629.00      7100.67
 1152.03        2979.25           2559        1675.00      7301.29
 1152.06        2979.50           2562        1611.00      7022.16
 1152.09        2979.75           2566        1638.00      7139.92
 1152.12        2980.00           2569        1649.00      7187.89
 1152.15        2980.25           2573        1597.00      6961.11
 1152.18        2980.50           2577        1592.00      6939.30
 1152.21        2980.75           2580        1570.00      6843.35
 1152.24        2981.00           2584        1525.00      6647.10
 1152.27        2981.25           2587        1573.00      6856.44
 1152.31        2981.50           2591        1563.00      6812.82
 1152.34        2981.75           2594        1554.00      6773.57
 1152.37        2982.00           2598        1538.00      6703.80
 1152.40        2982.25           2601        1533.00      6681.99
 1152.43        2982.50           2605        1525.00      6647.10
 1152.46        2982.75           2609        1531.00      6673.27
 1152.49        2983.00           2612        1541.00      6716.88
 1152.52        2983.25           2616        1512.00      6590.40
 1152.55        2983.50           2619        1538.00      6703.80
 1152.58        2983.75           2623        1522.00      6634.02
 1152.61        2984.00           2626        1518.00      6616.57
HS scan finished at 19:12:50
end
