************************************************************
  HS Scan of 
************************************************************
Integration time is 0.2294 seconds per sample
dh020317Reading 51.44 .94 2.58pr1000
************************************************************
Dead Time -------------------------  3.4E-08 
Number of Cycles Used -------------  4 
Starting Wavelength (Angstroms) ---  2950 
Final Wavelength (Angstoms) -------  2984 
Wavelength Increment (Angstroms) --  .25 
Filter Wheel #1 Position ---------- (1) Ground quartz diffuser (ND=2.32)
Filter Wheel #2 Position ---------- (1) Neutral Density 0.494



************************************************************
HS scan start time = 04:02:02
Dark Count =  .3 


Time (GMT)  Wavelength (Ang)  Step Number  Raw Counts  Counts/Second

  242.93        2950.00           2144         904.00      3939.94
  243.12        2950.25           2147         934.00      4070.75
  243.15        2950.50           2151         927.00      4040.22
  243.18        2950.75           2155         948.00      4131.79
  243.22        2951.00           2158         924.00      4027.14
  243.25        2951.25           2162         932.00      4062.03
  243.28        2951.50           2165         963.00      4197.20
  243.31        2951.75           2169         934.00      4070.75
  243.34        2952.00           2172         944.00      4114.35
  243.37        2952.25           2176         960.00      4184.12
  243.40        2952.50           2179         952.00      4149.23
  243.43        2952.75           2183         944.00      4114.35
  243.46        2953.00           2186         931.00      4057.67
  243.49        2953.25           2190         966.00      4210.28
  243.53        2953.50           2193         982.00      4280.05
  243.57        2953.75           2197         948.00      4131.79
  243.60        2954.00           2200         963.00      4197.20
  243.63        2954.25           2204         970.00      4227.72
  243.66        2954.50           2208        1004.00      4375.98
  243.69        2954.75           2211         993.00      4328.01
  243.73        2955.00           2215        1014.00      4419.58
  243.77        2955.25           2218        1004.00      4375.98
  243.80        2955.50           2222        1006.00      4384.70
  243.83        2955.75           2225         998.00      4349.82
  243.86        2956.00           2229         993.00      4328.01
  243.89        2956.25           2232        1001.00      4362.90
  243.92        2956.50           2236        1016.00      4428.30
  243.95        2956.75           2239        1012.00      4410.86
  243.98        2957.00           2243        1033.00      4502.43
  244.01        2957.25           2246        1044.00      4550.40
  244.04        2957.50           2250        1064.00      4637.61
  244.07        2957.75           2254        1047.00      4563.48
  244.10        2958.00           2257        1051.00      4580.92
  244.13        2958.25           2261        1055.00      4598.37
  244.16        2958.50           2264        1064.00      4637.61
  244.19        2958.75           2268        1110.00      4838.20
  244.22        2959.00           2271        1133.00      4938.49
  244.26        2959.25           2275        1093.00      4764.07
  244.29        2959.50           2278        1127.00      4912.33
  244.32        2959.75           2282        1147.00      4999.54
  244.35        2960.00           2285        1116.00      4864.36
  244.38        2960.25           2289        1169.00      5095.48
  244.41        2960.50           2293        1182.00      5152.17
  244.44        2960.75           2296        1185.00      5165.25
  244.47        2961.00           2300        1277.00      5566.44
  244.50        2961.25           2303        1403.00      6115.92
  244.53        2961.50           2307        3601.00     15704.55
  244.56        2961.75           2310        8465.00     36945.68
  244.59        2962.00           2314       18660.00     81567.21
  244.62        2962.25           2317       27892.00    122091.20
  244.65        2962.50           2321       41775.00    183242.30
  244.68        2962.75           2324       51834.00    227709.50
  244.71        2963.00           2328       64476.00    283787.40
  244.74        2963.25           2331       73289.00    323008.00
  244.77        2963.50           2335       86692.00    382857.80
  244.81        2963.75           2339      100773.00    446000.30
  244.84        2964.00           2342      111224.00    493042.40
  244.87        2964.25           2346      126967.00    564192.50
  244.90        2964.50           2349      138005.00    614286.60
  244.93        2964.75           2353      150858.00    672836.00
  244.96        2965.00           2356      161023.00    719308.30
  244.99        2965.25           2360      174145.00    779520.00
  245.02        2965.50           2363      183869.00    824301.50
  245.05        2965.75           2367      196139.00    881005.90
  245.08        2966.00           2370      206002.00    926748.20
  245.12        2966.25           2374      218039.00    982769.80
  245.15        2966.50           2378      227516.00   1027030.00
  245.18        2966.75           2381      230688.00   1041874.00
  245.21        2967.00           2385      231901.00   1047555.00
  245.24        2967.25           2388      232323.00   1049532.00
  245.27        2967.50           2392      232039.00   1048202.00
  245.30        2967.75           2395      231698.00   1046604.00
  245.33        2968.00           2399      228393.00   1031133.00
  245.36        2968.25           2402      221366.00    998292.30
  245.39        2968.50           2406      210729.00    948722.30
  245.42        2968.75           2409      202259.00    909372.10
  245.45        2969.00           2413      189818.00    851766.30
  245.48        2969.25           2417      175123.00    784017.80
  245.52        2969.50           2420      164408.00    734816.80
  245.55        2969.75           2424      151654.00    676469.80
  245.58        2970.00           2427      141321.00    629369.50
  245.61        2970.25           2431      127334.00    565855.30
  245.64        2970.50           2434      116837.00    518370.30
  245.67        2970.75           2438      101786.00    450553.40
  245.70        2971.00           2441       91877.00    406076.80
  245.73        2971.25           2445       79542.00    350899.60
  245.76        2971.50           2449       66355.00    292140.70
  245.79        2971.75           2452       55893.00    245691.20
  245.82        2972.00           2456       42014.00    184297.30
  245.85        2972.25           2459       32684.00    143169.90
  245.88        2972.50           2463       19794.00     86538.91
  245.91        2972.75           2466       10584.00     46208.99
  245.94        2973.00           2470        3156.00     13762.76
  245.97        2973.25           2473        1646.00      7175.68
  246.01        2973.50           2477        1317.00      5740.88
  246.04        2973.75           2481        1231.00      5365.84
  246.07        2974.00           2484        1187.00      5173.97
  246.10        2974.25           2488        1197.00      5217.58
  246.13        2974.50           2491        1138.00      4960.30
  246.16        2974.75           2495        1157.00      5043.15
  246.19        2975.00           2498        1124.00      4899.25
  246.22        2975.25           2502        1128.00      4916.69
  246.25        2975.50           2505        1107.00      4825.12
  246.28        2975.75           2509        1101.00      4798.95
  246.31        2976.00           2512        1061.00      4624.53
  246.34        2976.25           2516        1074.00      4681.22
  246.37        2976.50           2520        1062.00      4628.89
  246.40        2976.75           2523        1046.00      4559.12
  246.43        2977.00           2527        1012.00      4410.86
  246.46        2977.25           2530         997.00      4345.45
  246.49        2977.50           2534        1021.00      4450.11
  246.52        2977.75           2537         993.00      4328.01
  246.56        2978.00           2541         986.00      4297.49
  246.59        2978.25           2544        1003.00      4371.62
  246.62        2978.50           2548         989.00      4310.57
  246.65        2978.75           2552         989.00      4310.57
  246.68        2979.00           2555         989.00      4310.57
  246.71        2979.25           2559         955.00      4162.32
  246.74        2979.50           2562         939.00      4092.55
  246.77        2979.75           2566         985.00      4293.13
  246.80        2980.00           2569         951.00      4144.87
  246.83        2980.25           2573         929.00      4048.94
  246.86        2980.50           2577         946.00      4123.07
  246.89        2980.75           2580         955.00      4162.32
  246.92        2981.00           2584         932.00      4062.03
  246.95        2981.25           2587         913.00      3979.18
  246.98        2981.50           2591         934.00      4070.75
  247.01        2981.75           2594         918.00      4000.98
  247.04        2982.00           2598         902.00      3931.21
  247.08        2982.25           2601         888.00      3870.17
  247.11        2982.50           2605         878.00      3826.57
  247.14        2982.75           2609         916.00      3992.26
  247.17        2983.00           2612         908.00      3957.38
  247.20        2983.25           2616         909.00      3961.74
  247.23        2983.50           2619         899.00      3918.13
  247.26        2983.75           2623         909.00      3961.74
  247.29        2984.00           2626         876.00      3817.85
HS scan finished at 04:07:31
end
************************************************************
  HS Scan of 
************************************************************
Integration time is 0.2294 seconds per sample
dh020317Reading 51.44 .94 3pr1000
************************************************************
Dead Time -------------------------  3.4E-08 
Number of Cycles Used -------------  4 
Starting Wavelength (Angstroms) ---  2950 
Final Wavelength (Angstoms) -------  2984 
Wavelength Increment (Angstroms) --  .25 
Filter Wheel #1 Position ---------- (1) Ground quartz diffuser (ND=2.32)
Filter Wheel #2 Position ---------- (1) Neutral Density 0.494



************************************************************
HS scan start time = 18:37:26
Dark Count =  1 


Time (GMT)  Wavelength (Ang)  Step Number  Raw Counts  Counts/Second

 1118.34        2950.00           2144         853.00      3714.51
 1118.53        2950.25           2147         846.00      3683.98
 1118.56        2950.50           2151         848.00      3692.70
 1118.59        2950.75           2155         870.00      3788.63
 1118.62        2951.00           2158         859.00      3740.67
 1118.65        2951.25           2162         853.00      3714.51
 1118.68        2951.50           2165         869.00      3784.27
 1118.71        2951.75           2169         845.00      3679.62
 1118.75        2952.00           2172         862.00      3753.75
 1118.78        2952.25           2176         888.00      3867.12
 1118.81        2952.50           2179         872.00      3797.35
 1118.84        2952.75           2183         863.00      3758.11
 1118.87        2953.00           2186         882.00      3840.96
 1118.90        2953.25           2190         867.00      3775.55
 1118.93        2953.50           2193         872.00      3797.35
 1118.96        2953.75           2197         869.00      3784.27
 1118.99        2954.00           2200         880.00      3832.23
 1119.02        2954.25           2204         908.00      3954.32
 1119.05        2954.50           2208         890.00      3875.84
 1119.08        2954.75           2211         861.00      3749.39
 1119.11        2955.00           2215         880.00      3832.23
 1119.14        2955.25           2218         907.00      3949.96
 1119.17        2955.50           2222         891.00      3880.20
 1119.20        2955.75           2225         916.00      3989.21
 1119.23        2956.00           2229         937.00      4080.78
 1119.26        2956.25           2232         941.00      4098.22
 1119.30        2956.50           2236         916.00      3989.21
 1119.33        2956.75           2239         967.00      4211.59
 1119.36        2957.00           2243         908.00      3954.32
 1119.39        2957.25           2246         932.00      4058.97
 1119.42        2957.50           2250         918.00      3997.93
 1119.45        2957.75           2254         968.00      4215.95
 1119.48        2958.00           2257         943.00      4106.94
 1119.51        2958.25           2261        1013.00      4412.17
 1119.54        2958.50           2264         962.00      4189.79
 1119.57        2958.75           2268         983.00      4281.36
 1119.60        2959.00           2271        1017.00      4429.61
 1119.63        2959.25           2275        1002.00      4364.20
 1119.66        2959.50           2278        1032.00      4495.02
 1119.69        2959.75           2282        1051.00      4577.87
 1119.72        2960.00           2285        1042.00      4538.63
 1119.75        2960.25           2289        1061.00      4621.48
 1119.79        2960.50           2293        1046.00      4556.07
 1119.82        2960.75           2296        1094.00      4765.38
 1119.85        2961.00           2300        1179.00      5136.03
 1119.88        2961.25           2303        1518.00      6614.39
 1119.91        2961.50           2307        4858.00     21187.88
 1119.94        2961.75           2310       10663.00     46551.39
 1119.97        2962.00           2314       20272.00     88631.99
 1120.00        2962.25           2317       29064.00    127240.70
 1120.03        2962.50           2321       40384.00    177100.70
 1120.06        2962.75           2324       48402.00    212519.60
 1120.09        2963.00           2328       60183.00    264717.10
 1120.12        2963.25           2331       69420.00    305773.60
 1120.15        2963.50           2335       82336.00    363376.40
 1120.18        2963.75           2339       94687.00    418672.60
 1120.21        2964.00           2342      103951.00    460285.90
 1120.24        2964.25           2346      116173.00    515368.70
 1120.27        2964.50           2349      124543.00    553211.50
 1120.31        2964.75           2353      137125.00    610283.40
 1120.34        2965.00           2356      146234.00    651741.90
 1120.37        2965.25           2360      157031.00    701036.60
 1120.40        2965.50           2363      165400.00    739361.60
 1120.43        2965.75           2367      176976.00    792540.00
 1120.46        2966.00           2370      184704.00    828150.10
 1120.49        2966.25           2374      195433.00    877734.00
 1120.52        2966.50           2378      203939.00    917165.20
 1120.55        2966.75           2381      206041.00    926926.20
 1120.58        2967.00           2385      207163.00    932139.00
 1120.61        2967.25           2388      207805.00    935122.60
 1120.64        2967.50           2392      207567.00    934016.40
 1120.67        2967.75           2395      207134.00    932004.20
 1120.70        2968.00           2399      205151.00    922792.50
 1120.73        2968.25           2402      200294.00    900255.00
 1120.76        2968.50           2406      190081.00    852978.50
 1120.79        2968.75           2409      181183.00    811914.60
 1120.83        2969.00           2413      168539.00    753762.50
 1120.86        2969.25           2417      156429.00    698283.80
 1120.89        2969.50           2420      147696.00    658407.00
 1120.92        2969.75           2424      136218.00    606161.80
 1120.95        2970.00           2427      126664.00    562816.60
 1120.98        2970.25           2431      113029.00    501179.20
 1121.01        2970.50           2434      103591.00    458666.60
 1121.04        2970.75           2438       90837.00    401413.40
 1121.07        2971.00           2441       81383.00    359118.50
 1121.10        2971.25           2445       69953.00    308146.20
 1121.13        2971.50           2449       58551.00    257475.20
 1121.16        2971.75           2452       49454.00    217173.10
 1121.19        2972.00           2456       36969.00    162041.10
 1121.22        2972.25           2459       27951.00    122347.50
 1121.25        2972.50           2463       16161.00     70613.97
 1121.28        2972.75           2466        8621.00     37624.39
 1121.31        2973.00           2470        2859.00     12463.87
 1121.35        2973.25           2473        1529.00      6662.36
 1121.38        2973.50           2477        1201.00      5231.97
 1121.41        2973.75           2481        1136.00      4948.52
 1121.44        2974.00           2484        1078.00      4695.61
 1121.47        2974.25           2488        1113.00      4848.23
 1121.50        2974.50           2491        1044.00      4547.35
 1121.53        2974.75           2495        1069.00      4656.36
 1121.56        2975.00           2498        1033.00      4499.38
 1121.59        2975.25           2502        1009.00      4394.73
 1121.62        2975.50           2505        1003.00      4368.57
 1121.65        2975.75           2509        1018.00      4433.97
 1121.68        2976.00           2512         986.00      4294.44
 1121.71        2976.25           2516         977.00      4255.19
 1121.74        2976.50           2520         970.00      4224.67
 1121.77        2976.75           2523         937.00      4080.78
 1121.80        2977.00           2527         953.00      4150.54
 1121.83        2977.25           2530         938.00      4085.14
 1121.87        2977.50           2534         917.00      3993.57
 1121.91        2977.75           2537         917.00      3993.57
 1121.94        2978.00           2541         930.00      4050.25
 1121.97        2978.25           2544         890.00      3875.84
 1122.00        2978.50           2548         888.00      3867.12
 1122.03        2978.75           2552         913.00      3976.13
 1122.06        2979.00           2555         905.00      3941.24
 1122.09        2979.25           2559         846.00      3683.98
 1122.12        2979.50           2562         857.00      3731.95
 1122.15        2979.75           2566         881.00      3836.59
 1122.18        2980.00           2569         855.00      3723.23
 1122.21        2980.25           2573         873.00      3801.71
 1122.24        2980.50           2577         858.00      3736.31
 1122.28        2980.75           2580         834.00      3631.66
 1122.31        2981.00           2584         854.00      3718.87
 1122.34        2981.25           2587         832.00      3622.94
 1122.37        2981.50           2591         843.00      3670.90
 1122.40        2981.75           2594         843.00      3670.90
 1122.43        2982.00           2598         829.00      3609.86
 1122.46        2982.25           2601         808.00      3518.29
 1122.49        2982.50           2605         817.00      3557.54
 1122.52        2982.75           2609         820.00      3570.62
 1122.55        2983.00           2612         813.00      3540.10
 1122.58        2983.25           2616         810.00      3527.01
 1122.61        2983.50           2619         793.00      3452.89
 1122.64        2983.75           2623         807.00      3513.93
 1122.67        2984.00           2626         837.00      3644.74
HS scan finished at 18:42:54
end
