************************************************************
  HS Scan of 
************************************************************
Integration time is 0.2294 seconds per sample
dh070317Reading 51.44 .94 2.76pr1000
************************************************************
Dead Time -------------------------  3.4E-08 
Number of Cycles Used -------------  4 
Starting Wavelength (Angstroms) ---  2950 
Final Wavelength (Angstoms) -------  2984 
Wavelength Increment (Angstroms) --  .25 
Filter Wheel #1 Position ---------- (1) Ground quartz diffuser (ND=2.32)
Filter Wheel #2 Position ---------- (1) Neutral Density 0.494



************************************************************
HS scan start time = 03:48:38
Dark Count =  .5 


Time (GMT)  Wavelength (Ang)  Step Number  Raw Counts  Counts/Second

  229.53        2950.00           2144         956.00      4165.80
  229.72        2950.25           2147         974.00      4244.29
  229.75        2950.50           2151         959.00      4178.89
  229.78        2950.75           2155         958.00      4174.53
  229.81        2951.00           2158        1003.00      4370.75
  229.84        2951.25           2162         953.00      4152.72
  229.87        2951.50           2165         969.00      4222.49
  229.90        2951.75           2169         994.00      4331.50
  229.93        2952.00           2172        1001.00      4362.02
  229.96        2952.25           2176         988.00      4305.34
  229.99        2952.50           2179         970.00      4226.85
  230.02        2952.75           2183         986.00      4296.62
  230.06        2953.00           2186         993.00      4327.14
  230.09        2953.25           2190         990.00      4314.06
  230.12        2953.50           2193         989.00      4309.70
  230.15        2953.75           2197        1032.00      4497.20
  230.18        2954.00           2200        1044.00      4549.53
  230.21        2954.25           2204        1050.00      4575.69
  230.24        2954.50           2208        1012.00      4409.99
  230.27        2954.75           2211        1020.00      4444.87
  230.30        2955.00           2215        1060.00      4619.30
  230.33        2955.25           2218        1033.00      4501.56
  230.36        2955.50           2222        1041.00      4536.45
  230.39        2955.75           2225        1091.00      4754.47
  230.42        2956.00           2229        1016.00      4427.43
  230.45        2956.25           2232        1056.00      4601.85
  230.48        2956.50           2236        1037.00      4519.00
  230.51        2956.75           2239        1044.00      4549.53
  230.54        2957.00           2243        1087.00      4737.03
  230.58        2957.25           2246        1088.00      4741.39
  230.61        2957.50           2250        1129.00      4920.18
  230.64        2957.75           2254        1110.00      4837.33
  230.67        2958.00           2257        1094.00      4767.56
  230.70        2958.25           2261        1148.00      5003.03
  230.73        2958.50           2264        1178.00      5133.85
  230.76        2958.75           2268        1154.00      5029.20
  230.79        2959.00           2271        1149.00      5007.39
  230.82        2959.25           2275        1170.00      5098.97
  230.85        2959.50           2278        1192.00      5194.90
  230.88        2959.75           2282        1230.00      5360.61
  230.91        2960.00           2285        1204.00      5247.23
  230.94        2960.25           2289        1291.00      5626.62
  230.97        2960.50           2293        1260.00      5491.43
  231.00        2960.75           2296        1316.00      5735.64
  231.03        2961.00           2300        1400.00      6101.96
  231.06        2961.25           2303        1745.00      7606.59
  231.10        2961.50           2307        5453.00     23787.76
  231.13        2961.75           2310       12692.00     55429.13
  231.16        2962.00           2314       25338.00    110868.30
  231.19        2962.25           2317       35742.00    156636.30
  231.22        2962.50           2321       50636.00    222405.60
  231.25        2962.75           2324       63795.00    280760.20
  231.28        2963.00           2328       80259.00    354100.30
  231.31        2963.25           2331       91913.00    406237.20
  231.34        2963.50           2335      107596.00    476693.90
  231.37        2963.75           2339      123033.00    546379.40
  231.40        2964.00           2342      135010.00    600676.30
  231.43        2964.25           2346      148322.00    661264.10
  231.46        2964.50           2349      164693.00    736122.40
  231.49        2964.75           2353      179374.00    803582.80
  231.52        2965.00           2356      189667.00    851067.60
  231.55        2965.25           2360      203716.00    916132.50
  231.58        2965.50           2363      213695.00    962526.30
  231.62        2965.75           2367      227412.00   1026543.00
  231.65        2966.00           2370      238499.00   1078493.00
  231.68        2966.25           2374      252906.00   1146280.00
  231.71        2966.50           2378      262358.00   1190928.00
  231.74        2966.75           2381      265526.00   1205923.00
  231.77        2967.00           2385      266147.00   1208864.00
  231.80        2967.25           2388      266495.00   1210513.00
  231.83        2967.50           2392      266109.00   1208684.00
  231.86        2967.75           2395      265827.00   1207348.00
  231.89        2968.00           2399      262460.00   1191410.00
  231.92        2968.25           2402      255174.00   1156981.00
  231.95        2968.50           2406      241068.00   1090557.00
  231.98        2968.75           2409      230865.00   1042702.00
  232.01        2969.00           2413      216961.00    977742.90
  232.04        2969.25           2417      202797.00    911867.40
  232.07        2969.50           2420      191051.00    857464.40
  232.10        2969.75           2424      175970.00    787913.10
  232.13        2970.00           2427      163985.00    732877.00
  232.17        2970.25           2431      147159.00    655960.80
  232.20        2970.50           2434      135812.00    604319.40
  232.23        2970.75           2438      120289.00    533968.00
  232.26        2971.00           2441      108928.00    482693.70
  232.29        2971.25           2445       92071.00    406945.30
  232.32        2971.50           2449       74455.00    328204.00
  232.35        2971.75           2452       62544.00    275202.50
  232.38        2972.00           2456       47368.00    207949.40
  232.41        2972.25           2459       36239.00    158826.20
  232.44        2972.50           2463       21452.00     93810.08
  232.47        2972.75           2466       11343.00     49527.54
  232.50        2973.00           2470        3698.00     16126.98
  232.53        2973.25           2473        1874.00      8169.23
  232.56        2973.50           2477        1401.00      6106.32
  232.59        2973.75           2481        1345.00      5862.11
  232.62        2974.00           2484        1315.00      5731.28
  232.65        2974.25           2488        1306.00      5692.03
  232.69        2974.50           2491        1243.00      5417.30
  232.72        2974.75           2495        1196.00      5212.35
  232.75        2975.00           2498        1193.00      5199.26
  232.78        2975.25           2502        1181.00      5146.93
  232.81        2975.50           2505        1210.00      5273.40
  232.84        2975.75           2509        1177.00      5129.49
  232.87        2976.00           2512        1113.00      4850.41
  232.90        2976.25           2516        1164.00      5072.80
  232.93        2976.50           2520        1127.00      4911.46
  232.96        2976.75           2523        1083.00      4719.59
  232.99        2977.00           2527        1099.00      4789.36
  233.02        2977.25           2530        1079.00      4702.15
  233.05        2977.50           2534        1064.00      4636.74
  233.08        2977.75           2537        1068.00      4654.18
  233.11        2978.00           2541        1075.00      4684.70
  233.14        2978.25           2544        1042.00      4540.81
  233.18        2978.50           2548        1048.00      4566.97
  233.21        2978.75           2552        1040.00      4532.08
  233.24        2979.00           2555        1037.00      4519.00
  233.27        2979.25           2559        1035.00      4510.28
  233.30        2979.50           2562        1039.00      4527.72
  233.33        2979.75           2566        1005.00      4379.47
  233.36        2980.00           2569         989.00      4309.70
  233.39        2980.25           2573         982.00      4279.18
  233.42        2980.50           2577         995.00      4335.86
  233.45        2980.75           2580         987.00      4300.98
  233.48        2981.00           2584         983.00      4283.54
  233.51        2981.25           2587         940.00      4096.04
  233.54        2981.50           2591         965.00      4205.05
  233.57        2981.75           2594         976.00      4253.01
  233.60        2982.00           2598         958.00      4174.53
  233.63        2982.25           2601         963.00      4196.33
  233.66        2982.50           2605         951.00      4144.00
  233.70        2982.75           2609         920.00      4008.83
  233.73        2983.00           2612         953.00      4152.72
  233.76        2983.25           2616         939.00      4091.68
  233.79        2983.50           2619         935.00      4074.23
  233.82        2983.75           2623         944.00      4113.48
  233.85        2984.00           2626         960.00      4183.25
HS scan finished at 03:54:04
end
************************************************************
  HS Scan of 
************************************************************
Integration time is 0.2294 seconds per sample
dh070317Reading 51.44 .94 3.15pr1000
************************************************************
Dead Time -------------------------  3.4E-08 
Number of Cycles Used -------------  4 
Starting Wavelength (Angstroms) ---  2950 
Final Wavelength (Angstoms) -------  2984 
Wavelength Increment (Angstroms) --  .25 
Filter Wheel #1 Position ---------- (1) Ground quartz diffuser (ND=2.32)
Filter Wheel #2 Position ---------- (1) Neutral Density 0.494



************************************************************
HS scan start time = 18:37:25
Dark Count =  1.4 


Time (GMT)  Wavelength (Ang)  Step Number  Raw Counts  Counts/Second

 1118.32        2950.00           2144         875.00      3808.69
 1118.51        2950.25           2147         872.00      3795.61
 1118.54        2950.50           2151         873.00      3799.97
 1118.57        2950.75           2155         891.00      3878.45
 1118.60        2951.00           2158         881.00      3834.85
 1118.63        2951.25           2162         885.00      3852.29
 1118.66        2951.50           2165         861.00      3747.64
 1118.69        2951.75           2169         905.00      3939.50
 1118.72        2952.00           2172         890.00      3874.09
 1118.75        2952.25           2176         914.00      3978.74
 1118.78        2952.50           2179         898.00      3908.98
 1118.82        2952.75           2183         908.00      3952.58
 1118.85        2953.00           2186         886.00      3856.65
 1118.88        2953.25           2190         915.00      3983.10
 1118.91        2953.50           2193         884.00      3847.93
 1118.94        2953.75           2197         882.00      3839.21
 1118.97        2954.00           2200         944.00      4109.55
 1119.00        2954.25           2204         910.00      3961.30
 1119.03        2954.50           2208         916.00      3987.46
 1119.06        2954.75           2211         904.00      3935.14
 1119.09        2955.00           2215         912.00      3970.02
 1119.12        2955.25           2218         943.00      4105.19
 1119.15        2955.50           2222         932.00      4057.23
 1119.18        2955.75           2225         983.00      4279.61
 1119.21        2956.00           2229         953.00      4148.80
 1119.24        2956.25           2232         955.00      4157.52
 1119.27        2956.50           2236         948.00      4127.00
 1119.30        2956.75           2239         956.00      4161.88
 1119.34        2957.00           2243         960.00      4179.32
 1119.37        2957.25           2246         987.00      4297.05
 1119.40        2957.50           2250         983.00      4279.61
 1119.43        2957.75           2254        1008.00      4388.62
 1119.46        2958.00           2257         996.00      4336.30
 1119.49        2958.25           2261        1015.00      4419.15
 1119.52        2958.50           2264         998.00      4345.02
 1119.55        2958.75           2268        1024.00      4458.39
 1119.58        2959.00           2271        1036.00      4510.72
 1119.61        2959.25           2275        1047.00      4558.68
 1119.64        2959.50           2278        1070.00      4658.98
 1119.67        2959.75           2282        1080.00      4702.58
 1119.70        2960.00           2285        1091.00      4750.55
 1119.73        2960.25           2289        1132.00      4929.34
 1119.76        2960.50           2293        1106.00      4815.96
 1119.79        2960.75           2296        1182.00      5147.37
 1119.82        2961.00           2300        1278.00      5566.01
 1119.86        2961.25           2303        1878.00      8182.75
 1119.89        2961.50           2307        6983.00     30465.72
 1119.92        2961.75           2310       14303.00     62476.08
 1119.95        2962.00           2314       25911.00    113381.30
 1119.98        2962.25           2317       35304.00    154702.60
 1120.01        2962.50           2321       49757.00    218511.90
 1120.04        2962.75           2324       60843.00    267645.10
 1120.07        2963.00           2328       74259.00    327326.30
 1120.10        2963.25           2331       84523.00    373150.70
 1120.13        2963.50           2335       97997.00    433525.50
 1120.16        2963.75           2339      110790.00    491080.80
 1120.19        2964.00           2342      122321.00    543153.90
 1120.22        2964.25           2346      137278.00    610977.00
 1120.25        2964.50           2349      147251.00    656376.10
 1120.28        2964.75           2353      161008.00    719234.50
 1120.31        2965.00           2356      171367.00    766746.90
 1120.34        2965.25           2360      184833.00    828743.30
 1120.38        2965.50           2363      193463.00    868615.10
 1120.41        2965.75           2367      206162.00    927486.40
 1120.44        2966.00           2370      215836.00    972495.30
 1120.47        2966.25           2374      227846.00   1028568.00
 1120.50        2966.50           2378      234326.00   1058913.00
 1120.53        2966.75           2381      235612.00   1064943.00
 1120.56        2967.00           2385      235841.00   1066017.00
 1120.59        2967.25           2388      235896.00   1066275.00
 1120.62        2967.50           2392      235745.00   1065567.00
 1120.65        2967.75           2395      235267.00   1063325.00
 1120.68        2968.00           2399      230537.00   1041162.00
 1120.71        2968.25           2402      223201.00   1006856.00
 1120.74        2968.50           2406      211560.00    952583.60
 1120.77        2968.75           2409      202528.00    910614.90
 1120.80        2969.00           2413      189251.00    849141.30
 1120.83        2969.25           2417      175028.00    783575.60
 1120.86        2969.50           2420      165183.00    738364.80
 1120.90        2969.75           2424      152112.00    678555.80
 1120.93        2970.00           2427      141959.00    632268.10
 1120.96        2970.25           2431      128061.00    569144.80
 1120.99        2970.50           2434      117591.00    521771.10
 1121.02        2970.75           2438      103942.00    460243.70
 1121.05        2971.00           2441       93243.00    412195.10
 1121.08        2971.25           2445       78796.00    347564.40
 1121.11        2971.50           2449       63951.00    281449.40
 1121.14        2971.75           2452       52507.00    230684.60
 1121.17        2972.00           2456       39019.00    171077.70
 1121.20        2972.25           2459       29850.00    130695.40
 1121.23        2972.50           2463       16892.00     73814.49
 1121.26        2972.75           2466        8309.00     36259.15
 1121.29        2973.00           2470        2417.00     10533.85
 1121.32        2973.25           2473        1453.00      6329.17
 1121.35        2973.50           2477        1224.00      5330.52
 1121.38        2973.75           2481        1172.00      5103.76
 1121.42        2974.00           2484        1184.00      5156.09
 1121.45        2974.25           2488        1104.00      4807.24
 1121.48        2974.50           2491        1094.00      4763.63
 1121.51        2974.75           2495        1096.00      4772.35
 1121.54        2975.00           2498        1052.00      4580.49
 1121.57        2975.25           2502        1051.00      4576.13
 1121.60        2975.50           2505        1037.00      4515.08
 1121.63        2975.75           2509        1037.00      4515.08
 1121.66        2976.00           2512        1040.00      4528.16
 1121.69        2976.25           2516        1007.00      4384.26
 1121.72        2976.50           2520        1006.00      4379.90
 1121.75        2976.75           2523         971.00      4227.29
 1121.78        2977.00           2527         992.00      4318.86
 1121.81        2977.25           2530         973.00      4236.01
 1121.84        2977.50           2534         964.00      4196.76
 1121.87        2977.75           2537         954.00      4153.16
 1121.90        2978.00           2541         941.00      4096.47
 1121.93        2978.25           2544         945.00      4113.91
 1121.97        2978.50           2548         906.00      3943.86
 1122.00        2978.75           2552         904.00      3935.14
 1122.03        2979.00           2555         922.00      4013.63
 1122.06        2979.25           2559         899.00      3913.34
 1122.09        2979.50           2562         912.00      3970.02
 1122.13        2979.75           2566         876.00      3813.05
 1122.16        2980.00           2569         907.00      3948.22
 1122.19        2980.25           2573         873.00      3799.97
 1122.22        2980.50           2577         891.00      3878.45
 1122.25        2980.75           2580         857.00      3730.20
 1122.28        2981.00           2584         886.00      3856.65
 1122.31        2981.25           2587         878.00      3821.77
 1122.34        2981.50           2591         869.00      3782.53
 1122.37        2981.75           2594         856.00      3725.84
 1122.40        2982.00           2598         870.00      3786.89
 1122.43        2982.25           2601         838.00      3647.36
 1122.46        2982.50           2605         848.00      3690.96
 1122.49        2982.75           2609         819.00      3564.51
 1122.52        2983.00           2612         831.00      3616.84
 1122.55        2983.25           2616         831.00      3616.84
 1122.58        2983.50           2619         832.00      3621.20
 1122.61        2983.75           2623         842.00      3664.80
 1122.65        2984.00           2626         846.00      3682.24
HS scan finished at 18:42:52
end
