************************************************************
  HS Scan of (1) Internal mercury lamp
************************************************************
Integration time is 0.2294 seconds per sample
dh100318Reading 51.44 .94 3pr1000
************************************************************
Dead Time -------------------------  3.4E-08 
Number of Cycles Used -------------  4 
Starting Wavelength (Angstroms) ---  2950 
Final Wavelength (Angstoms) -------  2984 
Wavelength Increment (Angstroms) --  .25 
Filter Wheel #1 Position ---------- (1) Ground quartz diffuser (ND=2.32)
Filter Wheel #2 Position ---------- (1) Neutral Density 0.494



************************************************************
HS scan start time = 03:40:41
Dark Count =  1 


Time (GMT)  Wavelength (Ang)  Step Number  Raw Counts  Counts/Second

  221.58        2950.00           2144          82.00       353.10
  221.78        2950.25           2147          79.00       340.02
  221.81        2950.50           2151          83.00       357.46
  221.84        2950.75           2155          80.00       344.38
  221.87        2951.00           2158          83.00       357.46
  221.90        2951.25           2162          79.00       340.02
  221.93        2951.50           2165          84.00       361.82
  221.96        2951.75           2169          83.00       357.46
  221.99        2952.00           2172          75.00       322.58
  222.02        2952.25           2176          82.00       353.10
  222.05        2952.50           2179          84.00       361.82
  222.08        2952.75           2183          77.00       331.30
  222.11        2953.00           2186          85.00       366.18
  222.14        2953.25           2190          83.00       357.46
  222.17        2953.50           2193          80.00       344.38
  222.21        2953.75           2197          79.00       340.02
  222.24        2954.00           2200          81.00       348.74
  222.27        2954.25           2204          82.00       353.10
  222.30        2954.50           2208          93.00       401.05
  222.33        2954.75           2211          92.00       396.69
  222.36        2955.00           2215          90.00       387.97
  222.39        2955.25           2218          83.00       357.46
  222.42        2955.50           2222          92.00       396.69
  222.45        2955.75           2225          85.00       366.18
  222.48        2956.00           2229          94.00       405.41
  222.51        2956.25           2232          95.00       409.77
  222.54        2956.50           2236          87.00       374.90
  222.57        2956.75           2239          93.00       401.05
  222.60        2957.00           2243          93.00       401.05
  222.63        2957.25           2246          97.00       418.49
  222.66        2957.50           2250          94.00       405.41
  222.69        2957.75           2254          96.00       414.13
  222.73        2958.00           2257          95.00       409.77
  222.76        2958.25           2261          96.00       414.13
  222.79        2958.50           2264          96.00       414.13
  222.82        2958.75           2268         104.00       449.00
  222.85        2959.00           2271         110.00       475.16
  222.88        2959.25           2275         123.00       531.83
  222.91        2959.50           2278         127.00       549.27
  222.94        2959.75           2282         125.00       540.55
  222.97        2960.00           2285         142.00       614.66
  223.00        2960.25           2289         145.00       627.74
  223.03        2960.50           2293         130.00       562.35
  223.06        2960.75           2296         174.00       754.16
  223.10        2961.00           2300         167.00       723.64
  223.13        2961.25           2303         407.00      1769.94
  223.16        2961.50           2307        1263.00      5502.34
  223.20        2961.75           2310        2202.00      9597.73
  223.23        2962.00           2314        3740.00     16308.08
  223.26        2962.25           2317        4885.00     21305.75
  223.29        2962.50           2321        6439.00     28091.34
  223.32        2962.75           2324        7665.00     33446.91
  223.35        2963.00           2328        9268.00     40452.29
  223.38        2963.25           2331       10250.00     44745.45
  223.41        2963.50           2335       11865.00     51808.71
  223.44        2963.75           2339       13478.00     58866.61
  223.47        2964.00           2342       14683.00     64141.48
  223.50        2964.25           2346       16450.00     71879.90
  223.53        2964.50           2349       17287.00     75546.90
  223.56        2964.75           2353       18923.00     82717.05
  223.59        2965.00           2356       20238.00     88482.88
  223.62        2965.25           2360       21697.00     94882.76
  223.65        2965.50           2363       22724.00     99389.34
  223.68        2965.75           2367       24314.00    106369.20
  223.72        2966.00           2370       25343.00    110888.10
  223.75        2966.25           2374       26532.00    116111.40
  223.78        2966.50           2378       27034.00    118317.20
  223.81        2966.75           2381       27211.00    119095.10
  223.84        2967.00           2385       26950.00    117948.10
  223.87        2967.25           2388       26965.00    118014.00
  223.90        2967.50           2392       26868.00    117587.80
  223.93        2967.75           2395       26790.00    117245.00
  223.96        2968.00           2399       26023.00    113875.10
  223.99        2968.25           2402       24987.00    109324.50
  224.02        2968.50           2406       23648.00    103445.20
  224.05        2968.75           2409       22507.00     98437.02
  224.08        2969.00           2413       21029.00     91952.25
  224.11        2969.25           2417       19300.00     84369.84
  224.14        2969.50           2420       18119.00     79192.90
  224.17        2969.75           2424       16559.00     72357.40
  224.20        2970.00           2427       15442.00     67464.96
  224.24        2970.25           2431       13885.00     60648.03
  224.27        2970.50           2434       12590.00     54980.63
  224.30        2970.75           2438       11062.00     48296.33
  224.33        2971.00           2441        9884.00     43145.20
  224.36        2971.25           2445        8300.00     36221.56
  224.39        2971.50           2449        6594.00     28768.32
  224.42        2971.75           2452        5319.00     23200.51
  224.45        2972.00           2456        3920.00     17093.63
  224.48        2972.25           2459        2747.00     11975.23
  224.51        2972.50           2463        1409.00      6139.03
  224.54        2972.75           2466         633.00      2755.27
  224.57        2973.00           2470         182.00       789.04
  224.60        2973.25           2473         136.00       588.50
  224.63        2973.50           2477         119.00       514.39
  224.66        2973.75           2481         136.00       588.50
  224.69        2974.00           2484         108.00       466.44
  224.72        2974.25           2488         143.00       619.02
  224.75        2974.50           2491         127.00       549.27
  224.79        2974.75           2495         125.00       540.55
  224.82        2975.00           2498          98.00       422.85
  224.85        2975.25           2502         115.00       496.96
  224.88        2975.50           2505         111.00       479.52
  224.91        2975.75           2509         116.00       501.32
  224.94        2976.00           2512          94.00       405.41
  224.97        2976.25           2516          86.00       370.54
  225.00        2976.50           2520         114.00       492.60
  225.03        2976.75           2523          98.00       422.85
  225.06        2977.00           2527          98.00       422.85
  225.09        2977.25           2530         113.00       488.24
  225.12        2977.50           2534          85.00       366.18
  225.15        2977.75           2537          92.00       396.69
  225.18        2978.00           2541          93.00       401.05
  225.21        2978.25           2544          89.00       383.61
  225.24        2978.50           2548          82.00       353.10
  225.27        2978.75           2552          79.00       340.02
  225.31        2979.00           2555          80.00       344.38
  225.34        2979.25           2559         100.00       431.57
  225.37        2979.50           2562          75.00       322.58
  225.40        2979.75           2566          86.00       370.54
  225.43        2980.00           2569          82.00       353.10
  225.46        2980.25           2573          79.00       340.02
  225.49        2980.50           2577          88.00       379.26
  225.52        2980.75           2580          82.00       353.10
  225.55        2981.00           2584          84.00       361.82
  225.58        2981.25           2587          78.00       335.66
  225.61        2981.50           2591          81.00       348.74
  225.64        2981.75           2594          78.00       335.66
  225.67        2982.00           2598          81.00       348.74
  225.70        2982.25           2601          79.00       340.02
  225.73        2982.50           2605          75.00       322.58
  225.76        2982.75           2609          81.00       348.74
  225.80        2983.00           2612          83.00       357.46
  225.83        2983.25           2616          83.00       357.46
  225.86        2983.50           2619          83.00       357.46
  225.89        2983.75           2623          81.00       348.74
  225.92        2984.00           2626          77.00       331.30
HS scan finished at 03:46:08
end
************************************************************
  HS Scan of (1) Internal mercury lamp
************************************************************
Integration time is 0.2294 seconds per sample
dh100318Reading 51.44 .94 3.13pr1000
************************************************************
Dead Time -------------------------  3.4E-08 
Number of Cycles Used -------------  4 
Starting Wavelength (Angstroms) ---  2950 
Final Wavelength (Angstoms) -------  2984 
Wavelength Increment (Angstroms) --  .25 
Filter Wheel #1 Position ---------- (1) Ground quartz diffuser (ND=2.32)
Filter Wheel #2 Position ---------- (1) Neutral Density 0.494



************************************************************
HS scan start time = 19:07:21
Dark Count =  1.1 


Time (GMT)  Wavelength (Ang)  Step Number  Raw Counts  Counts/Second

 1148.24        2950.00           2144          76.00       326.51
 1148.44        2950.25           2147          70.00       300.35
 1148.47        2950.50           2151          72.00       309.07
 1148.50        2950.75           2155          71.00       304.71
 1148.53        2951.00           2158          69.00       295.99
 1148.56        2951.25           2162          74.00       317.79
 1148.59        2951.50           2165          76.00       326.51
 1148.62        2951.75           2169          76.00       326.51
 1148.65        2952.00           2172          82.00       352.66
 1148.68        2952.25           2176          73.00       313.43
 1148.71        2952.50           2179          84.00       361.38
 1148.74        2952.75           2183          69.00       295.99
 1148.77        2953.00           2186          74.00       317.79
 1148.81        2953.25           2190          74.00       317.79
 1148.84        2953.50           2193          78.00       335.23
 1148.87        2953.75           2197          77.00       330.87
 1148.90        2954.00           2200          75.00       322.15
 1148.93        2954.25           2204          76.00       326.51
 1148.96        2954.50           2208          79.00       339.59
 1148.99        2954.75           2211          82.00       352.66
 1149.02        2955.00           2215          73.00       313.43
 1149.05        2955.25           2218          77.00       330.87
 1149.08        2955.50           2222          82.00       352.66
 1149.11        2955.75           2225          79.00       339.59
 1149.14        2956.00           2229          76.00       326.51
 1149.17        2956.25           2232          79.00       339.59
 1149.20        2956.50           2236          79.00       339.59
 1149.23        2956.75           2239          81.00       348.30
 1149.26        2957.00           2243          72.00       309.07
 1149.29        2957.25           2246          85.00       365.74
 1149.33        2957.50           2250          79.00       339.59
 1149.36        2957.75           2254          79.00       339.59
 1149.39        2958.00           2257          83.00       357.02
 1149.42        2958.25           2261          85.00       365.74
 1149.45        2958.50           2264          86.00       370.10
 1149.48        2958.75           2268          96.00       413.69
 1149.51        2959.00           2271          89.00       383.18
 1149.54        2959.25           2275          78.00       335.23
 1149.57        2959.50           2278         100.00       431.13
 1149.60        2959.75           2282         114.00       492.16
 1149.63        2960.00           2285         111.00       479.08
 1149.66        2960.25           2289          97.00       418.05
 1149.69        2960.50           2293         117.00       505.24
 1149.72        2960.75           2296          98.00       422.41
 1149.75        2961.00           2300         135.00       583.71
 1149.78        2961.25           2303         305.00      1324.82
 1149.81        2961.50           2307        1056.00      4599.24
 1149.85        2961.75           2310        1886.00      8218.95
 1149.88        2962.00           2314        3185.00     13885.80
 1149.91        2962.25           2317        4139.00     18049.00
 1149.94        2962.50           2321        5432.00     23693.45
 1149.97        2962.75           2324        6470.00     28226.29
 1150.00        2963.00           2328        8001.00     34914.57
 1150.03        2963.25           2331        9178.00     40058.45
 1150.06        2963.50           2335       10540.00     46013.08
 1150.09        2963.75           2339       11992.00     52363.86
 1150.12        2964.00           2342       12913.00     56393.56
 1150.15        2964.25           2346       14422.00     62998.35
 1150.18        2964.50           2349       15569.00     68020.70
 1150.21        2964.75           2353       17130.00     74858.56
 1150.24        2965.00           2356       18195.00     79525.55
 1150.27        2965.25           2360       19435.00     84961.29
 1150.30        2965.50           2363       20304.00     88771.89
 1150.33        2965.75           2367       21717.00     94970.06
 1150.36        2966.00           2370       22725.00     99393.31
 1150.40        2966.25           2374       23778.00    104015.40
 1150.43        2966.50           2378       25044.00    109574.40
 1150.46        2966.75           2381       25214.00    110321.10
 1150.49        2967.00           2385       25036.00    109539.30
 1150.52        2967.25           2388       25004.00    109398.80
 1150.55        2967.50           2392       24749.00    108278.90
 1150.58        2967.75           2395       24417.00    106821.00
 1150.61        2968.00           2399       24042.00    105174.50
 1150.64        2968.25           2402       23420.00    102443.80
 1150.67        2968.50           2406       21735.00     95049.05
 1150.70        2968.75           2409       20599.00     90065.71
 1150.73        2969.00           2413       19293.00     84338.71
 1150.76        2969.25           2417       17871.00     78105.58
 1150.79        2969.50           2420       16863.00     73688.75
 1150.82        2969.75           2424       15256.00     66650.00
 1150.85        2970.00           2427       14156.00     61833.87
 1150.88        2970.25           2431       12727.00     55579.65
 1150.92        2970.50           2434       11427.00     49892.33
 1150.95        2970.75           2438        9856.00     43022.35
 1150.98        2971.00           2441        8750.00     38187.74
 1151.01        2971.25           2445        7302.00     31860.56
 1151.04        2971.50           2449        5913.00     25793.76
 1151.07        2971.75           2452        4804.00     20951.71
 1151.10        2972.00           2456        3325.00     14496.68
 1151.13        2972.25           2459        2371.00     10334.49
 1151.16        2972.50           2463        1210.00      5270.78
 1151.19        2972.75           2466         590.00      2567.36
 1151.22        2973.00           2470         200.00       867.07
 1151.25        2973.25           2473         148.00       640.38
 1151.28        2973.50           2477         126.00       544.47
 1151.31        2973.75           2481         120.00       518.32
 1151.34        2974.00           2484         103.00       444.21
 1151.37        2974.25           2488         100.00       431.13
 1151.40        2974.50           2491          99.00       426.77
 1151.44        2974.75           2495         106.00       457.29
 1151.47        2975.00           2498         114.00       492.16
 1151.50        2975.25           2502          96.00       413.69
 1151.53        2975.50           2505          92.00       396.26
 1151.56        2975.75           2509          87.00       374.46
 1151.59        2976.00           2512          89.00       383.18
 1151.62        2976.25           2516          95.00       409.33
 1151.65        2976.50           2520          87.00       374.46
 1151.68        2976.75           2523          85.00       365.74
 1151.71        2977.00           2527          78.00       335.23
 1151.74        2977.25           2530          79.00       339.59
 1151.77        2977.50           2534          84.00       361.38
 1151.80        2977.75           2537          80.00       343.94
 1151.83        2978.00           2541          86.00       370.10
 1151.86        2978.25           2544          82.00       352.66
 1151.89        2978.50           2548          73.00       313.43
 1151.92        2978.75           2552          75.00       322.15
 1151.96        2979.00           2555          77.00       330.87
 1151.99        2979.25           2559          81.00       348.30
 1152.02        2979.50           2562          79.00       339.59
 1152.05        2979.75           2566          74.00       317.79
 1152.08        2980.00           2569          83.00       357.02
 1152.12        2980.25           2573          78.00       335.23
 1152.15        2980.50           2577          70.00       300.35
 1152.18        2980.75           2580          80.00       343.94
 1152.21        2981.00           2584          71.00       304.71
 1152.24        2981.25           2587          82.00       352.66
 1152.27        2981.50           2591          73.00       313.43
 1152.30        2981.75           2594          73.00       313.43
 1152.33        2982.00           2598          74.00       317.79
 1152.36        2982.25           2601          78.00       335.23
 1152.39        2982.50           2605          71.00       304.71
 1152.42        2982.75           2609          73.00       313.43
 1152.45        2983.00           2612          74.00       317.79
 1152.48        2983.25           2616          69.00       295.99
 1152.51        2983.50           2619          67.00       287.27
 1152.54        2983.75           2623          76.00       326.51
 1152.57        2984.00           2626          74.00       317.79
HS scan finished at 19:12:48
end
