************************************************************
  HS Scan of (1) Internal mercury lamp
************************************************************
Integration time is 0.2294 seconds per sample
dh030319Reading 51.44 .94 2.98pr1000
************************************************************
Dead Time -------------------------  3.4E-08 
Number of Cycles Used -------------  4 
Starting Wavelength (Angstroms) ---  2950 
Final Wavelength (Angstoms) -------  2984 
Wavelength Increment (Angstroms) --  .25 
Filter Wheel #1 Position ---------- (1) Ground quartz diffuser (ND=2.32)
Filter Wheel #2 Position ---------- (1) Neutral Density 0.494



************************************************************
HS scan start time = 04:00:42
Dark Count =  .8 


Time (GMT)  Wavelength (Ang)  Step Number  Raw Counts  Counts/Second

  241.59        2950.00           2144        1580.00      6885.66
  241.78        2950.25           2147        1663.00      7247.64
  241.81        2950.50           2151        1605.00      6994.69
  241.85        2950.75           2155        1637.00      7134.25
  241.88        2951.00           2158        1646.00      7173.50
  241.91        2951.25           2162        1622.00      7068.83
  241.94        2951.50           2165        1643.00      7160.42
  241.97        2951.75           2169        1644.00      7164.78
  242.00        2952.00           2172        1653.00      7204.03
  242.03        2952.25           2176        1656.00      7217.12
  242.06        2952.50           2179        1656.00      7217.12
  242.09        2952.75           2183        1691.00      7369.76
  242.12        2953.00           2186        1673.00      7291.26
  242.15        2953.25           2190        1671.00      7282.54
  242.18        2953.50           2193        1671.00      7282.54
  242.21        2953.75           2197        1683.00      7334.87
  242.24        2954.00           2200        1722.00      7504.97
  242.27        2954.25           2204        1683.00      7334.87
  242.30        2954.50           2208        1774.00      7731.76
  242.33        2954.75           2211        1714.00      7470.07
  242.37        2955.00           2215        1716.00      7478.80
  242.40        2955.25           2218        1740.00      7583.47
  242.43        2955.50           2222        1769.00      7709.95
  242.46        2955.75           2225        1763.00      7683.79
  242.49        2956.00           2229        1755.00      7648.89
  242.52        2956.25           2232        1790.00      7801.55
  242.55        2956.50           2236        1789.00      7797.18
  242.58        2956.75           2239        1809.00      7884.42
  242.61        2957.00           2243        1799.00      7840.80
  242.64        2957.25           2246        1841.00      8023.99
  242.67        2957.50           2250        1855.00      8085.05
  242.70        2957.75           2254        1820.00      7932.39
  242.73        2958.00           2257        1882.00      8202.81
  242.76        2958.25           2261        1892.00      8246.43
  242.79        2958.50           2264        1952.00      8508.13
  242.82        2958.75           2268        1923.00      8381.64
  242.85        2959.00           2271        1927.00      8399.09
  242.89        2959.25           2275        1929.00      8407.81
  242.92        2959.50           2278        2008.00      8752.39
  242.95        2959.75           2282        2048.00      8926.86
  242.98        2960.00           2285        2070.00      9022.82
  243.01        2960.25           2289        2005.00      8739.30
  243.04        2960.50           2293        2168.00      9450.29
  243.07        2960.75           2296        2172.00      9467.74
  243.10        2961.00           2300        2278.00      9930.12
  243.13        2961.25           2303        2977.00     12979.57
  243.16        2961.50           2307        8235.00     35938.39
  243.19        2961.75           2310       17803.00     77808.88
  243.22        2962.00           2314       37463.00    164219.50
  243.25        2962.25           2317       56255.00    247293.70
  243.28        2962.50           2321       81331.00    358887.10
  243.31        2962.75           2324       99975.00    442412.30
  243.34        2963.00           2328      125029.00    555412.70
  243.37        2963.25           2331      146268.00    651897.70
  243.41        2963.50           2335      175124.00    784020.00
  243.44        2963.75           2339      202790.00    911833.60
  243.47        2964.00           2342      224440.00   1012647.00
  243.50        2964.25           2346      249699.00   1131162.00
  243.53        2964.50           2349      266607.00   1211042.00
  243.56        2964.75           2353      294144.00   1342094.00
  243.59        2965.00           2356      314418.00   1439350.00
  243.62        2965.25           2360      338523.00   1555849.00
  243.65        2965.50           2363      356747.00   1644559.00
  243.68        2965.75           2367      378833.00   1752813.00
  243.71        2966.00           2370      396855.00   1841760.00
  243.74        2966.25           2374      419300.00   1953320.00
  243.77        2966.50           2378      433971.00   2026717.00
  243.80        2966.75           2381      438229.00   2048090.00
  243.83        2967.00           2385      439578.00   2054868.00
  243.86        2967.25           2388      440306.00   2058527.00
  243.89        2967.50           2392      439120.00   2052567.00
  243.93        2967.75           2395      439237.00   2053155.00
  243.96        2968.00           2399      432968.00   2021687.00
  243.99        2968.25           2402      422391.00   1968752.00
  244.02        2968.50           2406      403149.00   1872955.00
  244.05        2968.75           2409      385488.00   1785594.00
  244.08        2969.00           2413      359245.00   1656762.00
  244.11        2969.25           2417      335025.00   1538884.00
  244.14        2969.50           2420      318300.00   1458048.00
  244.17        2969.75           2424      294869.00   1345560.00
  244.20        2970.00           2427      275649.00   1253942.00
  244.23        2970.25           2431      247848.00   1122444.00
  244.26        2970.50           2434      229319.00   1035463.00
  244.29        2970.75           2438      202373.00    909898.70
  244.32        2971.00           2441      181600.00    813837.50
  244.35        2971.25           2445      155587.00    694435.10
  244.38        2971.50           2449      129188.00    574256.00
  244.41        2971.75           2452      109635.00    485877.90
  244.45        2972.00           2456       86133.00    380354.40
  244.48        2972.25           2459       67875.00    298899.30
  244.51        2972.50           2463       42520.00    186528.80
  244.54        2972.75           2466       23087.00    100983.40
  244.57        2973.00           2470        6478.00     28262.55
  244.60        2973.25           2473        3127.00     13634.04
  244.63        2973.50           2477        2401.00     10466.67
  244.66        2973.75           2481        2236.00      9746.91
  244.69        2974.00           2484        2159.00      9411.03
  244.72        2974.25           2488        2081.00      9070.80
  244.75        2974.50           2491        2073.00      9035.91
  244.78        2974.75           2495        2043.00      8905.05
  244.81        2975.00           2498        1974.00      8604.09
  244.84        2975.25           2502        1941.00      8460.15
  244.87        2975.50           2505        1938.00      8447.06
  244.90        2975.75           2509        1944.00      8473.23
  244.93        2976.00           2512        1914.00      8342.38
  244.97        2976.25           2516        1918.00      8359.83
  245.00        2976.50           2520        1879.00      8189.73
  245.03        2976.75           2523        1831.00      7980.37
  245.06        2977.00           2527        1798.00      7836.44
  245.09        2977.25           2530        1812.00      7897.50
  245.12        2977.50           2534        1795.00      7823.35
  245.15        2977.75           2537        1765.00      7692.51
  245.18        2978.00           2541        1725.00      7518.05
  245.21        2978.25           2544        1737.00      7570.39
  245.24        2978.50           2548        1742.00      7592.20
  245.27        2978.75           2552        1712.00      7461.35
  245.30        2979.00           2555        1689.00      7361.04
  245.33        2979.25           2559        1644.00      7164.78
  245.36        2979.50           2562        1679.00      7317.43
  245.39        2979.75           2566        1630.00      7103.72
  245.42        2980.00           2569        1637.00      7134.25
  245.45        2980.25           2573        1673.00      7291.26
  245.49        2980.50           2577        1658.00      7225.84
  245.52        2980.75           2580        1598.00      6964.16
  245.55        2981.00           2584        1606.00      6999.05
  245.58        2981.25           2587        1589.00      6924.91
  245.61        2981.50           2591        1605.00      6994.69
  245.64        2981.75           2594        1605.00      6994.69
  245.67        2982.00           2598        1618.00      7051.39
  245.70        2982.25           2601        1605.00      6994.69
  245.73        2982.50           2605        1572.00      6850.77
  245.76        2982.75           2609        1595.00      6951.08
  245.79        2983.00           2612        1576.00      6868.21
  245.82        2983.25           2616        1550.00      6754.82
  245.85        2983.50           2619        1560.00      6798.43
  245.88        2983.75           2623        1567.00      6828.96
  245.91        2984.00           2626        1548.00      6746.10
HS scan finished at 04:06:08
end
************************************************************
  HS Scan of (1) Internal mercury lamp
************************************************************
Integration time is 0.2294 seconds per sample
dh030319Reading 51.44 .94 3pr1000
************************************************************
Dead Time -------------------------  3.4E-08 
Number of Cycles Used -------------  4 
Starting Wavelength (Angstroms) ---  2950 
Final Wavelength (Angstoms) -------  2984 
Wavelength Increment (Angstroms) --  .25 
Filter Wheel #1 Position ---------- (1) Ground quartz diffuser (ND=2.32)
Filter Wheel #2 Position ---------- (1) Neutral Density 0.494



************************************************************
HS scan start time = 18:37:23
Dark Count =  .8 


Time (GMT)  Wavelength (Ang)  Step Number  Raw Counts  Counts/Second

 1118.28        2950.00           2144        1394.00      6074.49
 1118.48        2950.25           2147        1364.00      5943.66
 1118.51        2950.50           2151        1398.00      6091.93
 1118.54        2950.75           2155        1418.00      6179.15
 1118.57        2951.00           2158        1383.00      6026.52
 1118.60        2951.25           2162        1372.00      5978.55
 1118.64        2951.50           2165        1394.00      6074.49
 1118.67        2951.75           2169        1394.00      6074.49
 1118.71        2952.00           2172        1423.00      6200.96
 1118.74        2952.25           2176        1431.00      6235.85
 1118.77        2952.50           2179        1421.00      6192.24
 1118.80        2952.75           2183        1424.00      6205.32
 1118.83        2953.00           2186        1435.00      6253.29
 1118.86        2953.25           2190        1413.00      6157.35
 1118.89        2953.50           2193        1432.00      6240.21
 1118.92        2953.75           2197        1438.00      6266.37
 1118.95        2954.00           2200        1417.00      6174.79
 1118.98        2954.25           2204        1484.00      6466.98
 1119.01        2954.50           2208        1468.00      6397.21
 1119.04        2954.75           2211        1459.00      6357.96
 1119.07        2955.00           2215        1443.00      6288.18
 1119.10        2955.25           2218        1469.00      6401.57
 1119.13        2955.50           2222        1479.00      6445.18
 1119.16        2955.75           2225        1485.00      6471.35
 1119.19        2956.00           2229        1482.00      6458.26
 1119.22        2956.25           2232        1473.00      6419.01
 1119.26        2956.50           2236        1551.00      6759.18
 1119.29        2956.75           2239        1528.00      6658.87
 1119.32        2957.00           2243        1539.00      6706.85
 1119.35        2957.25           2246        1515.00      6602.18
 1119.38        2957.50           2250        1560.00      6798.43
 1119.41        2957.75           2254        1614.00      7033.94
 1119.44        2958.00           2257        1609.00      7012.13
 1119.47        2958.25           2261        1641.00      7151.70
 1119.50        2958.50           2264        1638.00      7138.61
 1119.53        2958.75           2268        1638.00      7138.61
 1119.56        2959.00           2271        1697.00      7395.93
 1119.59        2959.25           2275        1648.00      7182.22
 1119.62        2959.50           2278        1682.00      7330.51
 1119.65        2959.75           2282        1717.00      7483.16
 1119.68        2960.00           2285        1708.00      7443.91
 1119.71        2960.25           2289        1719.00      7491.88
 1119.74        2960.50           2293        1816.00      7914.95
 1119.78        2960.75           2296        1832.00      7984.73
 1119.81        2961.00           2300        1914.00      8342.38
 1119.84        2961.25           2303        2256.00      9834.15
 1119.87        2961.50           2307        5301.00     23122.80
 1119.90        2961.75           2310       13431.00     58661.79
 1119.93        2962.00           2314       30077.00    131696.50
 1119.96        2962.25           2317       44111.00    193554.70
 1119.99        2962.50           2321       64508.00    283927.40
 1120.02        2962.75           2324       79472.00    350584.90
 1120.05        2963.00           2328      100918.00    446649.70
 1120.08        2963.25           2331      117972.00    523495.00
 1120.11        2963.50           2335      142620.00    635280.00
 1120.14        2963.75           2339      163677.00    731464.00
 1120.17        2964.00           2342      179577.00    804516.40
 1120.20        2964.25           2346      200829.00    902736.70
 1120.23        2964.50           2349      217622.00    980823.10
 1120.26        2964.75           2353      240949.00   1089997.00
 1120.30        2965.00           2356      257130.00   1166214.00
 1120.33        2965.25           2360      276831.00   1259560.00
 1120.36        2965.50           2363      290209.00   1323293.00
 1120.39        2965.75           2367      310715.00   1421537.00
 1120.42        2966.00           2370      325764.00   1494067.00
 1120.45        2966.25           2374      345128.00   1587937.00
 1120.48        2966.50           2378      360560.00   1663190.00
 1120.51        2966.75           2381      366880.00   1694124.00
 1120.54        2967.00           2385      369636.00   1707634.00
 1120.57        2967.25           2388      370125.00   1710033.00
 1120.60        2967.50           2392      370390.00   1711333.00
 1120.63        2967.75           2395      370650.00   1712608.00
 1120.66        2968.00           2399      368431.00   1701725.00
 1120.69        2968.25           2402      361563.00   1668095.00
 1120.72        2968.50           2406      343760.00   1581285.00
 1120.75        2968.75           2409      328993.00   1509677.00
 1120.78        2969.00           2413      309186.00   1414188.00
 1120.82        2969.25           2417      290221.00   1323350.00
 1120.85        2969.50           2420      275552.00   1253481.00
 1120.88        2969.75           2424      253665.00   1149859.00
 1120.91        2970.00           2427      235744.00   1065565.00
 1120.94        2970.25           2431      211828.00    953833.80
 1120.97        2970.50           2434      194038.00    871278.30
 1121.00        2970.75           2438      169601.00    758638.80
 1121.03        2971.00           2441      152896.00    682139.00
 1121.06        2971.25           2445      129857.00    577289.40
 1121.09        2971.50           2449      108551.00    480994.00
 1121.12        2971.75           2452       91241.00    403224.50
 1121.15        2972.00           2456       69444.00    305881.40
 1121.18        2972.25           2459       53176.00    233650.00
 1121.21        2972.50           2463       32785.00    143612.30
 1121.24        2972.75           2466       18871.00     82489.97
 1121.27        2973.00           2470        6995.00     30520.76
 1121.30        2973.25           2473        3395.00     14803.44
 1121.33        2973.50           2477        2070.00      9022.82
 1121.37        2973.75           2481        1846.00      8045.79
 1121.40        2974.00           2484        1818.00      7923.67
 1121.43        2974.25           2488        1789.00      7797.18
 1121.46        2974.50           2491        1770.00      7714.32
 1121.49        2974.75           2495        1783.00      7771.02
 1121.52        2975.00           2498        1723.00      7509.33
 1121.55        2975.25           2502        1663.00      7247.64
 1121.58        2975.50           2505        1633.00      7116.80
 1121.61        2975.75           2509        1680.00      7321.79
 1121.64        2976.00           2512        1608.00      7007.77
 1121.67        2976.25           2516        1640.00      7147.33
 1121.70        2976.50           2520        1559.00      6794.07
 1121.73        2976.75           2523        1533.00      6680.68
 1121.76        2977.00           2527        1560.00      6798.43
 1121.79        2977.25           2530        1541.00      6715.57
 1121.82        2977.50           2534        1497.00      6523.68
 1121.86        2977.75           2537        1531.00      6671.96
 1121.89        2978.00           2541        1480.00      6449.54
 1121.92        2978.25           2544        1450.00      6318.71
 1121.95        2978.50           2548        1473.00      6419.01
 1121.98        2978.75           2552        1478.00      6440.82
 1122.01        2979.00           2555        1455.00      6340.51
 1122.04        2979.25           2559        1471.00      6410.29
 1122.07        2979.50           2562        1439.00      6270.74
 1122.10        2979.75           2566        1394.00      6074.49
 1122.14        2980.00           2569        1398.00      6091.93
 1122.18        2980.25           2573        1429.00      6227.12
 1122.21        2980.50           2577        1391.00      6061.41
 1122.24        2980.75           2580        1398.00      6091.93
 1122.27        2981.00           2584        1408.00      6135.54
 1122.30        2981.25           2587        1342.00      5847.72
 1122.33        2981.50           2591        1362.00      5934.94
 1122.36        2981.75           2594        1354.00      5900.05
 1122.39        2982.00           2598        1351.00      5886.97
 1122.42        2982.25           2601        1321.00      5756.14
 1122.45        2982.50           2605        1332.00      5804.11
 1122.48        2982.75           2609        1338.00      5830.28
 1122.51        2983.00           2612        1334.00      5812.83
 1122.54        2983.25           2616        1320.00      5751.78
 1122.57        2983.50           2619        1298.00      5655.84
 1122.60        2983.75           2623        1296.00      5647.12
 1122.64        2984.00           2626        1320.00      5751.78
HS scan finished at 18:42:51
end
