************************************************************
  HS Scan of (1) Internal mercury lamp
************************************************************
Integration time is 0.2294 seconds per sample
dh060319Reading 51.44 .94 2.82pr1000
************************************************************
Dead Time -------------------------  3.4E-08 
Number of Cycles Used -------------  4 
Starting Wavelength (Angstroms) ---  2950 
Final Wavelength (Angstoms) -------  2984 
Wavelength Increment (Angstroms) --  .25 
Filter Wheel #1 Position ---------- (1) Ground quartz diffuser (ND=2.32)
Filter Wheel #2 Position ---------- (1) Neutral Density 0.494



************************************************************
HS scan start time = 03:52:44
Dark Count =  .6 


Time (GMT)  Wavelength (Ang)  Step Number  Raw Counts  Counts/Second

  233.63        2950.00           2144        1672.00      7287.77
  233.82        2950.25           2147        1669.00      7274.69
  233.85        2950.50           2151        1674.00      7296.49
  233.88        2950.75           2155        1650.00      7191.82
  233.91        2951.00           2158        1669.00      7274.69
  233.94        2951.25           2162        1670.00      7279.05
  233.98        2951.50           2165        1687.00      7353.19
  234.01        2951.75           2169        1678.00      7313.94
  234.04        2952.00           2172        1680.00      7322.66
  234.07        2952.25           2176        1728.00      7532.01
  234.10        2952.50           2179        1696.00      7392.44
  234.13        2952.75           2183        1716.00      7479.67
  234.16        2953.00           2186        1718.00      7488.39
  234.19        2953.25           2190        1680.00      7322.66
  234.22        2953.50           2193        1691.00      7370.64
  234.25        2953.75           2197        1717.00      7484.03
  234.28        2954.00           2200        1699.00      7405.53
  234.31        2954.25           2204        1745.00      7606.15
  234.34        2954.50           2208        1733.00      7553.82
  234.37        2954.75           2211        1738.00      7575.62
  234.40        2955.00           2215        1742.00      7593.07
  234.43        2955.25           2218        1750.00      7627.96
  234.46        2955.50           2222        1757.00      7658.49
  234.50        2955.75           2225        1800.00      7846.03
  234.53        2956.00           2229        1777.00      7745.72
  234.56        2956.25           2232        1795.00      7824.23
  234.59        2956.50           2236        1814.00      7907.10
  234.62        2956.75           2239        1839.00      8016.14
  234.65        2957.00           2243        1850.00      8064.11
  234.68        2957.25           2246        1854.00      8081.56
  234.71        2957.50           2250        1857.00      8094.64
  234.74        2957.75           2254        1919.00      8365.06
  234.77        2958.00           2257        1869.00      8146.98
  234.80        2958.25           2261        1923.00      8382.51
  234.83        2958.50           2264        1917.00      8356.34
  234.86        2958.75           2268        1970.00      8587.51
  234.89        2959.00           2271        1982.00      8639.85
  234.92        2959.25           2275        1999.00      8714.00
  234.95        2959.50           2278        2005.00      8740.17
  234.98        2959.75           2282        2057.00      8966.99
  235.02        2960.00           2285        2042.00      8901.56
  235.05        2960.25           2289        2115.00      9219.98
  235.08        2960.50           2293        2150.00      9372.65
  235.11        2960.75           2296        2167.00      9446.80
  235.14        2961.00           2300        2333.00     10170.91
  235.17        2961.25           2303        2906.00     12670.67
  235.20        2961.50           2307        6728.00     29355.35
  235.23        2961.75           2310       15559.00     67979.09
  235.26        2962.00           2314       34122.00    149499.90
  235.29        2962.25           2317       50423.00    221462.50
  235.32        2962.50           2321       75270.00    331837.10
  235.35        2962.75           2324       93578.00    413700.70
  235.38        2963.00           2328      117657.00    522072.80
  235.41        2963.25           2331      136453.00    607231.30
  235.44        2963.50           2335      159891.00    714124.30
  235.47        2963.75           2339      185330.00    831040.30
  235.50        2964.00           2342      206180.00    927573.80
  235.54        2964.25           2346      234410.00   1059311.00
  235.57        2964.50           2349      252942.00   1146450.00
  235.60        2964.75           2353      277375.00   1262147.00
  235.63        2965.00           2356      294031.00   1341554.00
  235.66        2965.25           2360      315246.00   1443337.00
  235.69        2965.50           2363      333399.00   1531006.00
  235.72        2965.75           2367      358315.00   1652219.00
  235.75        2966.00           2370      375441.00   1736135.00
  235.78        2966.25           2374      397727.00   1846079.00
  235.81        2966.50           2378      414130.00   1927546.00
  235.84        2966.75           2381      419940.00   1956515.00
  235.87        2967.00           2385      422448.00   1969038.00
  235.90        2967.25           2388      423179.00   1972690.00
  235.93        2967.50           2392      423232.00   1972955.00
  235.96        2967.75           2395      421904.00   1966321.00
  235.99        2968.00           2399      415794.00   1935837.00
  236.02        2968.25           2402      404170.00   1878023.00
  236.06        2968.50           2406      385200.00   1784175.00
  236.09        2968.75           2409      369856.00   1708715.00
  236.12        2969.00           2413      347245.00   1598238.00
  236.15        2969.25           2417      321861.00   1475222.00
  236.18        2969.50           2420      303603.00   1387388.00
  236.21        2969.75           2424      278896.00   1269380.00
  236.24        2970.00           2427      258861.00   1174393.00
  236.27        2970.25           2431      234274.00   1058673.00
  236.30        2970.50           2434      216541.00    975784.60
  236.33        2970.75           2438      190326.00    854112.70
  236.36        2971.00           2441      170596.00    763209.10
  236.39        2971.25           2445      144123.00    642125.30
  236.42        2971.50           2449      118854.00    527481.20
  236.45        2971.75           2452      100914.00    446632.60
  236.48        2972.00           2456       76945.00    339307.80
  236.51        2972.25           2459       58236.00    256079.60
  236.54        2972.50           2463       33352.00    146109.40
  236.58        2972.75           2466       17493.00     76451.30
  236.61        2973.00           2470        5589.00     24381.15
  236.64        2973.25           2473        2959.00     12901.91
  236.67        2973.50           2477        2341.00     10205.81
  236.70        2973.75           2481        2291.00      9987.70
  236.73        2974.00           2484        2147.00      9359.56
  236.76        2974.25           2488        2149.00      9368.28
  236.79        2974.50           2491        2108.00      9189.44
  236.82        2974.75           2495        2028.00      8840.50
  236.85        2975.00           2498        1966.00      8570.07
  236.88        2975.25           2502        1977.00      8618.04
  236.91        2975.50           2505        1973.00      8600.60
  236.94        2975.75           2509        1908.00      8317.09
  236.97        2976.00           2512        1891.00      8242.94
  237.00        2976.25           2516        1893.00      8251.66
  237.03        2976.50           2520        1907.00      8312.72
  237.06        2976.75           2523        1898.00      8273.47
  237.10        2977.00           2527        1825.00      7955.07
  237.13        2977.25           2530        1842.00      8029.22
  237.16        2977.50           2534        1861.00      8112.09
  237.19        2977.75           2537        1793.00      7815.50
  237.22        2978.00           2541        1792.00      7811.14
  237.25        2978.25           2544        1753.00      7641.04
  237.28        2978.50           2548        1716.00      7479.67
  237.31        2978.75           2552        1714.00      7470.95
  237.34        2979.00           2555        1736.00      7566.90
  237.37        2979.25           2559        1702.00      7418.61
  237.40        2979.50           2562        1725.00      7518.92
  237.43        2979.75           2566        1679.00      7318.30
  237.46        2980.00           2569        1709.00      7449.14
  237.49        2980.25           2573        1640.00      7148.21
  237.52        2980.50           2577        1679.00      7318.30
  237.55        2980.75           2580        1631.00      7108.95
  237.58        2981.00           2584        1626.00      7087.15
  237.61        2981.25           2587        1663.00      7248.52
  237.65        2981.50           2591        1667.00      7265.96
  237.68        2981.75           2594        1633.00      7117.68
  237.71        2982.00           2598        1593.00      6943.23
  237.74        2982.25           2601        1633.00      7117.68
  237.77        2982.50           2605        1583.00      6899.61
  237.80        2982.75           2609        1591.00      6934.50
  237.83        2983.00           2612        1574.00      6860.36
  237.86        2983.25           2616        1585.00      6908.34
  237.89        2983.50           2619        1579.00      6882.17
  237.92        2983.75           2623        1566.00      6825.47
  237.95        2984.00           2626        1548.00      6746.97
HS scan finished at 03:58:10
end
************************************************************
  HS Scan of (1) Internal mercury lamp
************************************************************
Integration time is 0.2294 seconds per sample
dh060319Reading 51.44 .94 3.05pr1000
************************************************************
Dead Time -------------------------  3.4E-08 
Number of Cycles Used -------------  4 
Starting Wavelength (Angstroms) ---  2950 
Final Wavelength (Angstoms) -------  2984 
Wavelength Increment (Angstroms) --  .25 
Filter Wheel #1 Position ---------- (1) Ground quartz diffuser (ND=2.32)
Filter Wheel #2 Position ---------- (1) Neutral Density 0.494



************************************************************
HS scan start time = 18:37:23
Dark Count =  .7 


Time (GMT)  Wavelength (Ang)  Step Number  Raw Counts  Counts/Second

 1118.28        2950.00           2144        1120.00      4880.06
 1118.47        2950.25           2147        1085.00      4727.44
 1118.51        2950.50           2151        1108.00      4827.73
 1118.54        2950.75           2155        1104.00      4810.29
 1118.57        2951.00           2158        1121.00      4884.42
 1118.60        2951.25           2162        1112.00      4845.18
 1118.63        2951.50           2165        1147.00      4997.80
 1118.66        2951.75           2169        1130.00      4923.67
 1118.69        2952.00           2172        1152.00      5019.60
 1118.72        2952.25           2176        1131.00      4928.03
 1118.75        2952.50           2179        1137.00      4954.19
 1118.78        2952.75           2183        1157.00      5041.41
 1118.81        2953.00           2186        1135.00      4945.47
 1118.84        2953.25           2190        1139.00      4962.91
 1118.87        2953.50           2193        1152.00      5019.60
 1118.90        2953.75           2197        1168.00      5089.37
 1118.93        2954.00           2200        1159.00      5050.13
 1118.96        2954.25           2204        1172.00      5106.82
 1118.99        2954.50           2208        1149.00      5006.52
 1119.03        2954.75           2211        1164.00      5071.93
 1119.06        2955.00           2215        1187.00      5172.23
 1119.09        2955.25           2218        1215.00      5294.33
 1119.12        2955.50           2222        1219.00      5311.77
 1119.15        2955.75           2225        1191.00      5189.67
 1119.18        2956.00           2229        1203.00      5242.00
 1119.21        2956.25           2232        1252.00      5455.68
 1119.24        2956.50           2236        1233.00      5372.82
 1119.27        2956.75           2239        1217.00      5303.05
 1119.30        2957.00           2243        1258.00      5481.84
 1119.33        2957.25           2246        1272.00      5542.89
 1119.36        2957.50           2250        1262.00      5499.29
 1119.39        2957.75           2254        1274.00      5551.62
 1119.42        2958.00           2257        1269.00      5529.81
 1119.45        2958.25           2261        1298.00      5656.28
 1119.48        2958.50           2264        1290.00      5621.39
 1119.51        2958.75           2268        1289.00      5617.03
 1119.55        2959.00           2271        1352.00      5891.76
 1119.58        2959.25           2275        1333.00      5808.91
 1119.61        2959.50           2278        1349.00      5878.68
 1119.64        2959.75           2282        1378.00      6005.15
 1119.67        2960.00           2285        1399.00      6096.73
 1119.70        2960.25           2289        1464.00      6380.20
 1119.73        2960.50           2293        1473.00      6419.45
 1119.76        2960.75           2296        1463.00      6375.84
 1119.79        2961.00           2300        1525.00      6646.23
 1119.82        2961.25           2303        1676.00      7304.78
 1119.85        2961.50           2307        3358.00     14642.42
 1119.88        2961.75           2310        9323.00     40694.01
 1119.91        2962.00           2314       23270.00    101787.10
 1119.94        2962.25           2317       35817.00    156965.80
 1119.97        2962.50           2321       53584.00    235457.70
 1120.00        2962.75           2324       66139.00    291178.40
 1120.03        2963.00           2328       83731.00    369612.70
 1120.07        2963.25           2331       96493.00    426777.10
 1120.10        2963.50           2335      117179.00    519913.20
 1120.13        2963.75           2339      136743.00    608548.70
 1120.16        2964.00           2342      149810.00    668051.30
 1120.19        2964.25           2346      167676.00    749803.20
 1120.22        2964.50           2349      181405.00    812939.20
 1120.25        2964.75           2353      198885.00    893724.90
 1120.28        2965.00           2356      213043.00    959489.60
 1120.31        2965.25           2360      232491.00   1050317.00
 1120.34        2965.50           2363      246353.00   1115407.00
 1120.37        2965.75           2367      262479.00   1191499.00
 1120.40        2966.00           2370      274651.00   1249201.00
 1120.43        2966.25           2374      290705.00   1325662.00
 1120.46        2966.50           2378      301318.00   1376433.00
 1120.49        2966.75           2381      306406.00   1400837.00
 1120.52        2967.00           2385      308145.00   1409188.00
 1120.55        2967.25           2388      309092.00   1413737.00
 1120.59        2967.50           2392      308765.00   1412166.00
 1120.62        2967.75           2395      308124.00   1409087.00
 1120.65        2968.00           2399      305359.00   1395812.00
 1120.68        2968.25           2402      299031.00   1365477.00
 1120.71        2968.50           2406      285942.00   1302935.00
 1120.74        2968.75           2409      273453.00   1243512.00
 1120.77        2969.00           2413      256788.00   1164600.00
 1120.80        2969.25           2417      240286.00   1086883.00
 1120.83        2969.50           2420      227216.00   1025625.00
 1120.86        2969.75           2424      209540.00    943190.20
 1120.89        2970.00           2427      197713.00    888294.20
 1120.92        2970.25           2431      178780.00    800846.30
 1120.95        2970.50           2434      164109.00    733444.40
 1120.98        2970.75           2438      144133.00    642170.30
 1121.01        2971.00           2441      129928.00    577611.70
 1121.05        2971.25           2445      111696.00    495168.70
 1121.08        2971.50           2449       95166.00    420822.70
 1121.11        2971.75           2452       82759.00    365268.10
 1121.14        2972.00           2456       65316.00    287519.30
 1121.17        2972.25           2459       51907.00    228031.00
 1121.20        2972.50           2463       33268.00    145739.10
 1121.23        2972.75           2466       20086.00     87817.62
 1121.26        2973.00           2470        6925.00     30215.42
 1121.29        2973.25           2473        2948.00     12853.48
 1121.33        2973.50           2477        1713.00      7466.15
 1121.36        2973.75           2481        1540.00      6711.64
 1121.39        2974.00           2484        1513.00      6593.89
 1121.42        2974.25           2488        1461.00      6367.12
 1121.45        2974.50           2491        1438.00      6266.81
 1121.48        2974.75           2495        1393.00      6070.56
 1121.51        2975.00           2498        1383.00      6026.95
 1121.54        2975.25           2502        1339.00      5835.07
 1121.57        2975.50           2505        1355.00      5904.85
 1121.60        2975.75           2509        1323.00      5765.30
 1121.63        2976.00           2512        1339.00      5835.07
 1121.66        2976.25           2516        1269.00      5529.81
 1121.69        2976.50           2520        1283.00      5590.86
 1121.72        2976.75           2523        1263.00      5503.65
 1121.75        2977.00           2527        1237.00      5390.26
 1121.78        2977.25           2530        1226.00      5342.30
 1121.82        2977.50           2534        1206.00      5255.08
 1121.85        2977.75           2537        1234.00      5377.18
 1121.88        2978.00           2541        1200.00      5228.92
 1121.91        2978.25           2544        1204.00      5246.36
 1121.94        2978.50           2548        1188.00      5176.59
 1121.97        2978.75           2552        1143.00      4980.36
 1122.00        2979.00           2555        1164.00      5071.93
 1122.03        2979.25           2559        1181.00      5146.06
 1122.06        2979.50           2562        1136.00      4949.83
 1122.09        2979.75           2566        1141.00      4971.63
 1122.12        2980.00           2569        1154.00      5028.32
 1122.15        2980.25           2573        1111.00      4840.81
 1122.18        2980.50           2577        1132.00      4932.39
 1122.21        2980.75           2580        1132.00      4932.39
 1122.24        2981.00           2584        1170.00      5098.09
 1122.27        2981.25           2587        1100.00      4792.85
 1122.30        2981.50           2591        1110.00      4836.45
 1122.34        2981.75           2594        1098.00      4784.13
 1122.37        2982.00           2598        1085.00      4727.44
 1122.40        2982.25           2601        1053.00      4587.90
 1122.43        2982.50           2605        1085.00      4727.44
 1122.46        2982.75           2609        1081.00      4710.00
 1122.49        2983.00           2612        1055.00      4596.62
 1122.52        2983.25           2616        1058.00      4609.70
 1122.55        2983.50           2619        1067.00      4648.95
 1122.58        2983.75           2623        1056.00      4600.98
 1122.61        2984.00           2626        1034.00      4505.05
HS scan finished at 18:42:50
end
