************************************************************
  HS Scan of 
************************************************************
Integration time is 0.2294 seconds per sample
dh080317Reading 51.44 .94 2.88pr1000
************************************************************
Dead Time -------------------------  3.4E-08 
Number of Cycles Used -------------  4 
Starting Wavelength (Angstroms) ---  2950 
Final Wavelength (Angstoms) -------  2984 
Wavelength Increment (Angstroms) --  .25 
Filter Wheel #1 Position ---------- (1) Ground quartz diffuser (ND=2.32)
Filter Wheel #2 Position ---------- (1) Neutral Density 0.494



************************************************************
HS scan start time = 03:45:49
Dark Count =  .9 


Time (GMT)  Wavelength (Ang)  Step Number  Raw Counts  Counts/Second

  226.72        2950.00           2144         966.00      4207.66
  226.92        2950.25           2147         971.00      4229.47
  226.95        2950.50           2151         927.00      4037.61
  226.98        2950.75           2155         949.00      4133.54
  227.01        2951.00           2158         950.00      4137.90
  227.04        2951.25           2162         940.00      4094.29
  227.07        2951.50           2165         933.00      4063.77
  227.10        2951.75           2169         976.00      4251.27
  227.13        2952.00           2172         968.00      4216.39
  227.16        2952.25           2176         948.00      4129.18
  227.19        2952.50           2179         974.00      4242.55
  227.22        2952.75           2183         954.00      4155.34
  227.25        2953.00           2186         940.00      4094.29
  227.28        2953.25           2190         953.00      4150.98
  227.31        2953.50           2193         955.00      4159.70
  227.34        2953.75           2197         976.00      4251.27
  227.38        2954.00           2200         995.00      4334.12
  227.41        2954.25           2204        1019.00      4438.77
  227.44        2954.50           2208         995.00      4334.12
  227.47        2954.75           2211         989.00      4307.95
  227.50        2955.00           2215        1012.00      4408.25
  227.54        2955.25           2218        1024.00      4460.57
  227.57        2955.50           2222        1010.00      4399.53
  227.60        2955.75           2225        1055.00      4595.75
  227.63        2956.00           2229        1014.00      4416.97
  227.66        2956.25           2232        1012.00      4408.25
  227.69        2956.50           2236        1032.00      4495.46
  227.72        2956.75           2239        1065.00      4639.35
  227.75        2957.00           2243        1037.00      4517.26
  227.78        2957.25           2246        1063.00      4630.63
  227.81        2957.50           2250        1059.00      4613.19
  227.84        2957.75           2254        1073.00      4674.24
  227.87        2958.00           2257        1129.00      4918.43
  227.90        2958.25           2261        1089.00      4744.01
  227.93        2958.50           2264        1091.00      4752.73
  227.96        2958.75           2268        1097.00      4778.89
  227.99        2959.00           2271        1138.00      4957.68
  228.02        2959.25           2275        1155.00      5031.81
  228.06        2959.50           2278        1159.00      5049.25
  228.09        2959.75           2282        1175.00      5119.03
  228.12        2960.00           2285        1185.00      5162.63
  228.16        2960.25           2289        1174.00      5114.66
  228.19        2960.50           2293        1243.00      5415.56
  228.22        2960.75           2296        1246.00      5428.64
  228.25        2961.00           2300        1359.00      5921.42
  228.28        2961.25           2303        1599.00      6968.09
  228.31        2961.50           2307        4275.00     18643.46
  228.34        2961.75           2310       11160.00     48725.39
  228.37        2962.00           2314       24635.00    107779.20
  228.40        2962.25           2317       35735.00    156603.60
  228.43        2962.50           2321       49703.00    218275.20
  228.46        2962.75           2324       60526.00    266240.10
  228.49        2963.00           2328       76694.00    338186.70
  228.52        2963.25           2331       89634.00    396025.10
  228.55        2963.50           2335      106787.00    473049.30
  228.58        2963.75           2339      121746.00    540555.10
  228.61        2964.00           2342      132753.00    590427.10
  228.64        2964.25           2346      148254.00    660952.10
  228.68        2964.50           2349      160326.00    716114.10
  228.71        2964.75           2353      177357.00    794293.90
  228.74        2965.00           2356      188413.00    845272.40
  228.77        2965.25           2360      202494.00    910459.60
  228.80        2965.50           2363      212970.00    959148.80
  228.83        2965.75           2367      226761.00   1023496.00
  228.86        2966.00           2370      238543.00   1078698.00
  228.89        2966.25           2374      252408.00   1143930.00
  228.92        2966.50           2378      264466.00   1200902.00
  228.95        2966.75           2381      268299.00   1219059.00
  228.98        2967.00           2385      269662.00   1225522.00
  229.01        2967.25           2388      269731.00   1225849.00
  229.04        2967.50           2392      269366.00   1224118.00
  229.07        2967.75           2395      269291.00   1223762.00
  229.10        2968.00           2399      267833.00   1216851.00
  229.13        2968.25           2402      262595.00   1192047.00
  229.16        2968.50           2406      249123.00   1128448.00
  229.20        2968.75           2409      237647.00   1074492.00
  229.23        2969.00           2413      223229.00   1006989.00
  229.26        2969.25           2417      208690.00    939236.80
  229.29        2969.50           2420      198232.00    890697.90
  229.32        2969.75           2424      182061.00    815961.90
  229.35        2970.00           2427      167797.00    750357.50
  229.38        2970.25           2431      150087.00    669314.40
  229.41        2970.50           2434      137948.00    614024.70
  229.44        2970.75           2438      121355.00    538786.60
  229.47        2971.00           2441      109675.00    486057.70
  229.50        2971.25           2445       94279.00    416843.00
  229.53        2971.50           2449       78597.00    346678.30
  229.56        2971.75           2452       67255.00    296140.80
  229.59        2972.00           2456       50579.00    222151.60
  229.62        2972.25           2459       38289.00    167860.70
  229.65        2972.50           2463       22858.00     99977.89
  229.68        2972.75           2466       13388.00     58473.16
  229.72        2973.00           2470        4702.00     20507.32
  229.75        2973.25           2473        2233.00      9733.39
  229.78        2973.50           2477        1413.00      6156.91
  229.81        2973.75           2481        1301.00      5668.49
  229.84        2974.00           2484        1303.00      5677.21
  229.87        2974.25           2488        1233.00      5371.95
  229.90        2974.50           2491        1266.00      5515.86
  229.93        2974.75           2495        1209.00      5267.29
  229.96        2975.00           2498        1179.00      5136.47
  230.00        2975.25           2502        1190.00      5184.44
  230.03        2975.50           2505        1157.00      5040.53
  230.06        2975.75           2509        1159.00      5049.25
  230.09        2976.00           2512        1140.00      4966.40
  230.12        2976.25           2516        1132.00      4931.52
  230.15        2976.50           2520        1117.00      4866.11
  230.18        2976.75           2523        1073.00      4674.24
  230.21        2977.00           2527        1074.00      4678.60
  230.24        2977.25           2530        1073.00      4674.24
  230.27        2977.50           2534        1038.00      4521.62
  230.30        2977.75           2537        1046.00      4556.50
  230.33        2978.00           2541        1024.00      4460.57
  230.36        2978.25           2544        1046.00      4556.50
  230.39        2978.50           2548        1009.00      4395.16
  230.43        2978.75           2552        1026.00      4469.29
  230.46        2979.00           2555        1009.00      4395.16
  230.49        2979.25           2559         985.00      4290.51
  230.52        2979.50           2562         978.00      4259.99
  230.55        2979.75           2566         979.00      4264.35
  230.58        2980.00           2569         981.00      4273.07
  230.61        2980.25           2573         970.00      4225.11
  230.64        2980.50           2577         932.00      4059.41
  230.67        2980.75           2580         938.00      4085.57
  230.70        2981.00           2584         929.00      4046.33
  230.73        2981.25           2587         949.00      4133.54
  230.76        2981.50           2591         962.00      4190.22
  230.79        2981.75           2594         932.00      4059.41
  230.82        2982.00           2598         930.00      4050.69
  230.85        2982.25           2601         951.00      4142.26
  230.88        2982.50           2605         932.00      4059.41
  230.91        2982.75           2609         929.00      4046.33
  230.95        2983.00           2612         909.00      3959.12
  230.98        2983.25           2616         914.00      3980.92
  231.01        2983.50           2619         920.00      4007.08
  231.04        2983.75           2623         890.00      3876.27
  231.07        2984.00           2626         926.00      4033.25
HS scan finished at 03:51:17
end
************************************************************
  HS Scan of 
************************************************************
Integration time is 0.2294 seconds per sample
dh080317Reading 51.44 .94 3.23pr1000
************************************************************
Dead Time -------------------------  3.4E-08 
Number of Cycles Used -------------  4 
Starting Wavelength (Angstroms) ---  2950 
Final Wavelength (Angstoms) -------  2984 
Wavelength Increment (Angstroms) --  .25 
Filter Wheel #1 Position ---------- (1) Ground quartz diffuser (ND=2.32)
Filter Wheel #2 Position ---------- (1) Neutral Density 0.494



************************************************************
HS scan start time = 18:37:22
Dark Count =  1.5 


Time (GMT)  Wavelength (Ang)  Step Number  Raw Counts  Counts/Second

 1118.27        2950.00           2144         817.00      3555.36
 1118.46        2950.25           2147         835.00      3633.84
 1118.49        2950.50           2151         837.00      3642.56
 1118.52        2950.75           2155         850.00      3699.24
 1118.56        2951.00           2158         835.00      3633.84
 1118.59        2951.25           2162         843.00      3668.72
 1118.62        2951.50           2165         845.00      3677.44
 1118.65        2951.75           2169         881.00      3834.41
 1118.68        2952.00           2172         865.00      3764.65
 1118.71        2952.25           2176         802.00      3489.95
 1118.74        2952.50           2179         884.00      3847.50
 1118.77        2952.75           2183         872.00      3795.17
 1118.80        2953.00           2186         863.00      3755.93
 1118.83        2953.25           2190         864.00      3760.29
 1118.86        2953.50           2193         874.00      3803.89
 1118.89        2953.75           2197         874.00      3803.89
 1118.92        2954.00           2200         870.00      3786.45
 1118.95        2954.25           2204         859.00      3738.49
 1118.98        2954.50           2208         887.00      3860.58
 1119.01        2954.75           2211         887.00      3860.58
 1119.04        2955.00           2215         894.00      3891.10
 1119.08        2955.25           2218         889.00      3869.30
 1119.11        2955.50           2222         890.00      3873.66
 1119.14        2955.75           2225         916.00      3987.03
 1119.17        2956.00           2229         930.00      4048.07
 1119.20        2956.25           2232         905.00      3939.06
 1119.23        2956.50           2236         923.00      4017.55
 1119.26        2956.75           2239         942.00      4100.40
 1119.29        2957.00           2243         940.00      4091.68
 1119.32        2957.25           2246         932.00      4056.79
 1119.35        2957.50           2250         940.00      4091.68
 1119.38        2957.75           2254         960.00      4178.89
 1119.41        2958.00           2257         995.00      4331.50
 1119.44        2958.25           2261         937.00      4078.60
 1119.47        2958.50           2264         983.00      4279.18
 1119.50        2958.75           2268         996.00      4335.86
 1119.53        2959.00           2271         997.00      4340.22
 1119.56        2959.25           2275         993.00      4322.78
 1119.60        2959.50           2278        1030.00      4484.12
 1119.63        2959.75           2282        1043.00      4540.81
 1119.66        2960.00           2285        1056.00      4597.49
 1119.69        2960.25           2289        1097.00      4776.28
 1119.72        2960.50           2293        1109.00      4828.60
 1119.75        2960.75           2296        1113.00      4846.05
 1119.78        2961.00           2300        1218.00      5303.92
 1119.81        2961.25           2303        1690.00      7362.35
 1119.84        2961.50           2307        5837.00     25460.13
 1119.87        2961.75           2310       12723.00     55560.40
 1119.90        2962.00           2314       24253.00    106099.10
 1119.93        2962.25           2317       33700.00    147637.70
 1119.96        2962.50           2321       47048.00    206530.20
 1119.99        2962.75           2324       57807.00    254172.70
 1120.02        2963.00           2328       71998.00    317250.70
 1120.05        2963.25           2331       81704.00    360550.30
 1120.08        2963.50           2335       94538.00    418002.00
 1120.11        2963.75           2339      107574.00    476590.30
 1120.15        2964.00           2342      118391.00    525385.00
 1120.18        2964.25           2346      132931.00    591232.20
 1120.21        2964.50           2349      142998.00    636997.80
 1120.24        2964.75           2353      155336.00    693284.60
 1120.27        2965.00           2356      164936.00    737231.80
 1120.30        2965.25           2360      176659.00    791078.80
 1120.33        2965.50           2363      184856.00    828849.00
 1120.36        2965.75           2367      197173.00    885789.10
 1120.39        2966.00           2370      207445.00    933447.20
 1120.42        2966.25           2374      219242.00    988374.90
 1120.45        2966.50           2378      226402.00   1021815.00
 1120.48        2966.75           2381      228018.00   1029373.00
 1120.51        2967.00           2385      228471.00   1031492.00
 1120.54        2967.25           2388      228314.00   1030757.00
 1120.57        2967.50           2392      228886.00   1033434.00
 1120.60        2967.75           2395      227983.00   1029209.00
 1120.64        2968.00           2399      223498.00   1008243.00
 1120.67        2968.25           2402      216383.00    975044.10
 1120.70        2968.50           2406      205369.00    923802.70
 1120.73        2968.75           2409      196162.00    881106.90
 1120.76        2969.00           2413      184126.00    825481.30
 1120.79        2969.25           2417      171679.00    768179.90
 1120.82        2969.50           2420      161549.00    721711.60
 1120.85        2969.75           2424      148656.00    662782.90
 1120.88        2970.00           2427      138946.00    618559.60
 1120.91        2970.25           2431      124195.00    551633.90
 1120.94        2970.50           2434      114208.00    506496.40
 1120.97        2970.75           2438      101458.00    449073.60
 1121.00        2971.00           2441       91771.00    405596.40
 1121.03        2971.25           2445       75543.00    333050.50
 1121.06        2971.50           2449       60887.00    267840.00
 1121.09        2971.75           2452       50929.00    223698.00
 1121.12        2972.00           2456       37738.00    165428.70
 1121.15        2972.25           2459       28589.00    125150.00
 1121.19        2972.50           2463       16585.00     72469.10
 1121.22        2972.75           2466        8288.00     36166.95
 1121.25        2973.00           2470        2486.00     10834.42
 1121.28        2973.25           2473        1417.00      6171.74
 1121.31        2973.50           2477        1196.00      5207.98
 1121.34        2973.75           2481        1137.00      4950.70
 1121.37        2974.00           2484        1131.00      4924.54
 1121.40        2974.25           2488        1088.00      4737.03
 1121.43        2974.50           2491        1088.00      4737.03
 1121.46        2974.75           2495        1054.00      4588.77
 1121.49        2975.00           2498        1021.00      4444.87
 1121.52        2975.25           2502        1014.00      4414.35
 1121.55        2975.50           2505         989.00      4305.34
 1121.58        2975.75           2509        1013.00      4409.99
 1121.61        2976.00           2512        1001.00      4357.66
 1121.64        2976.25           2516         971.00      4226.85
 1121.67        2976.50           2520         979.00      4261.73
 1121.71        2976.75           2523         955.00      4157.08
 1121.74        2977.00           2527         918.00      3995.75
 1121.77        2977.25           2530         933.00      4061.15
 1121.80        2977.50           2534         914.00      3978.31
 1121.83        2977.75           2537         899.00      3912.90
 1121.86        2978.00           2541         922.00      4013.19
 1121.89        2978.25           2544         928.00      4039.35
 1121.92        2978.50           2548         929.00      4043.71
 1121.95        2978.75           2552         896.00      3899.82
 1121.98        2979.00           2555         895.00      3895.46
 1122.01        2979.25           2559         898.00      3908.54
 1122.04        2979.50           2562         880.00      3830.05
 1122.07        2979.75           2566         864.00      3760.29
 1122.10        2980.00           2569         836.00      3638.20
 1122.13        2980.25           2573         854.00      3716.69
 1122.16        2980.50           2577         834.00      3629.48
 1122.19        2980.75           2580         831.00      3616.40
 1122.23        2981.00           2584         853.00      3712.33
 1122.26        2981.25           2587         863.00      3755.93
 1122.29        2981.50           2591         837.00      3642.56
 1122.32        2981.75           2594         836.00      3638.20
 1122.35        2982.00           2598         798.00      3472.51
 1122.38        2982.25           2601         817.00      3555.36
 1122.41        2982.50           2605         809.00      3520.47
 1122.44        2982.75           2609         835.00      3633.84
 1122.47        2983.00           2612         820.00      3568.44
 1122.50        2983.25           2616         823.00      3581.52
 1122.53        2983.50           2619         792.00      3446.35
 1122.56        2983.75           2623         817.00      3555.36
 1122.59        2984.00           2626         788.00      3428.91
HS scan finished at 18:42:49
end
