************************************************************
  HS Scan of (1) Internal mercury lamp
************************************************************
Integration time is 0.2294 seconds per sample
dh040319Reading 51.44 .94 2.66pr1000
************************************************************
Dead Time -------------------------  3.4E-08 
Number of Cycles Used -------------  4 
Starting Wavelength (Angstroms) ---  2950 
Final Wavelength (Angstoms) -------  2984 
Wavelength Increment (Angstroms) --  .25 
Filter Wheel #1 Position ---------- (1) Ground quartz diffuser (ND=2.32)
Filter Wheel #2 Position ---------- (1) Neutral Density 0.494



************************************************************
HS scan start time = 03:58:04
Dark Count =  .4 


Time (GMT)  Wavelength (Ang)  Step Number  Raw Counts  Counts/Second

  238.97        2950.00           2144        1711.00      7458.74
  239.17        2950.25           2147        1690.00      7367.15
  239.20        2950.50           2151        1692.00      7375.87
  239.23        2950.75           2155        1666.00      7262.47
  239.26        2951.00           2158        1703.00      7423.84
  239.29        2951.25           2162        1703.00      7423.84
  239.32        2951.50           2165        1688.00      7358.42
  239.35        2951.75           2169        1677.00      7310.45
  239.38        2952.00           2172        1693.00      7380.23
  239.41        2952.25           2176        1693.00      7380.23
  239.44        2952.50           2179        1701.00      7415.12
  239.47        2952.75           2183        1714.00      7471.82
  239.50        2953.00           2186        1727.00      7528.52
  239.53        2953.25           2190        1679.00      7319.17
  239.56        2953.50           2193        1718.00      7489.26
  239.60        2953.75           2197        1716.00      7480.54
  239.63        2954.00           2200        1705.00      7432.57
  239.66        2954.25           2204        1753.00      7641.92
  239.69        2954.50           2208        1732.00      7550.33
  239.72        2954.75           2211        1780.00      7759.68
  239.75        2955.00           2215        1815.00      7912.33
  239.78        2955.25           2218        1788.00      7794.57
  239.81        2955.50           2222        1790.00      7803.29
  239.84        2955.75           2225        1784.00      7777.12
  239.87        2956.00           2229        1821.00      7938.50
  239.90        2956.25           2232        1831.00      7982.11
  239.93        2956.50           2236        1812.00      7899.24
  239.96        2956.75           2239        1812.00      7899.24
  239.99        2957.00           2243        1834.00      7995.20
  240.02        2957.25           2246        1884.00      8213.28
  240.05        2957.50           2250        1864.00      8126.05
  240.08        2957.75           2254        1900.00      8283.06
  240.12        2958.00           2257        1929.00      8409.55
  240.15        2958.25           2261        1919.00      8365.94
  240.18        2958.50           2264        1994.00      8693.07
  240.21        2958.75           2268        1923.00      8383.38
  240.24        2959.00           2271        1970.00      8588.38
  240.27        2959.25           2275        1987.00      8662.53
  240.30        2959.50           2278        1980.00      8632.00
  240.33        2959.75           2282        2046.00      8919.88
  240.36        2960.00           2285        2038.00      8884.98
  240.39        2960.25           2289        2096.00      9137.97
  240.42        2960.50           2293        2111.00      9203.40
  240.45        2960.75           2296        2136.00      9312.45
  240.48        2961.00           2300        2261.00      9857.71
  240.51        2961.25           2303        2838.00     12374.87
  240.54        2961.50           2307        7793.00     34008.79
  240.57        2961.75           2310       17542.00     76666.90
  240.60        2962.00           2314       36130.00    158346.30
  240.63        2962.25           2317       51895.00    227979.20
  240.67        2962.50           2321       73192.00    322575.20
  240.70        2962.75           2324       89743.00    396515.50
  240.73        2963.00           2328      112312.00    497947.90
  240.76        2963.25           2331      132012.00    587066.50
  240.79        2963.50           2335      158356.00    707100.40
  240.82        2963.75           2339      183689.00    823470.70
  240.85        2964.00           2342      201840.00    907427.80
  240.88        2964.25           2346      225412.00   1017191.00
  240.91        2964.50           2349      242586.00   1097691.00
  240.94        2964.75           2353      265340.00   1205042.00
  240.97        2965.00           2356      283275.00   1290226.00
  241.00        2965.25           2360      306408.00   1400848.00
  241.03        2965.50           2363      322749.00   1479508.00
  241.06        2965.75           2367      343338.00   1579236.00
  241.09        2966.00           2370      360479.00   1662796.00
  241.12        2966.25           2374      380596.00   1761492.00
  241.15        2966.50           2378      396313.00   1839079.00
  241.19        2966.75           2381      402731.00   1870883.00
  241.22        2967.00           2385      406301.00   1888605.00
  241.25        2967.25           2388      407029.00   1892222.00
  241.28        2967.50           2392      406514.00   1889663.00
  241.31        2967.75           2395      405958.00   1886902.00
  241.34        2968.00           2399      401998.00   1867247.00
  241.37        2968.25           2402      394258.00   1828910.00
  241.40        2968.50           2406      375919.00   1738485.00
  241.43        2968.75           2409      359428.00   1657658.00
  241.46        2969.00           2413      336301.00   1545072.00
  241.49        2969.25           2417      313246.00   1433712.00
  241.52        2969.50           2420      297035.00   1355924.00
  241.55        2969.75           2424      273648.00   1244439.00
  241.58        2970.00           2427      253853.00   1150748.00
  241.61        2970.25           2431      226000.00   1019940.00
  241.64        2970.50           2434      207915.00    935636.50
  241.67        2970.75           2438      182897.00    819818.50
  241.71        2971.00           2441      164121.00    733500.80
  241.74        2971.25           2445      140982.00    627826.30
  241.77        2971.50           2449      116656.00    517552.50
  241.80        2971.75           2452       99725.00    441291.00
  241.83        2972.00           2456       75553.00    333100.00
  241.86        2972.25           2459       56426.00    248053.60
  241.89        2972.50           2463       32630.00    142931.80
  241.92        2972.75           2466       17608.00     76956.11
  241.95        2973.00           2470        6308.00     27521.82
  241.98        2973.25           2473        3387.00     14770.28
  242.01        2973.50           2477        2345.00     10224.13
  242.04        2973.75           2481        2220.00      9678.86
  242.07        2974.00           2484        2169.00      9456.40
  242.10        2974.25           2488        2123.00      9255.75
  242.13        2974.50           2491        2006.00      8745.41
  242.16        2974.75           2495        2061.00      8985.31
  242.19        2975.00           2498        2046.00      8919.88
  242.23        2975.25           2502        1942.00      8466.26
  242.26        2975.50           2505        1954.00      8518.60
  242.29        2975.75           2509        1968.00      8579.66
  242.32        2976.00           2512        1882.00      8204.56
  242.35        2976.25           2516        1882.00      8204.56
  242.38        2976.50           2520        1800.00      7846.91
  242.41        2976.75           2523        1871.00      8156.58
  242.44        2977.00           2527        1863.00      8121.68
  242.47        2977.25           2530        1784.00      7777.12
  242.50        2977.50           2534        1812.00      7899.24
  242.53        2977.75           2537        1824.00      7951.58
  242.56        2978.00           2541        1738.00      7576.49
  242.59        2978.25           2544        1761.00      7676.81
  242.62        2978.50           2548        1755.00      7650.64
  242.65        2978.75           2552        1704.00      7428.21
  242.68        2979.00           2555        1733.00      7554.69
  242.71        2979.25           2559        1730.00      7541.60
  242.75        2979.50           2562        1717.00      7484.90
  242.78        2979.75           2566        1686.00      7349.70
  242.81        2980.00           2569        1673.00      7293.00
  242.84        2980.25           2573        1678.00      7314.81
  242.87        2980.50           2577        1632.00      7114.19
  242.90        2980.75           2580        1707.00      7441.29
  242.93        2981.00           2584        1644.00      7166.52
  242.96        2981.25           2587        1607.00      7005.16
  242.99        2981.50           2591        1578.00      6878.68
  243.02        2981.75           2594        1644.00      7166.52
  243.05        2982.00           2598        1585.00      6909.21
  243.08        2982.25           2601        1599.00      6970.27
  243.11        2982.50           2605        1619.00      7057.49
  243.14        2982.75           2609        1597.00      6961.54
  243.17        2983.00           2612        1576.00      6869.96
  243.20        2983.25           2616        1591.00      6935.38
  243.23        2983.50           2619        1611.00      7022.60
  243.26        2983.75           2623        1583.00      6900.49
  243.30        2984.00           2626        1507.00      6569.04
HS scan finished at 04:03:31
end
************************************************************
  HS Scan of (1) Internal mercury lamp
************************************************************
Integration time is 0.2294 seconds per sample
dh040319Reading 51.44 .94 2.84pr1000
************************************************************
Dead Time -------------------------  3.4E-08 
Number of Cycles Used -------------  4 
Starting Wavelength (Angstroms) ---  2950 
Final Wavelength (Angstoms) -------  2984 
Wavelength Increment (Angstroms) --  .25 
Filter Wheel #1 Position ---------- (1) Ground quartz diffuser (ND=2.32)
Filter Wheel #2 Position ---------- (1) Neutral Density 0.494



************************************************************
HS scan start time = 18:37:25
Dark Count =  .9 


Time (GMT)  Wavelength (Ang)  Step Number  Raw Counts  Counts/Second

 1118.32        2950.00           2144        1642.00      7155.62
 1118.51        2950.25           2147        1640.00      7146.90
 1118.54        2950.50           2151        1620.00      7059.67
 1118.57        2950.75           2155        1663.00      7247.21
 1118.60        2951.00           2158        1643.00      7159.98
 1118.63        2951.25           2162        1612.00      7024.78
 1118.66        2951.50           2165        1625.00      7081.48
 1118.69        2951.75           2169        1633.00      7116.37
 1118.72        2952.00           2172        1621.00      7064.03
 1118.75        2952.25           2176        1667.00      7264.65
 1118.78        2952.50           2179        1608.00      7007.34
 1118.82        2952.75           2183        1624.00      7077.12
 1118.85        2953.00           2186        1663.00      7247.21
 1118.88        2953.25           2190        1675.00      7299.54
 1118.91        2953.50           2193        1659.00      7229.76
 1118.94        2953.75           2197        1689.00      7360.60
 1118.97        2954.00           2200        1658.00      7225.40
 1119.00        2954.25           2204        1673.00      7290.82
 1119.03        2954.50           2208        1699.00      7404.22
 1119.06        2954.75           2211        1695.00      7386.77
 1119.09        2955.00           2215        1703.00      7421.66
 1119.12        2955.25           2218        1712.00      7460.92
 1119.15        2955.50           2222        1730.00      7539.42
 1119.18        2955.75           2225        1771.00      7718.24
 1119.21        2956.00           2229        1707.00      7439.11
 1119.24        2956.25           2232        1747.00      7613.57
 1119.27        2956.50           2236        1767.00      7700.80
 1119.30        2956.75           2239        1801.00      7849.09
 1119.34        2957.00           2243        1770.00      7713.88
 1119.37        2957.25           2246        1815.00      7910.15
 1119.40        2957.50           2250        1755.00      7648.46
 1119.43        2957.75           2254        1812.00      7897.06
 1119.46        2958.00           2257        1887.00      8224.18
 1119.49        2958.25           2261        1837.00      8006.10
 1119.52        2958.50           2264        1849.00      8058.44
 1119.55        2958.75           2268        1865.00      8128.23
 1119.58        2959.00           2271        1926.00      8394.29
 1119.62        2959.25           2275        1908.00      8315.78
 1119.65        2959.50           2278        1964.00      8560.03
 1119.68        2959.75           2282        1985.00      8651.63
 1119.71        2960.00           2285        2022.00      8813.02
 1119.74        2960.25           2289        1963.00      8555.67
 1119.77        2960.50           2293        2094.00      9127.07
 1119.80        2960.75           2296        2114.00      9214.31
 1119.83        2961.00           2300        2217.00      9663.59
 1119.86        2961.25           2303        2557.00     11146.77
 1119.89        2961.50           2307        6489.00     28310.15
 1119.92        2961.75           2310       15475.00     67609.90
 1119.95        2962.00           2314       33234.00    145588.60
 1119.98        2962.25           2317       48570.00    213263.10
 1120.01        2962.50           2321       70294.00    309664.80
 1120.05        2962.75           2324       86966.00    384081.10
 1120.08        2963.00           2328      109334.00    484521.10
 1120.11        2963.25           2331      127146.00    565000.80
 1120.14        2963.50           2335      152164.00    678795.60
 1120.17        2963.75           2339      176438.00    790064.60
 1120.20        2964.00           2342      195110.00    876239.10
 1120.23        2964.25           2346      218046.00    982799.60
 1120.26        2964.50           2349      235293.00   1063449.00
 1120.29        2964.75           2353      258299.00   1171736.00
 1120.32        2965.00           2356      276962.00   1260182.00
 1120.35        2965.25           2360      297348.00   1357419.00
 1120.38        2965.50           2363      314248.00   1438531.00
 1120.41        2965.75           2367      334622.00   1536931.00
 1120.44        2966.00           2370      349306.00   1608271.00
 1120.47        2966.25           2374      369479.00   1706864.00
 1120.50        2966.50           2378      388519.00   1800548.00
 1120.53        2966.75           2381      395528.00   1835191.00
 1120.57        2967.00           2385      399019.00   1852477.00
 1120.60        2967.25           2388      398843.00   1851605.00
 1120.63        2967.50           2392      398663.00   1850714.00
 1120.66        2967.75           2395      398639.00   1850595.00
 1120.69        2968.00           2399      396340.00   1839210.00
 1120.72        2968.25           2402      389015.00   1802997.00
 1120.75        2968.50           2406      372229.00   1720357.00
 1120.78        2968.75           2409      355505.00   1638496.00
 1120.81        2969.00           2413      332716.00   1527697.00
 1120.84        2969.25           2417      309260.00   1414543.00
 1120.87        2969.50           2420      292232.00   1332955.00
 1120.90        2969.75           2424      270380.00   1228927.00
 1120.93        2970.00           2427      253015.00   1146793.00
 1120.96        2970.25           2431      226697.00   1023197.00
 1120.99        2970.50           2434      207925.00    935680.70
 1121.02        2970.75           2438      183420.00    822227.80
 1121.05        2971.00           2441      166328.00    743618.00
 1121.09        2971.25           2445      142747.00    635857.60
 1121.12        2971.50           2449      119636.00    531014.30
 1121.15        2971.75           2452      101198.00    447907.70
 1121.18        2972.00           2456       76048.00    335305.30
 1121.21        2972.25           2459       58070.00    255341.90
 1121.24        2972.50           2463       35811.00    156938.50
 1121.27        2972.75           2466       20969.00     91689.49
 1121.30        2973.00           2470        7690.00     33556.57
 1121.33        2973.25           2473        3792.00     16535.45
 1121.37        2973.50           2477        2338.00     10191.41
 1121.41        2973.75           2481        2126.00      9266.65
 1121.44        2974.00           2484        2109.00      9192.50
 1121.47        2974.25           2488        2082.00      9074.73
 1121.50        2974.50           2491        2055.00      8956.96
 1121.53        2974.75           2495        2019.00      8799.93
 1121.56        2975.00           2498        1965.00      8564.39
 1121.59        2975.25           2502        1940.00      8455.35
 1121.62        2975.50           2505        1900.00      8280.88
 1121.65        2975.75           2509        1882.00      8202.37
 1121.68        2976.00           2512        1857.00      8093.33
 1121.71        2976.25           2516        1827.00      7962.49
 1121.74        2976.50           2520        1799.00      7840.36
 1121.77        2976.75           2523        1803.00      7857.81
 1121.80        2977.00           2527        1752.00      7635.37
 1121.83        2977.25           2530        1770.00      7713.88
 1121.87        2977.50           2534        1713.00      7465.28
 1121.90        2977.75           2537        1748.00      7617.93
 1121.93        2978.00           2541        1757.00      7657.18
 1121.96        2978.25           2544        1710.00      7452.19
 1121.99        2978.50           2548        1692.00      7373.69
 1122.02        2978.75           2552        1669.00      7273.38
 1122.05        2979.00           2555        1653.00      7203.60
 1122.08        2979.25           2559        1654.00      7207.96
 1122.11        2979.50           2562        1639.00      7142.54
 1122.14        2979.75           2566        1646.00      7173.07
 1122.17        2980.00           2569        1596.00      6955.00
 1122.20        2980.25           2573        1621.00      7064.03
 1122.23        2980.50           2577        1570.00      6841.61
 1122.26        2980.75           2580        1619.00      7055.31
 1122.29        2981.00           2584        1589.00      6924.47
 1122.32        2981.25           2587        1562.00      6806.72
 1122.35        2981.50           2591        1548.00      6745.66
 1122.38        2981.75           2594        1561.00      6802.36
 1122.42        2982.00           2598        1560.00      6798.00
 1122.45        2982.25           2601        1532.00      6675.88
 1122.48        2982.50           2605        1555.00      6776.19
 1122.51        2982.75           2609        1564.00      6815.44
 1122.54        2983.00           2612        1531.00      6671.52
 1122.57        2983.25           2616        1546.00      6736.94
 1122.60        2983.50           2619        1513.00      6593.02
 1122.63        2983.75           2623        1547.00      6741.30
 1122.66        2984.00           2626        1526.00      6649.72
HS scan finished at 18:42:53
end
