************************************************************
  HS Scan of 
************************************************************
Integration time is 0.2294 seconds per sample
dh050317Reading 51.44 .94 2.62pr1000
************************************************************
Dead Time -------------------------  3.4E-08 
Number of Cycles Used -------------  4 
Starting Wavelength (Angstroms) ---  2950 
Final Wavelength (Angstoms) -------  2984 
Wavelength Increment (Angstroms) --  .25 
Filter Wheel #1 Position ---------- (1) Ground quartz diffuser (ND=2.32)
Filter Wheel #2 Position ---------- (1) Neutral Density 0.494



************************************************************
HS scan start time = 03:54:11
Dark Count =  .2 


Time (GMT)  Wavelength (Ang)  Step Number  Raw Counts  Counts/Second

  235.08        2950.00           2144         930.00      4053.74
  235.28        2950.25           2147         925.00      4031.94
  235.31        2950.50           2151         932.00      4062.46
  235.34        2950.75           2155         938.00      4088.62
  235.37        2951.00           2158         934.00      4071.18
  235.40        2951.25           2162         987.00      4302.29
  235.43        2951.50           2165         951.00      4145.31
  235.46        2951.75           2169         956.00      4167.11
  235.49        2952.00           2172         940.00      4097.35
  235.52        2952.25           2176         952.00      4149.67
  235.55        2952.50           2179         986.00      4297.93
  235.58        2952.75           2183         996.00      4341.53
  235.61        2953.00           2186         942.00      4106.07
  235.64        2953.25           2190         938.00      4088.62
  235.67        2953.50           2193        1006.00      4385.14
  235.70        2953.75           2197         995.00      4337.17
  235.73        2954.00           2200         985.00      4293.57
  235.77        2954.25           2204         971.00      4232.52
  235.80        2954.50           2208        1014.00      4420.02
  235.83        2954.75           2211         991.00      4319.73
  235.86        2955.00           2215         983.00      4284.84
  235.89        2955.25           2218        1011.00      4406.94
  235.92        2955.50           2222        1000.00      4358.97
  235.95        2955.75           2225         988.00      4306.65
  235.98        2956.00           2229        1020.00      4446.18
  236.01        2956.25           2232        1039.00      4529.03
  236.04        2956.50           2236        1030.00      4489.79
  236.07        2956.75           2239        1008.00      4393.86
  236.10        2957.00           2243        1010.00      4402.58
  236.13        2957.25           2246        1019.00      4441.82
  236.16        2957.50           2250        1041.00      4537.75
  236.19        2957.75           2254        1060.00      4620.60
  236.22        2958.00           2257        1059.00      4616.24
  236.25        2958.25           2261        1073.00      4677.29
  236.28        2958.50           2264        1153.00      5026.14
  236.32        2958.75           2268        1099.00      4790.67
  236.35        2959.00           2271        1112.00      4847.36
  236.38        2959.25           2275        1131.00      4930.21
  236.41        2959.50           2278        1113.00      4851.72
  236.44        2959.75           2282        1135.00      4947.65
  236.47        2960.00           2285        1196.00      5213.65
  236.50        2960.25           2289        1161.00      5061.03
  236.53        2960.50           2293        1182.00      5152.60
  236.56        2960.75           2296        1228.00      5353.20
  236.59        2961.00           2300        1319.00      5750.03
  236.62        2961.25           2303        1608.00      7010.39
  236.65        2961.50           2307        5101.00     22252.23
  236.68        2961.75           2310       11482.00     50136.83
  236.71        2962.00           2314       22856.00     99972.19
  236.74        2962.25           2317       31908.00    139754.90
  236.77        2962.50           2321       44827.00    196720.30
  236.80        2962.75           2324       54610.00    240005.50
  236.84        2963.00           2328       67447.00    296997.90
  236.87        2963.25           2331       77441.00    341522.50
  236.90        2963.50           2335       90637.00    400521.00
  236.93        2963.75           2339      105418.00    466890.10
  236.96        2964.00           2342      116316.00    516018.00
  236.99        2964.25           2346      129260.00    574585.10
  237.02        2964.50           2349      138174.00    615055.40
  237.05        2964.75           2353      151378.00    675210.10
  237.08        2965.00           2356      161581.00    721864.00
  237.11        2965.25           2360      175719.00    786759.80
  237.14        2965.50           2363      185064.00    829814.70
  237.17        2965.75           2367      197228.00    886049.80
  237.20        2966.00           2370      206519.00    929150.40
  237.23        2966.25           2374      218671.00    985717.60
  237.26        2966.50           2378      227308.00   1026058.00
  237.29        2966.75           2381      230653.00   1041711.00
  237.33        2967.00           2385      231892.00   1047513.00
  237.36        2967.25           2388      232582.00   1050746.00
  237.39        2967.50           2392      231831.00   1047228.00
  237.42        2967.75           2395      231738.00   1046792.00
  237.45        2968.00           2399      227952.00   1029070.00
  237.48        2968.25           2402      221195.00    997494.50
  237.51        2968.50           2406      210026.00    945452.80
  237.54        2968.75           2409      200560.00    901492.10
  237.57        2969.00           2413      187185.00    839604.60
  237.60        2969.25           2417      173458.00    776361.90
  237.63        2969.50           2420      162572.00    726403.40
  237.66        2969.75           2424      149096.00    664796.00
  237.69        2970.00           2427      139379.00    620534.80
  237.72        2970.25           2431      126092.00    560229.30
  237.75        2970.50           2434      114753.00    508961.90
  237.78        2970.75           2438      100400.00    444324.60
  237.81        2971.00           2441       89977.00    397564.50
  237.85        2971.25           2445       76823.00    338765.30
  237.88        2971.50           2449       63929.00    281357.00
  237.91        2971.75           2452       53920.00    236948.40
  237.94        2972.00           2456       40369.00    177038.10
  237.97        2972.25           2459       30367.00    132974.70
  238.00        2972.50           2463       16798.00     73407.93
  238.03        2972.75           2466        8408.00     36697.02
  238.06        2973.00           2470        2706.00     11799.85
  238.09        2973.25           2473        1597.00      6962.42
  238.12        2973.50           2477        1315.00      5732.59
  238.15        2973.75           2481        1260.00      5492.74
  238.18        2974.00           2484        1240.00      5405.53
  238.21        2974.25           2488        1215.00      5296.51
  238.24        2974.50           2491        1170.00      5100.27
  238.27        2974.75           2495        1141.00      4973.81
  238.30        2975.00           2498        1123.00      4895.32
  238.33        2975.25           2502        1133.00      4938.93
  238.37        2975.50           2505        1082.00      4716.54
  238.40        2975.75           2509        1086.00      4733.98
  238.43        2976.00           2512        1075.00      4686.01
  238.46        2976.25           2516        1084.00      4725.26
  238.49        2976.50           2520        1097.00      4781.95
  238.52        2976.75           2523        1044.00      4550.84
  238.55        2977.00           2527        1038.00      4524.67
  238.58        2977.25           2530        1007.00      4389.50
  238.61        2977.50           2534        1029.00      4485.43
  238.64        2977.75           2537        1011.00      4406.94
  238.67        2978.00           2541         974.00      4245.60
  238.70        2978.25           2544        1018.00      4437.46
  238.73        2978.50           2548         977.00      4258.68
  238.76        2978.75           2552        1005.00      4380.78
  238.79        2979.00           2555         990.00      4315.37
  238.82        2979.25           2559        1009.00      4398.22
  238.85        2979.50           2562         975.00      4249.96
  238.89        2979.75           2566         984.00      4289.20
  238.92        2980.00           2569         916.00      3992.70
  238.95        2980.25           2573         958.00      4175.83
  238.98        2980.50           2577         963.00      4197.64
  239.01        2980.75           2580         952.00      4149.67
  239.04        2981.00           2584         923.00      4023.22
  239.07        2981.25           2587         958.00      4175.83
  239.10        2981.50           2591         934.00      4071.18
  239.13        2981.75           2594         921.00      4014.50
  239.16        2982.00           2598         924.00      4027.58
  239.19        2982.25           2601         914.00      3983.97
  239.22        2982.50           2605         899.00      3918.57
  239.25        2982.75           2609         899.00      3918.57
  239.28        2983.00           2612         909.00      3962.17
  239.31        2983.25           2616         903.00      3936.01
  239.34        2983.50           2619         905.00      3944.73
  239.37        2983.75           2623         895.00      3901.13
  239.40        2984.00           2626         902.00      3931.65
HS scan finished at 03:59:38
end
************************************************************
  HS Scan of 
************************************************************
Integration time is 0.2294 seconds per sample
dh050317Reading 51.44 .94 2.82pr1000
************************************************************
Dead Time -------------------------  3.4E-08 
Number of Cycles Used -------------  4 
Starting Wavelength (Angstroms) ---  2950 
Final Wavelength (Angstoms) -------  2984 
Wavelength Increment (Angstroms) --  .25 
Filter Wheel #1 Position ---------- (1) Ground quartz diffuser (ND=2.32)
Filter Wheel #2 Position ---------- (1) Neutral Density 0.494



************************************************************
HS scan start time = 18:37:24
Dark Count =  .6 


Time (GMT)  Wavelength (Ang)  Step Number  Raw Counts  Counts/Second

 1118.31        2950.00           2144         847.00      3690.09
 1118.50        2950.25           2147         897.00      3908.10
 1118.53        2950.50           2151         860.00      3746.77
 1118.56        2950.75           2155         867.00      3777.29
 1118.59        2951.00           2158         876.00      3816.54
 1118.62        2951.25           2162         892.00      3886.30
 1118.65        2951.50           2165         859.00      3742.41
 1118.68        2951.75           2169         883.00      3847.06
 1118.72        2952.00           2172         851.00      3707.53
 1118.75        2952.25           2176         896.00      3903.74
 1118.78        2952.50           2179         853.00      3716.25
 1118.81        2952.75           2183         940.00      4095.60
 1118.84        2953.00           2186         879.00      3829.62
 1118.87        2953.25           2190         890.00      3877.58
 1118.90        2953.50           2193         895.00      3899.38
 1118.93        2953.75           2197         902.00      3929.91
 1118.96        2954.00           2200         909.00      3960.43
 1118.99        2954.25           2204         911.00      3969.15
 1119.02        2954.50           2208         892.00      3886.30
 1119.05        2954.75           2211         924.00      4025.83
 1119.08        2955.00           2215         925.00      4030.20
 1119.11        2955.25           2218         928.00      4043.28
 1119.14        2955.50           2222         939.00      4091.24
 1119.17        2955.75           2225         932.00      4060.72
 1119.20        2956.00           2229         936.00      4078.16
 1119.24        2956.25           2232         943.00      4108.68
 1119.27        2956.50           2236         961.00      4187.17
 1119.30        2956.75           2239         921.00      4012.75
 1119.33        2957.00           2243         963.00      4195.89
 1119.36        2957.25           2246         964.00      4200.25
 1119.39        2957.50           2250        1010.00      4400.83
 1119.42        2957.75           2254         992.00      4322.34
 1119.45        2958.00           2257         988.00      4304.90
 1119.48        2958.25           2261        1004.00      4374.67
 1119.51        2958.50           2264         998.00      4348.51
 1119.54        2958.75           2268        1004.00      4374.67
 1119.57        2959.00           2271        1041.00      4536.01
 1119.60        2959.25           2275        1040.00      4531.65
 1119.63        2959.50           2278        1032.00      4496.76
 1119.66        2959.75           2282        1038.00      4522.93
 1119.69        2960.00           2285        1078.00      4697.35
 1119.72        2960.25           2289        1098.00      4784.56
 1119.76        2960.50           2293        1097.00      4780.20
 1119.79        2960.75           2296        1108.00      4828.17
 1119.82        2961.00           2300        1191.00      5190.11
 1119.85        2961.25           2303        1411.00      6149.50
 1119.88        2961.50           2307        3379.00     14734.50
 1119.91        2961.75           2310        8371.00     36533.59
 1119.94        2962.00           2314       18395.00     80404.35
 1119.97        2962.25           2317       26727.00    116969.90
 1120.00        2962.50           2321       37653.00    165058.00
 1120.03        2962.75           2324       45955.00    201702.90
 1120.06        2963.00           2328       57759.00    253963.80
 1120.09        2963.25           2331       67161.00    295724.00
 1120.12        2963.50           2335       80619.00    355707.60
 1120.15        2963.75           2339       92452.00    408652.60
 1120.18        2964.00           2342      100786.00    446057.40
 1120.21        2964.25           2346      112742.00    499886.40
 1120.24        2964.50           2349      121828.00    540927.30
 1120.27        2964.75           2353      133446.00    593574.10
 1120.31        2965.00           2356      142627.00    635312.80
 1120.34        2965.25           2360      153788.00    686214.70
 1120.37        2965.50           2363      161395.00    721010.50
 1120.40        2965.75           2367      173084.00    774640.80
 1120.43        2966.00           2370      182240.00    816788.50
 1120.46        2966.25           2374      192965.00    866315.00
 1120.49        2966.50           2378      202013.00    908229.40
 1120.52        2966.75           2381      204938.00    921805.40
 1120.55        2967.00           2385      205997.00    926723.60
 1120.58        2967.25           2388      206172.00    927536.60
 1120.61        2967.50           2392      206116.00    927276.40
 1120.64        2967.75           2395      205849.00    926036.20
 1120.67        2968.00           2399      204959.00    921902.90
 1120.70        2968.25           2402      199723.00    897609.60
 1120.73        2968.50           2406      190009.00    852647.60
 1120.76        2968.75           2409      181493.00    813345.30
 1120.79        2969.00           2413      170437.00    762478.80
 1120.83        2969.25           2417      159261.00    711240.60
 1120.86        2969.50           2420      150565.00    671497.30
 1120.89        2969.75           2424      138463.00    616367.60
 1120.92        2970.00           2427      127941.00    568604.60
 1120.95        2970.25           2431      115119.00    510612.00
 1120.98        2970.50           2434      106021.00    469602.20
 1121.01        2970.75           2438       93074.00    411441.00
 1121.04        2971.00           2441       83951.00    370596.80
 1121.07        2971.25           2445       72218.00    318234.70
 1121.10        2971.50           2449       60305.00    265260.40
 1121.13        2971.75           2452       51157.00    224711.20
 1121.16        2972.00           2456       38427.00    168470.50
 1121.19        2972.25           2459       29039.00    127132.50
 1121.22        2972.50           2463       17463.00     76319.85
 1121.25        2972.75           2466       10004.00     43671.60
 1121.28        2973.00           2470        3553.00     15493.77
 1121.31        2973.25           2473        1776.00      7741.36
 1121.35        2973.50           2477        1200.00      5229.35
 1121.38        2973.75           2481        1157.00      5041.84
 1121.41        2974.00           2484        1093.00      4762.76
 1121.44        2974.25           2488        1119.00      4876.14
 1121.47        2974.50           2491        1065.00      4640.66
 1121.50        2974.75           2495        1060.00      4618.86
 1121.53        2975.00           2498        1045.00      4553.45
 1121.56        2975.25           2502        1049.00      4570.89
 1121.59        2975.50           2505         998.00      4348.51
 1121.62        2975.75           2509        1030.00      4488.04
 1121.65        2976.00           2512        1013.00      4413.91
 1121.68        2976.25           2516        1028.00      4479.32
 1121.71        2976.50           2520         979.00      4265.66
 1121.74        2976.75           2523         983.00      4283.10
 1121.77        2977.00           2527         951.00      4143.57
 1121.80        2977.25           2530         940.00      4095.60
 1121.83        2977.50           2534         930.00      4052.00
 1121.87        2977.75           2537         929.00      4047.64
 1121.90        2978.00           2541         952.00      4147.93
 1121.93        2978.25           2544         920.00      4008.39
 1121.96        2978.50           2548         900.00      3921.19
 1121.99        2978.75           2552         926.00      4034.56
 1122.02        2979.00           2555         908.00      3956.07
 1122.05        2979.25           2559         896.00      3903.74
 1122.08        2979.50           2562         872.00      3799.10
 1122.11        2979.75           2566         889.00      3873.22
 1122.14        2980.00           2569         864.00      3764.21
 1122.17        2980.25           2573         904.00      3938.63
 1122.20        2980.50           2577         890.00      3877.58
 1122.23        2980.75           2580         857.00      3733.69
 1122.26        2981.00           2584         843.00      3672.65
 1122.29        2981.25           2587         857.00      3733.69
 1122.32        2981.50           2591         841.00      3663.93
 1122.35        2981.75           2594         839.00      3655.21
 1122.38        2982.00           2598         837.00      3646.49
 1122.42        2982.25           2601         858.00      3738.05
 1122.45        2982.50           2605         849.00      3698.81
 1122.48        2982.75           2609         844.00      3677.01
 1122.51        2983.00           2612         840.00      3659.57
 1122.54        2983.25           2616         838.00      3650.85
 1122.57        2983.50           2619         822.00      3581.08
 1122.60        2983.75           2623         818.00      3563.64
 1122.63        2984.00           2626         809.00      3524.40
HS scan finished at 18:42:51
end
