************************************************************
  HS Scan of (1) Internal mercury lamp
************************************************************
Integration time is 0.2294 seconds per sample
dh050319Reading 51.44 .94 2.49pr1000
************************************************************
Dead Time -------------------------  3.4E-08 
Number of Cycles Used -------------  4 
Starting Wavelength (Angstroms) ---  2950 
Final Wavelength (Angstoms) -------  2984 
Wavelength Increment (Angstroms) --  .25 
Filter Wheel #1 Position ---------- (1) Ground quartz diffuser (ND=2.32)
Filter Wheel #2 Position ---------- (1) Neutral Density 0.494



************************************************************
HS scan start time = 03:58:28
Dark Count =  .1 


Time (GMT)  Wavelength (Ang)  Step Number  Raw Counts  Counts/Second

  239.36        2950.00           2144        1706.00      7438.24
  239.55        2950.25           2147        1677.00      7311.76
  239.58        2950.50           2151        1734.00      7560.36
  239.61        2950.75           2155        1674.00      7298.67
  239.64        2951.00           2158        1723.00      7512.38
  239.67        2951.25           2162        1727.00      7529.83
  239.70        2951.50           2165        1721.00      7503.66
  239.73        2951.75           2169        1721.00      7503.66
  239.76        2952.00           2172        1708.00      7446.96
  239.79        2952.25           2176        1714.00      7473.13
  239.83        2952.50           2179        1717.00      7486.21
  239.86        2952.75           2183        1711.00      7460.04
  239.89        2953.00           2186        1753.00      7643.22
  239.92        2953.25           2190        1734.00      7560.36
  239.95        2953.50           2193        1807.00      7878.75
  239.98        2953.75           2197        1807.00      7878.75
  240.01        2954.00           2200        1720.00      7499.30
  240.04        2954.25           2204        1740.00      7586.53
  240.07        2954.50           2208        1807.00      7878.75
  240.10        2954.75           2211        1756.00      7656.31
  240.13        2955.00           2215        1797.00      7835.13
  240.16        2955.25           2218        1774.00      7734.82
  240.19        2955.50           2222        1804.00      7865.66
  240.22        2955.75           2225        1796.00      7830.77
  240.25        2956.00           2229        1838.00      8013.95
  240.28        2956.25           2232        1844.00      8040.12
  240.31        2956.50           2236        1816.00      7918.00
  240.35        2956.75           2239        1854.00      8083.74
  240.38        2957.00           2243        1866.00      8136.08
  240.41        2957.25           2246        1880.00      8197.14
  240.44        2957.50           2250        1894.00      8258.20
  240.47        2957.75           2254        1894.00      8258.20
  240.50        2958.00           2257        1919.00      8367.25
  240.53        2958.25           2261        1901.00      8288.73
  240.56        2958.50           2264        1960.00      8546.08
  240.59        2958.75           2268        1927.00      8402.14
  240.62        2959.00           2271        1958.00      8537.35
  240.65        2959.25           2275        1997.00      8707.46
  240.68        2959.50           2278        2051.00      8943.00
  240.71        2959.75           2282        2034.00      8868.85
  240.74        2960.00           2285        2065.00      9004.06
  240.77        2960.25           2289        2067.00      9012.79
  240.80        2960.50           2293        2133.00      9300.67
  240.83        2960.75           2296        2168.00      9453.34
  240.87        2961.00           2300        2260.00      9854.65
  240.90        2961.25           2303        2463.00     10740.19
  240.93        2961.50           2307        4731.00     20637.40
  240.96        2961.75           2310       10944.00     47784.20
  240.99        2962.00           2314       25391.00    111102.90
  241.02        2962.25           2317       38291.00    167873.00
  241.05        2962.50           2321       59008.00    259506.70
  241.08        2962.75           2324       76387.00    336820.90
  241.11        2963.00           2328      100642.00    445412.50
  241.14        2963.25           2331      118009.00    523665.40
  241.17        2963.50           2335      141558.00    630449.00
  241.20        2963.75           2339      162902.00    727915.90
  241.23        2964.00           2342      179689.00    805035.50
  241.26        2964.25           2346      201735.00    906942.10
  241.29        2964.50           2349      218501.00    984925.20
  241.32        2964.75           2353      241389.00   1092067.00
  241.35        2965.00           2356      259669.00   1178214.00
  241.39        2965.25           2360      284263.00   1294935.00
  241.42        2965.50           2363      301150.00   1375631.00
  241.45        2965.75           2367      320532.00   1468813.00
  241.48        2966.00           2370      334637.00   1537007.00
  241.51        2966.25           2374      356382.00   1642781.00
  241.54        2966.50           2378      373088.00   1724578.00
  241.57        2966.75           2381      378044.00   1748935.00
  241.60        2967.00           2385      380361.00   1760336.00
  241.63        2967.25           2388      380173.00   1759411.00
  241.66        2967.50           2392      380633.00   1761675.00
  241.69        2967.75           2395      379914.00   1758136.00
  241.72        2968.00           2399      376223.00   1739981.00
  241.75        2968.25           2402      366085.00   1690232.00
  241.78        2968.50           2406      348128.00   1602539.00
  241.81        2968.75           2409      333040.00   1529270.00
  241.84        2969.00           2413      312904.00   1432068.00
  241.87        2969.25           2417      293290.00   1338015.00
  241.91        2969.50           2420      279217.00   1270909.00
  241.94        2969.75           2424      257904.00   1169874.00
  241.97        2970.00           2427      237634.00   1074435.00
  242.00        2970.25           2431      216283.00    974584.50
  242.03        2970.50           2434      197462.00    887134.20
  242.06        2970.75           2438      173003.00    774270.80
  242.09        2971.00           2441      155792.00    695375.50
  242.12        2971.25           2445      133725.00    594843.00
  242.15        2971.50           2449      111250.00    493160.50
  242.18        2971.75           2452       94159.00    416308.40
  242.21        2972.00           2456       71944.00    317016.30
  242.24        2972.25           2459       55514.00    244012.10
  242.27        2972.50           2463       34118.00    149484.50
  242.30        2972.75           2466       18968.00     82918.28
  242.33        2973.00           2470        6838.00     29838.01
  242.36        2973.25           2473        3617.00     15775.24
  242.39        2973.50           2477        2423.00     10565.70
  242.43        2973.75           2481        2186.00      9531.86
  242.46        2974.00           2484        2120.00      9243.97
  242.49        2974.25           2488        2077.00      9056.41
  242.52        2974.50           2491        2043.00      8908.10
  242.55        2974.75           2495        2030.00      8851.40
  242.58        2975.00           2498        1973.00      8602.78
  242.61        2975.25           2502        1987.00      8663.84
  242.64        2975.50           2505        1997.00      8707.46
  242.67        2975.75           2509        1945.00      8480.65
  242.70        2976.00           2512        1884.00      8214.59
  242.73        2976.25           2516        1896.00      8266.93
  242.76        2976.50           2520        1839.00      8018.32
  242.79        2976.75           2523        1870.00      8153.53
  242.82        2977.00           2527        1843.00      8035.76
  242.85        2977.25           2530        1806.00      7874.38
  242.88        2977.50           2534        1828.00      7970.34
  242.91        2977.75           2537        1795.00      7826.41
  242.94        2978.00           2541        1785.00      7782.79
  242.98        2978.25           2544        1754.00      7647.59
  243.01        2978.50           2548        1751.00      7634.50
  243.04        2978.75           2552        1736.00      7569.08
  243.07        2979.00           2555        1743.00      7599.61
  243.10        2979.25           2559        1694.00      7385.90
  243.13        2979.50           2562        1694.00      7385.90
  243.16        2979.75           2566        1729.00      7538.55
  243.19        2980.00           2569        1717.00      7486.21
  243.22        2980.25           2573        1699.00      7407.71
  243.25        2980.50           2577        1656.00      7220.17
  243.28        2980.75           2580        1639.00      7146.03
  243.31        2981.00           2584        1664.00      7255.06
  243.34        2981.25           2587        1615.00      7041.36
  243.37        2981.50           2591        1646.00      7176.56
  243.40        2981.75           2594        1628.00      7098.05
  243.43        2982.00           2598        1608.00      7010.83
  243.47        2982.25           2601        1631.00      7111.14
  243.50        2982.50           2605        1625.00      7084.97
  243.53        2982.75           2609        1619.00      7058.80
  243.57        2983.00           2612        1595.00      6954.13
  243.60        2983.25           2616        1597.00      6962.85
  243.63        2983.50           2619        1562.00      6810.21
  243.66        2983.75           2623        1576.00      6871.27
  243.69        2984.00           2626        1568.00      6836.38
HS scan finished at 04:03:55
end
************************************************************
  HS Scan of (1) Internal mercury lamp
************************************************************
Integration time is 0.2294 seconds per sample
dh050319Reading 51.44 .94 3.03pr1000
************************************************************
Dead Time -------------------------  3.4E-08 
Number of Cycles Used -------------  4 
Starting Wavelength (Angstroms) ---  2950 
Final Wavelength (Angstoms) -------  2984 
Wavelength Increment (Angstroms) --  .25 
Filter Wheel #1 Position ---------- (1) Ground quartz diffuser (ND=2.32)
Filter Wheel #2 Position ---------- (1) Neutral Density 0.494



************************************************************
HS scan start time = 18:37:22
Dark Count =  1.2 


Time (GMT)  Wavelength (Ang)  Step Number  Raw Counts  Counts/Second

 1118.27        2950.00           2144        1580.00      6883.91
 1118.46        2950.25           2147        1619.00      7054.00
 1118.49        2950.50           2151        1586.00      6910.08
 1118.52        2950.75           2155        1618.00      7049.64
 1118.55        2951.00           2158        1616.00      7040.92
 1118.58        2951.25           2162        1612.00      7023.47
 1118.61        2951.50           2165        1612.00      7023.47
 1118.65        2951.75           2169        1635.00      7123.78
 1118.68        2952.00           2172        1625.00      7080.17
 1118.71        2952.25           2176        1627.00      7088.89
 1118.74        2952.50           2179        1604.00      6988.58
 1118.77        2952.75           2183        1638.00      7136.87
 1118.80        2953.00           2186        1627.00      7088.89
 1118.83        2953.25           2190        1690.00      7363.66
 1118.86        2953.50           2193        1629.00      7097.62
 1118.89        2953.75           2197        1673.00      7289.51
 1118.92        2954.00           2200        1660.00      7232.82
 1118.95        2954.25           2204        1682.00      7328.77
 1118.98        2954.50           2208        1698.00      7398.55
 1119.01        2954.75           2211        1706.00      7433.44
 1119.04        2955.00           2215        1708.00      7442.16
 1119.07        2955.25           2218        1730.00      7538.11
 1119.10        2955.50           2222        1719.00      7490.14
 1119.13        2955.75           2225        1718.00      7485.78
 1119.16        2956.00           2229        1743.00      7594.81
 1119.20        2956.25           2232        1749.00      7620.98
 1119.23        2956.50           2236        1734.00      7555.56
 1119.26        2956.75           2239        1779.00      7751.82
 1119.29        2957.00           2243        1754.00      7642.79
 1119.32        2957.25           2246        1807.00      7873.95
 1119.35        2957.50           2250        1790.00      7799.80
 1119.38        2957.75           2254        1797.00      7830.33
 1119.41        2958.00           2257        1811.00      7891.39
 1119.44        2958.25           2261        1886.00      8218.51
 1119.47        2958.50           2264        1858.00      8096.39
 1119.50        2958.75           2268        1898.00      8270.85
 1119.53        2959.00           2271        1907.00      8310.11
 1119.56        2959.25           2275        1975.00      8606.70
 1119.59        2959.50           2278        1902.00      8288.30
 1119.62        2959.75           2282        1978.00      8619.79
 1119.65        2960.00           2285        1972.00      8593.62
 1119.69        2960.25           2289        2071.00      9025.44
 1119.72        2960.50           2293        2032.00      8855.33
 1119.75        2960.75           2296        2093.00      9121.40
 1119.78        2961.00           2300        2134.00      9300.24
 1119.81        2961.25           2303        2418.00     10539.09
 1119.84        2961.50           2307        4791.00     20894.53
 1119.87        2961.75           2310       11885.00     51895.32
 1119.90        2962.00           2314       28365.00    124166.50
 1119.93        2962.25           2317       44663.00    195991.30
 1119.96        2962.50           2321       67969.00    299315.70
 1119.99        2962.75           2324       86328.00    381225.00
 1120.02        2963.00           2328      112480.00    498702.00
 1120.05        2963.25           2331      132105.00    587485.00
 1120.08        2963.50           2335      156211.00    697286.10
 1120.11        2963.75           2339      180773.00    810024.40
 1120.14        2964.00           2342      198196.00    890529.80
 1120.17        2964.25           2346      225082.00   1015645.00
 1120.21        2964.50           2349      246746.00   1117254.00
 1120.24        2964.75           2353      271713.00   1235250.00
 1120.27        2965.00           2356      288420.00   1314752.00
 1120.30        2965.25           2360      311120.00   1423482.00
 1120.33        2965.50           2363      328756.00   1508529.00
 1120.36        2965.75           2367      352077.00   1621772.00
 1120.39        2966.00           2370      367804.00   1698650.00
 1120.42        2966.25           2374      389693.00   1806344.00
 1120.45        2966.50           2378      408811.00   1901075.00
 1120.48        2966.75           2381      416949.00   1941592.00
 1120.51        2967.00           2385      420722.00   1960416.00
 1120.54        2967.25           2388      421058.00   1962093.00
 1120.57        2967.50           2392      421425.00   1963926.00
 1120.60        2967.75           2395      421055.00   1962078.00
 1120.63        2968.00           2399      418573.00   1949691.00
 1120.66        2968.25           2402      411650.00   1915196.00
 1120.69        2968.50           2406      393865.00   1826963.00
 1120.72        2968.75           2409      379171.00   1754474.00
 1120.76        2969.00           2413      359261.00   1656838.00
 1120.79        2969.25           2417      335599.00   1541665.00
 1120.82        2969.50           2420      316963.00   1451603.00
 1120.85        2969.75           2424      292602.00   1334721.00
 1120.88        2970.00           2427      274938.00   1250562.00
 1120.91        2970.25           2431      250112.00   1133106.00
 1120.94        2970.50           2434      231219.00   1044357.00
 1120.97        2970.75           2438      206422.00    928695.10
 1121.00        2971.00           2441      186804.00    837840.90
 1121.03        2971.25           2445      160873.00    718617.20
 1121.06        2971.50           2449      133130.00    592136.90
 1121.09        2971.75           2452      112924.00    500704.70
 1121.12        2972.00           2456       86682.00    382809.00
 1121.15        2972.25           2459       68294.00    300761.70
 1121.18        2972.50           2463       45619.00    200215.40
 1121.21        2972.75           2466       29277.00    128176.40
 1121.24        2973.00           2470       11097.00     48448.53
 1121.28        2973.25           2473        4566.00     19912.34
 1121.31        2973.50           2477        2436.00     10617.61
 1121.34        2973.75           2481        2181.00      9505.25
 1121.37        2974.00           2484        2144.00      9343.86
 1121.40        2974.25           2488        2077.00      9051.61
 1121.43        2974.50           2491        1988.00      8663.41
 1121.46        2974.75           2495        1984.00      8645.96
 1121.49        2975.00           2498        1952.00      8506.38
 1121.52        2975.25           2502        1964.00      8558.72
 1121.55        2975.50           2505        1915.00      8345.00
 1121.58        2975.75           2509        1890.00      8235.96
 1121.61        2976.00           2512        1907.00      8310.11
 1121.64        2976.25           2516        1835.00      7996.07
 1121.67        2976.50           2520        1820.00      7930.65
 1121.70        2976.75           2523        1812.00      7895.76
 1121.73        2977.00           2527        1809.00      7882.67
 1121.76        2977.25           2530        1743.00      7594.81
 1121.80        2977.50           2534        1721.00      7498.86
 1121.83        2977.75           2537        1729.00      7533.75
 1121.86        2978.00           2541        1766.00      7695.13
 1121.89        2978.25           2544        1692.00      7372.38
 1121.92        2978.50           2548        1676.00      7302.60
 1121.95        2978.75           2552        1680.00      7320.04
 1121.98        2979.00           2555        1657.00      7219.73
 1122.01        2979.25           2559        1614.00      7032.20
 1122.04        2979.50           2562        1679.00      7315.68
 1122.07        2979.75           2566        1651.00      7193.56
 1122.10        2980.00           2569        1585.00      6905.72
 1122.13        2980.25           2573        1624.00      7075.81
 1122.16        2980.50           2577        1590.00      6927.53
 1122.19        2980.75           2580        1609.00      7010.39
 1122.22        2981.00           2584        1577.00      6870.83
 1122.25        2981.25           2587        1573.00      6853.38
 1122.28        2981.50           2591        1644.00      7163.03
 1122.32        2981.75           2594        1571.00      6844.66
 1122.35        2982.00           2598        1548.00      6744.35
 1122.38        2982.25           2601        1567.00      6827.22
 1122.41        2982.50           2605        1548.00      6744.35
 1122.44        2982.75           2609        1560.00      6796.69
 1122.47        2983.00           2612        1547.00      6739.99
 1122.50        2983.25           2616        1527.00      6652.77
 1122.53        2983.50           2619        1551.00      6757.44
 1122.56        2983.75           2623        1496.00      6517.57
 1122.59        2984.00           2626        1517.00      6609.16
HS scan finished at 18:42:49
end
