************************************************************
  HS Scan of (1) Internal mercury lamp
************************************************************
Integration time is 0.2294 seconds per sample
dh010319Reading 51.44 .94 2.92pr1000
************************************************************
Dead Time -------------------------  3.4E-08 
Number of Cycles Used -------------  4 
Starting Wavelength (Angstroms) ---  2950 
Final Wavelength (Angstoms) -------  2984 
Wavelength Increment (Angstroms) --  .25 
Filter Wheel #1 Position ---------- (1) Ground quartz diffuser (ND=2.32)
Filter Wheel #2 Position ---------- (1) Neutral Density 0.494



************************************************************
HS scan start time = 04:05:49
Dark Count =  .5 


Time (GMT)  Wavelength (Ang)  Step Number  Raw Counts  Counts/Second

  246.71        2950.00           2144        1493.00      6507.54
  246.90        2950.25           2147        1528.00      6660.18
  246.93        2950.50           2151        1547.00      6743.05
  246.96        2950.75           2155        1492.00      6503.18
  246.99        2951.00           2158        1556.00      6782.30
  247.02        2951.25           2162        1510.00      6581.68
  247.05        2951.50           2165        1543.00      6725.60
  247.08        2951.75           2169        1544.00      6729.96
  247.11        2952.00           2172        1533.00      6681.99
  247.15        2952.25           2176        1525.00      6647.10
  247.18        2952.50           2179        1574.00      6860.80
  247.21        2952.75           2183        1572.00      6852.08
  247.24        2953.00           2186        1588.00      6921.86
  247.27        2953.25           2190        1629.00      7100.67
  247.30        2953.50           2193        1627.00      7091.95
  247.33        2953.75           2197        1626.00      7087.58
  247.36        2954.00           2200        1582.00      6895.69
  247.39        2954.25           2204        1600.00      6974.19
  247.42        2954.50           2208        1619.00      7057.05
  247.45        2954.75           2211        1656.00      7218.42
  247.48        2955.00           2215        1639.00      7144.28
  247.51        2955.25           2218        1609.00      7013.44
  247.54        2955.50           2222        1636.00      7131.20
  247.57        2955.75           2225        1687.00      7353.63
  247.60        2956.00           2229        1672.00      7288.21
  247.63        2956.25           2232        1713.00      7467.02
  247.67        2956.50           2236        1658.00      7227.15
  247.70        2956.75           2239        1692.00      7375.43
  247.73        2957.00           2243        1718.00      7488.83
  247.76        2957.25           2246        1722.00      7506.27
  247.79        2957.50           2250        1749.00      7624.03
  247.82        2957.75           2254        1785.00      7781.05
  247.85        2958.00           2257        1808.00      7881.36
  247.88        2958.25           2261        1787.00      7789.77
  247.91        2958.50           2264        1818.00      7924.98
  247.94        2958.75           2268        1848.00      8055.82
  247.97        2959.00           2271        1870.00      8151.78
  248.00        2959.25           2275        1866.00      8134.33
  248.03        2959.50           2278        1873.00      8164.86
  248.06        2959.75           2282        1925.00      8391.67
  248.09        2960.00           2285        1945.00      8478.91
  248.12        2960.25           2289        1987.00      8662.10
  248.15        2960.50           2293        2026.00      8832.21
  248.19        2960.75           2296        2060.00      8980.51
  248.22        2961.00           2300        2138.00      9320.74
  248.25        2961.25           2303        2735.00     11925.06
  248.28        2961.50           2307        8049.00     35126.93
  248.31        2961.75           2310       17147.00     74935.68
  248.34        2962.00           2314       34518.00    151244.40
  248.37        2962.25           2317       49728.00    218387.60
  248.40        2962.50           2321       71050.00    313032.80
  248.43        2962.75           2324       86493.00    381966.40
  248.46        2963.00           2328      107200.00    474910.70
  248.49        2963.25           2331      124836.00    554540.30
  248.52        2963.50           2335      149742.00    667742.00
  248.55        2963.75           2339      173865.00    778231.70
  248.58        2964.00           2342      191198.00    858144.00
  248.61        2964.25           2346      213465.00    961455.20
  248.64        2964.50           2349      229217.00   1034988.00
  248.67        2964.75           2353      250996.00   1137275.00
  248.71        2965.00           2356      268015.00   1217715.00
  248.74        2965.25           2360      289042.00   1317724.00
  248.77        2965.50           2363      304721.00   1392752.00
  248.80        2965.75           2367      326385.00   1497069.00
  248.83        2966.00           2370      340399.00   1564957.00
  248.86        2966.25           2374      357855.00   1649972.00
  248.89        2966.50           2378      375470.00   1736278.00
  248.92        2966.75           2381      381173.00   1764332.00
  248.95        2967.00           2385      383803.00   1777288.00
  248.98        2967.25           2388      384532.00   1780882.00
  249.01        2967.50           2392      383042.00   1773538.00
  249.04        2967.75           2395      383719.00   1776874.00
  249.07        2968.00           2399      380377.00   1760413.00
  249.10        2968.25           2402      372121.00   1719829.00
  249.13        2968.50           2406      354436.00   1633281.00
  249.16        2968.75           2409      339316.00   1559699.00
  249.19        2969.00           2413      317355.00   1453495.00
  249.24        2969.25           2417      294712.00   1344811.00
  249.27        2969.50           2420      277303.00   1261805.00
  249.30        2969.75           2424      256571.00   1163576.00
  249.33        2970.00           2427      240160.00   1086292.00
  249.36        2970.25           2431      213379.00    961054.90
  249.39        2970.50           2434      195133.00    876347.50
  249.42        2970.75           2438      172220.00    770670.30
  249.45        2971.00           2441      155522.00    694139.40
  249.48        2971.25           2445      133796.00    595163.50
  249.52        2971.50           2449      111001.00    492036.10
  249.55        2971.75           2452       94505.00    417858.50
  249.58        2972.00           2456       69398.00    305677.90
  249.61        2972.25           2459       51236.00    225061.30
  249.64        2972.50           2463       29407.00    128751.10
  249.67        2972.75           2466       15918.00     69551.81
  249.70        2973.00           2470        5554.00     24228.76
  249.73        2973.25           2473        2963.00     12919.80
  249.76        2973.50           2477        2160.00      9416.70
  249.79        2973.75           2481        2067.00      9011.04
  249.82        2974.00           2484        2004.00      8736.25
  249.85        2974.25           2488        1929.00      8409.12
  249.88        2974.50           2491        1929.00      8409.12
  249.91        2974.75           2495        1878.00      8186.67
  249.94        2975.00           2498        1889.00      8234.65
  249.97        2975.25           2502        1875.00      8173.59
  250.01        2975.50           2505        1825.00      7955.51
  250.04        2975.75           2509        1814.00      7907.53
  250.07        2976.00           2512        1781.00      7763.60
  250.10        2976.25           2516        1731.00      7545.53
  250.13        2976.50           2520        1737.00      7571.70
  250.16        2976.75           2523        1739.00      7580.42
  250.19        2977.00           2527        1740.00      7584.78
  250.22        2977.25           2530        1711.00      7458.30
  250.25        2977.50           2534        1705.00      7432.13
  250.28        2977.75           2537        1688.00      7357.99
  250.31        2978.00           2541        1646.00      7174.81
  250.34        2978.25           2544        1647.00      7179.17
  250.37        2978.50           2548        1624.00      7078.86
  250.40        2978.75           2552        1646.00      7174.81
  250.43        2979.00           2555        1602.00      6982.91
  250.46        2979.25           2559        1613.00      7030.89
  250.49        2979.50           2562        1609.00      7013.44
  250.53        2979.75           2566        1566.00      6825.91
  250.56        2980.00           2569        1631.00      7109.39
  250.59        2980.25           2573        1575.00      6865.16
  250.62        2980.50           2577        1584.00      6904.41
  250.65        2980.75           2580        1578.00      6878.24
  250.68        2981.00           2584        1586.00      6913.13
  250.71        2981.25           2587        1514.00      6599.13
  250.74        2981.50           2591        1560.00      6799.74
  250.77        2981.75           2594        1507.00      6568.60
  250.80        2982.00           2598        1552.00      6764.85
  250.83        2982.25           2601        1524.00      6642.74
  250.86        2982.50           2605        1545.00      6734.32
  250.89        2982.75           2609        1532.00      6677.63
  250.92        2983.00           2612        1489.00      6490.10
  250.95        2983.25           2616        1479.00      6446.49
  250.98        2983.50           2619        1481.00      6455.21
  251.01        2983.75           2623        1485.00      6472.65
  251.05        2984.00           2626        1478.00      6442.13
HS scan finished at 04:11:16
end
************************************************************
  HS Scan of (1) Internal mercury lamp
************************************************************
Integration time is 0.2294 seconds per sample
dh010319Reading 51.44 .94 3.17pr1000
************************************************************
Dead Time -------------------------  3.4E-08 
Number of Cycles Used -------------  4 
Starting Wavelength (Angstroms) ---  2950 
Final Wavelength (Angstoms) -------  2984 
Wavelength Increment (Angstroms) --  .25 
Filter Wheel #1 Position ---------- (1) Ground quartz diffuser (ND=2.32)
Filter Wheel #2 Position ---------- (1) Neutral Density 0.494



************************************************************
HS scan start time = 18:37:24
Dark Count =  1.3 


Time (GMT)  Wavelength (Ang)  Step Number  Raw Counts  Counts/Second

 1118.30        2950.00           2144        1295.00      5640.58
 1118.49        2950.25           2147        1346.00      5862.98
 1118.52        2950.50           2151        1344.00      5854.26
 1118.55        2950.75           2155        1352.00      5889.15
 1118.58        2951.00           2158        1333.00      5806.29
 1118.61        2951.25           2162        1349.00      5876.07
 1118.65        2951.50           2165        1340.00      5836.82
 1118.68        2951.75           2169        1330.00      5793.21
 1118.71        2952.00           2172        1383.00      6024.34
 1118.74        2952.25           2176        1337.00      5823.73
 1118.77        2952.50           2179        1354.00      5897.87
 1118.80        2952.75           2183        1357.00      5910.95
 1118.83        2953.00           2186        1335.00      5815.01
 1118.86        2953.25           2190        1367.00      5954.56
 1118.89        2953.50           2193        1339.00      5832.46
 1118.92        2953.75           2197        1354.00      5897.87
 1118.95        2954.00           2200        1340.00      5836.82
 1118.98        2954.25           2204        1396.00      6081.03
 1119.01        2954.50           2208        1386.00      6037.42
 1119.04        2954.75           2211        1423.00      6198.78
 1119.07        2955.00           2215        1382.00      6019.98
 1119.10        2955.25           2218        1399.00      6094.11
 1119.13        2955.50           2222        1436.00      6255.47
 1119.16        2955.75           2225        1407.00      6129.00
 1119.20        2956.00           2229        1427.00      6216.22
 1119.23        2956.25           2232        1468.00      6395.03
 1119.26        2956.50           2236        1461.00      6364.50
 1119.29        2956.75           2239        1481.00      6451.72
 1119.32        2957.00           2243        1503.00      6547.67
 1119.35        2957.25           2246        1504.00      6552.03
 1119.38        2957.50           2250        1481.00      6451.72
 1119.41        2957.75           2254        1487.00      6477.89
 1119.44        2958.00           2257        1532.00      6674.14
 1119.47        2958.25           2261        1554.00      6770.08
 1119.50        2958.50           2264        1567.00      6826.78
 1119.53        2958.75           2268        1554.00      6770.08
 1119.56        2959.00           2271        1553.00      6765.72
 1119.59        2959.25           2275        1591.00      6931.45
 1119.62        2959.50           2278        1612.00      7023.04
 1119.65        2959.75           2282        1652.00      7197.49
 1119.68        2960.00           2285        1666.00      7258.55
 1119.72        2960.25           2289        1665.00      7254.19
 1119.75        2960.50           2293        1719.00      7489.70
 1119.78        2960.75           2296        1744.00      7598.74
 1119.81        2961.00           2300        1827.00      7960.74
 1119.84        2961.25           2303        2120.00      9238.73
 1119.87        2961.50           2307        5146.00     22443.89
 1119.90        2961.75           2310       12822.00     55994.48
 1119.93        2962.00           2314       28678.00    125542.10
 1119.96        2962.25           2317       43241.00    189710.10
 1119.99        2962.50           2321       64100.00    282112.00
 1120.02        2962.75           2324       81053.00    357643.00
 1120.05        2963.00           2328      104558.00    463015.40
 1120.08        2963.25           2331      122920.00    545864.40
 1120.11        2963.50           2335      144213.00    642532.00
 1120.14        2963.75           2339      164556.00    735490.70
 1120.17        2964.00           2342      181024.00    811180.60
 1120.20        2964.25           2346      204296.00    918821.20
 1120.24        2964.50           2349      224391.00   1012416.00
 1120.27        2964.75           2353      246864.00   1117809.00
 1120.30        2965.00           2356      262574.00   1191946.00
 1120.33        2965.25           2360      282103.00   1284640.00
 1120.36        2965.50           2363      298676.00   1363775.00
 1120.39        2965.75           2367      319145.00   1462118.00
 1120.42        2966.00           2370      333474.00   1531366.00
 1120.45        2966.25           2374      353842.00   1630379.00
 1120.48        2966.50           2378      369729.00   1708088.00
 1120.51        2966.75           2381      375271.00   1735296.00
 1120.54        2967.00           2385      378466.00   1751005.00
 1120.57        2967.25           2388      376761.00   1742620.00
 1120.60        2967.50           2392      377436.00   1745939.00
 1120.63        2967.75           2395      378052.00   1748968.00
 1120.66        2968.00           2399      375249.00   1735188.00
 1120.71        2968.25           2402      367592.00   1697611.00
 1120.74        2968.50           2406      350267.00   1612951.00
 1120.77        2968.75           2409      337787.00   1552275.00
 1120.80        2969.00           2413      318959.00   1461222.00
 1120.83        2969.25           2417      299669.00   1368530.00
 1120.86        2969.50           2420      282279.00   1285478.00
 1120.89        2969.75           2424      259038.00   1175226.00
 1120.92        2970.00           2427      243115.00   1100174.00
 1120.95        2970.25           2431      220414.00    993844.20
 1120.98        2970.50           2434      203641.00    915780.70
 1121.02        2970.75           2438      180779.00    810051.60
 1121.05        2971.00           2441      163764.00    731860.50
 1121.08        2971.25           2445      140457.00    625433.60
 1121.11        2971.50           2449      116579.00    517200.70
 1121.14        2971.75           2452       97966.00    433386.80
 1121.17        2972.00           2456       74274.00    327393.50
 1121.20        2972.25           2459       57286.00    251862.90
 1121.23        2972.50           2463       36878.00    161638.70
 1121.26        2972.75           2466       22821.00     99813.75
 1121.29        2973.00           2470        8304.00     36237.74
 1121.32        2973.25           2473        3531.00     15394.72
 1121.35        2973.50           2477        2008.00      8750.21
 1121.38        2973.75           2481        1880.00      8191.91
 1121.41        2974.00           2484        1789.00      7795.00
 1121.44        2974.25           2488        1766.00      7694.69
 1121.47        2974.50           2491        1739.00      7576.93
 1121.50        2974.75           2495        1641.00      7149.51
 1121.54        2975.00           2498        1669.00      7271.63
 1121.57        2975.25           2502        1634.00      7118.99
 1121.60        2975.50           2505        1598.00      6961.98
 1121.63        2975.75           2509        1604.00      6988.15
 1121.66        2976.00           2512        1603.00      6983.79
 1121.69        2976.25           2516        1562.00      6804.97
 1121.72        2976.50           2520        1511.00      6582.55
 1121.75        2976.75           2523        1521.00      6626.17
 1121.78        2977.00           2527        1494.00      6508.41
 1121.81        2977.25           2530        1484.00      6464.80
 1121.84        2977.50           2534        1471.00      6408.11
 1121.87        2977.75           2537        1446.00      6299.08
 1121.90        2978.00           2541        1460.00      6360.14
 1121.93        2978.25           2544        1439.00      6268.55
 1121.96        2978.50           2548        1392.00      6063.59
 1121.99        2978.75           2552        1422.00      6194.42
 1122.02        2979.00           2555        1385.00      6033.06
 1122.06        2979.25           2559        1389.00      6050.50
 1122.09        2979.50           2562        1373.00      5980.73
 1122.12        2979.75           2566        1372.00      5976.37
 1122.15        2980.00           2569        1342.00      5845.54
 1122.18        2980.25           2573        1349.00      5876.07
 1122.21        2980.50           2577        1353.00      5893.51
 1122.24        2980.75           2580        1316.00      5732.16
 1122.27        2981.00           2584        1325.00      5771.40
 1122.30        2981.25           2587        1324.00      5767.04
 1122.33        2981.50           2591        1359.00      5919.68
 1122.36        2981.75           2594        1272.00      5540.28
 1122.39        2982.00           2598        1294.00      5636.22
 1122.42        2982.25           2601        1314.00      5723.43
 1122.45        2982.50           2605        1290.00      5618.77
 1122.48        2982.75           2609        1292.00      5627.49
 1122.51        2983.00           2612        1295.00      5640.58
 1122.54        2983.25           2616        1281.00      5579.52
 1122.57        2983.50           2619        1293.00      5631.85
 1122.61        2983.75           2623        1277.00      5562.08
 1122.64        2984.00           2626        1267.00      5518.47
HS scan finished at 18:42:52
end
