************************************************************
  HS Scan of (1) Internal mercury lamp
************************************************************
Integration time is 0.2294 seconds per sample
dh120318Reading 51.44 .94 2.92pr1000
************************************************************
Dead Time -------------------------  3.4E-08 
Number of Cycles Used -------------  4 
Starting Wavelength (Angstroms) ---  2950 
Final Wavelength (Angstoms) -------  2984 
Wavelength Increment (Angstroms) --  .25 
Filter Wheel #1 Position ---------- (1) Ground quartz diffuser (ND=2.32)
Filter Wheel #2 Position ---------- (1) Neutral Density 0.494



************************************************************
HS scan start time = 03:34:44
Dark Count =  .9 


Time (GMT)  Wavelength (Ang)  Step Number  Raw Counts  Counts/Second

  215.64        2950.00           2144          81.00       349.18
  215.83        2950.25           2147          75.00       323.02
  215.86        2950.50           2151          83.00       357.89
  215.89        2950.75           2155          87.00       375.33
  215.92        2951.00           2158          75.00       323.02
  215.95        2951.25           2162          89.00       384.05
  215.98        2951.50           2165          90.00       388.41
  216.01        2951.75           2169          78.00       336.10
  216.04        2952.00           2172          89.00       384.05
  216.07        2952.25           2176          87.00       375.33
  216.10        2952.50           2179          85.00       366.61
  216.13        2952.75           2183          88.00       379.69
  216.17        2953.00           2186          79.00       340.46
  216.20        2953.25           2190          83.00       357.89
  216.23        2953.50           2193          86.00       370.97
  216.27        2953.75           2197          89.00       384.05
  216.30        2954.00           2200          91.00       392.77
  216.33        2954.25           2204          78.00       336.10
  216.36        2954.50           2208          82.00       353.54
  216.39        2954.75           2211         100.00       432.00
  216.43        2955.00           2215          92.00       397.13
  216.46        2955.25           2218          94.00       405.85
  216.49        2955.50           2222          87.00       375.33
  216.52        2955.75           2225          89.00       384.05
  216.55        2956.00           2229         102.00       440.72
  216.58        2956.25           2232         111.00       479.96
  216.61        2956.50           2236          92.00       397.13
  216.64        2956.75           2239          92.00       397.13
  216.67        2957.00           2243         118.00       510.47
  216.70        2957.25           2246          92.00       397.13
  216.73        2957.50           2250          99.00       427.64
  216.76        2957.75           2254          97.00       418.92
  216.79        2958.00           2257         110.00       475.60
  216.82        2958.25           2261          97.00       418.92
  216.85        2958.50           2264         118.00       510.47
  216.88        2958.75           2268         126.00       545.35
  216.91        2959.00           2271         119.00       514.83
  216.95        2959.25           2275          95.00       410.21
  216.98        2959.50           2278         110.00       475.60
  217.01        2959.75           2282         113.00       488.67
  217.04        2960.00           2285         111.00       479.96
  217.07        2960.25           2289         124.00       536.63
  217.10        2960.50           2293         119.00       514.83
  217.13        2960.75           2296         168.00       728.44
  217.16        2961.00           2300         142.00       615.10
  217.19        2961.25           2303         225.00       976.93
  217.22        2961.50           2307         922.00      4015.81
  217.25        2961.75           2310        1947.00      8485.88
  217.28        2962.00           2314        3431.00     14960.09
  217.31        2962.25           2317        4549.00     19839.45
  217.34        2962.50           2321        6030.00     26305.56
  217.37        2962.75           2324        7129.00     31105.68
  217.40        2963.00           2328        8623.00     37633.56
  217.43        2963.25           2331        9774.00     42664.72
  217.47        2963.50           2335       11523.00     50313.11
  217.50        2963.75           2339       13230.00     57781.67
  217.53        2964.00           2342       14825.00     64763.64
  217.56        2964.25           2346       16329.00     71350.31
  217.59        2964.50           2349       17586.00     76857.50
  217.62        2964.75           2353       19284.00     84300.12
  217.65        2965.00           2356       20417.00     89268.34
  217.68        2965.25           2360       22297.00     97515.90
  217.71        2965.50           2363       23427.00    102475.40
  217.74        2965.75           2367       24831.00    108639.90
  217.77        2966.00           2370       25863.00    113172.70
  217.80        2966.25           2374       27400.00    119926.10
  217.83        2966.50           2378       28094.00    122976.50
  217.86        2966.75           2381       28768.00    125939.60
  217.89        2967.00           2385       28778.00    125983.60
  217.92        2967.25           2388       28713.00    125697.80
  217.95        2967.50           2392       28792.00    126045.10
  217.99        2967.75           2395       28583.00    125126.20
  218.02        2968.00           2399       27770.00    121552.30
  218.05        2968.25           2402       26966.00    118018.80
  218.08        2968.50           2406       25216.00    110330.70
  218.11        2968.75           2409       23739.00    103845.10
  218.14        2969.00           2413       21988.00     96160.00
  218.17        2969.25           2417       20343.00     88943.81
  218.20        2969.50           2420       19010.00     83098.88
  218.23        2969.75           2424       17269.00     75468.46
  218.26        2970.00           2427       16061.00     70176.40
  218.29        2970.25           2431       14259.00     62285.64
  218.32        2970.50           2434       12996.00     56757.64
  218.35        2970.75           2438       11493.00     50181.89
  218.38        2971.00           2441       10381.00     45318.69
  218.41        2971.25           2445        8849.00     38621.30
  218.44        2971.50           2449        7129.00     31105.68
  218.47        2971.75           2452        5722.00     24960.58
  218.51        2972.00           2456        4156.00     18124.07
  218.54        2972.25           2459        2951.00     12865.70
  218.57        2972.50           2463        1481.00      6453.47
  218.60        2972.75           2466         652.00      2838.55
  218.63        2973.00           2470         247.00      1072.84
  218.66        2973.25           2473         158.00       684.85
  218.69        2973.50           2477         150.00       649.97
  218.72        2973.75           2481         141.00       610.74
  218.75        2974.00           2484         135.00       584.58
  218.78        2974.25           2488         117.00       506.11
  218.81        2974.50           2491         117.00       506.11
  218.84        2974.75           2495         130.00       562.78
  218.87        2975.00           2498         135.00       584.58
  218.90        2975.25           2502         116.00       501.75
  218.93        2975.50           2505         127.00       549.71
  218.96        2975.75           2509          95.00       410.21
  218.99        2976.00           2512         100.00       432.00
  219.02        2976.25           2516         103.00       445.08
  219.06        2976.50           2520         103.00       445.08
  219.09        2976.75           2523         108.00       466.88
  219.12        2977.00           2527         105.00       453.80
  219.15        2977.25           2530          93.00       401.49
  219.18        2977.50           2534         111.00       479.96
  219.21        2977.75           2537          85.00       366.61
  219.25        2978.00           2541          90.00       388.41
  219.28        2978.25           2544         108.00       466.88
  219.31        2978.50           2548          83.00       357.89
  219.34        2978.75           2552          92.00       397.13
  219.37        2979.00           2555          88.00       379.69
  219.40        2979.25           2559          87.00       375.33
  219.43        2979.50           2562          99.00       427.64
  219.46        2979.75           2566          88.00       379.69
  219.49        2980.00           2569          84.00       362.25
  219.52        2980.25           2573          89.00       384.05
  219.55        2980.50           2577          92.00       397.13
  219.58        2980.75           2580          97.00       418.92
  219.61        2981.00           2584          79.00       340.46
  219.64        2981.25           2587          84.00       362.25
  219.67        2981.50           2591          76.00       327.38
  219.70        2981.75           2594          80.00       344.82
  219.73        2982.00           2598          78.00       336.10
  219.77        2982.25           2601          90.00       388.41
  219.80        2982.50           2605          90.00       388.41
  219.83        2982.75           2609          73.00       314.30
  219.86        2983.00           2612          80.00       344.82
  219.89        2983.25           2616          80.00       344.82
  219.92        2983.50           2619          85.00       366.61
  219.95        2983.75           2623         102.00       440.72
  219.98        2984.00           2626          79.00       340.46
HS scan finished at 03:40:12
end
************************************************************
  HS Scan of (1) Internal mercury lamp
************************************************************
Integration time is 0.2294 seconds per sample
dh120318Reading 51.44 .94 2.94pr1000
************************************************************
Dead Time -------------------------  3.4E-08 
Number of Cycles Used -------------  4 
Starting Wavelength (Angstroms) ---  2950 
Final Wavelength (Angstoms) -------  2984 
Wavelength Increment (Angstroms) --  .25 
Filter Wheel #1 Position ---------- (1) Ground quartz diffuser (ND=2.32)
Filter Wheel #2 Position ---------- (1) Neutral Density 0.494



************************************************************
HS scan start time = 19:07:23
Dark Count =  .6 


Time (GMT)  Wavelength (Ang)  Step Number  Raw Counts  Counts/Second

 1148.29        2950.00           2144         163.00       707.95
 1148.48        2950.25           2147         170.00       738.47
 1148.51        2950.50           2151         164.00       712.31
 1148.54        2950.75           2155         175.00       760.26
 1148.57        2951.00           2158         172.00       747.19
 1148.60        2951.25           2162         162.00       703.59
 1148.63        2951.50           2165         164.00       712.31
 1148.66        2951.75           2169         183.00       795.14
 1148.69        2952.00           2172         179.00       777.70
 1148.72        2952.25           2176         166.00       721.03
 1148.75        2952.50           2179         161.00       699.23
 1148.78        2952.75           2183         177.00       768.98
 1148.82        2953.00           2186         167.00       725.39
 1148.85        2953.25           2190         184.00       799.50
 1148.88        2953.50           2193         188.00       816.94
 1148.91        2953.75           2197         170.00       738.47
 1148.94        2954.00           2200         181.00       786.42
 1148.97        2954.25           2204         176.00       764.62
 1149.00        2954.50           2208         183.00       795.14
 1149.03        2954.75           2211         178.00       773.34
 1149.06        2955.00           2215         176.00       764.62
 1149.09        2955.25           2218         168.00       729.75
 1149.12        2955.50           2222         193.00       838.73
 1149.15        2955.75           2225         185.00       803.86
 1149.18        2956.00           2229         186.00       808.22
 1149.21        2956.25           2232         183.00       795.14
 1149.24        2956.50           2236         203.00       882.33
 1149.27        2956.75           2239         188.00       816.94
 1149.30        2957.00           2243         195.00       847.45
 1149.34        2957.25           2246         199.00       864.89
 1149.37        2957.50           2250         194.00       843.09
 1149.40        2957.75           2254         196.00       851.81
 1149.44        2958.00           2257         204.00       886.69
 1149.47        2958.25           2261         224.00       973.88
 1149.50        2958.50           2264         203.00       882.33
 1149.53        2958.75           2268         217.00       943.36
 1149.56        2959.00           2271         218.00       947.72
 1149.59        2959.25           2275         229.00       995.67
 1149.62        2959.50           2278         236.00      1026.19
 1149.65        2959.75           2282         255.00      1109.02
 1149.68        2960.00           2285         235.00      1021.83
 1149.71        2960.25           2289         245.00      1065.43
 1149.74        2960.50           2293         261.00      1135.18
 1149.77        2960.75           2296         251.00      1091.58
 1149.80        2961.00           2300         311.00      1353.16
 1149.83        2961.25           2303         546.00      2377.70
 1149.86        2961.50           2307        2331.00     10162.19
 1149.89        2961.75           2310        4457.00     19439.17
 1149.92        2962.00           2314        7442.00     32474.37
 1149.96        2962.25           2317       10221.00     44620.39
 1149.99        2962.50           2321       14383.00     62829.81
 1150.02        2962.75           2324       17550.00     76701.08
 1150.05        2963.00           2328       21757.00     95147.77
 1150.08        2963.25           2331       24731.00    108202.00
 1150.11        2963.50           2335       28567.00    125057.20
 1150.14        2963.75           2339       32732.00    143379.90
 1150.17        2964.00           2342       36145.00    158411.50
 1150.20        2964.25           2346       40220.00    176378.90
 1150.23        2964.50           2349       43789.00    192133.30
 1150.26        2964.75           2353       47763.00    209695.50
 1150.29        2965.00           2356       50822.00    223228.40
 1150.32        2965.25           2360       54370.00    238940.20
 1150.35        2965.50           2363       56974.00    250482.50
 1150.38        2965.75           2367       60882.00    267821.80
 1150.41        2966.00           2370       63477.00    279346.80
 1150.44        2966.25           2374       66921.00    294656.50
 1150.48        2966.50           2378       68710.00    302615.50
 1150.51        2966.75           2381       69269.00    305103.30
 1150.54        2967.00           2385       69518.00    306211.60
 1150.57        2967.25           2388       69316.00    305312.50
 1150.60        2967.50           2392       69318.00    305321.40
 1150.63        2967.75           2395       68844.00    303211.80
 1150.66        2968.00           2399       66664.00    293513.50
 1150.69        2968.25           2402       63698.00    280328.80
 1150.72        2968.50           2406       60395.00    265659.90
 1150.75        2968.75           2409       57289.00    251879.40
 1150.78        2969.00           2413       53707.00    236003.00
 1150.81        2969.25           2417       50648.00    222458.30
 1150.84        2969.50           2420       47118.00    206843.60
 1150.87        2969.75           2424       42979.00    188556.30
 1150.90        2970.00           2427       39412.00    172814.50
 1150.93        2970.25           2431       35474.00    155455.10
 1150.96        2970.50           2434       32411.00    141967.00
 1151.00        2970.75           2438       28641.00    125382.60
 1151.03        2971.00           2441       25555.00    111821.00
 1151.06        2971.25           2445       21649.00     94673.92
 1151.09        2971.50           2449       17569.00     76784.33
 1151.12        2971.75           2452       14691.00     64178.25
 1151.15        2972.00           2456       10863.00     47427.78
 1151.18        2972.25           2459        7816.00     34108.41
 1151.21        2972.50           2463        4297.00     18740.80
 1151.24        2972.75           2466        2219.00      9673.63
 1151.27        2973.00           2470         787.00      3428.47
 1151.30        2973.25           2473         367.00      1597.30
 1151.33        2973.50           2477         275.00      1196.21
 1151.36        2973.75           2481         266.00      1156.98
 1151.39        2974.00           2484         258.00      1122.10
 1151.42        2974.25           2488         263.00      1143.90
 1151.45        2974.50           2491         217.00       943.36
 1151.48        2974.75           2495         239.00      1039.27
 1151.52        2975.00           2498         231.00      1004.39
 1151.55        2975.25           2502         204.00       886.69
 1151.58        2975.50           2505         220.00       956.44
 1151.61        2975.75           2509         212.00       921.56
 1151.64        2976.00           2512         220.00       956.44
 1151.67        2976.25           2516         208.00       904.13
 1151.70        2976.50           2520         201.00       873.61
 1151.73        2976.75           2523         202.00       877.97
 1151.76        2977.00           2527         202.00       877.97
 1151.79        2977.25           2530         198.00       860.53
 1151.82        2977.50           2534         196.00       851.81
 1151.85        2977.75           2537         193.00       838.73
 1151.88        2978.00           2541         197.00       856.17
 1151.91        2978.25           2544         179.00       777.70
 1151.94        2978.50           2548         185.00       803.86
 1151.97        2978.75           2552         166.00       721.03
 1152.00        2979.00           2555         163.00       707.95
 1152.04        2979.25           2559         171.00       742.83
 1152.08        2979.50           2562         170.00       738.47
 1152.11        2979.75           2566         169.00       734.11
 1152.14        2980.00           2569         172.00       747.19
 1152.17        2980.25           2573         165.00       716.67
 1152.20        2980.50           2577         166.00       721.03
 1152.23        2980.75           2580         164.00       712.31
 1152.26        2981.00           2584         170.00       738.47
 1152.29        2981.25           2587         161.00       699.23
 1152.33        2981.50           2591         156.00       677.43
 1152.36        2981.75           2594         172.00       747.19
 1152.39        2982.00           2598         156.00       677.43
 1152.42        2982.25           2601         144.00       625.12
 1152.45        2982.50           2605         160.00       694.87
 1152.48        2982.75           2609         150.00       651.28
 1152.51        2983.00           2612         158.00       686.15
 1152.54        2983.25           2616         168.00       729.75
 1152.57        2983.50           2619         161.00       699.23
 1152.60        2983.75           2623         140.00       607.68
 1152.63        2984.00           2626         159.00       690.51
HS scan finished at 19:12:51
end
