************************************************************
  HS Scan of (1) Internal mercury lamp
************************************************************
Integration time is 0.2294 seconds per sample
dh110319Reading 51.44 .94 2.49pr1000
************************************************************
Dead Time -------------------------  3.4E-08 
Number of Cycles Used -------------  4 
Starting Wavelength (Angstroms) ---  2950 
Final Wavelength (Angstoms) -------  2984 
Wavelength Increment (Angstroms) --  .25 
Filter Wheel #1 Position ---------- (1) Ground quartz diffuser (ND=2.32)
Filter Wheel #2 Position ---------- (1) Neutral Density 0.494



************************************************************
HS scan start time = 03:41:26
Dark Count =  .2 


Time (GMT)  Wavelength (Ang)  Step Number  Raw Counts  Counts/Second

  222.33        2950.00           2144        1686.00      7350.57
  222.52        2950.25           2147        1679.00      7320.04
  222.55        2950.50           2151        1742.00      7594.81
  222.58        2950.75           2155        1730.00      7542.47
  222.61        2951.00           2158        1694.00      7385.46
  222.64        2951.25           2162        1772.00      7725.66
  222.67        2951.50           2165        1697.00      7398.55
  222.70        2951.75           2169        1707.00      7442.16
  222.73        2952.00           2172        1721.00      7503.22
  222.76        2952.25           2176        1679.00      7320.04
  222.80        2952.50           2179        1714.00      7472.69
  222.83        2952.75           2183        1715.00      7477.05
  222.86        2953.00           2186        1737.00      7573.01
  222.89        2953.25           2190        1762.00      7682.04
  222.92        2953.50           2193        1725.00      7520.67
  222.95        2953.75           2197        1717.00      7485.78
  222.98        2954.00           2200        1767.00      7703.85
  223.01        2954.25           2204        1755.00      7651.51
  223.04        2954.50           2208        1735.00      7564.28
  223.07        2954.75           2211        1823.00      7948.09
  223.10        2955.00           2215        1750.00      7629.70
  223.13        2955.25           2218        1821.00      7939.37
  223.16        2955.50           2222        1824.00      7952.46
  223.19        2955.75           2225        1816.00      7917.56
  223.22        2956.00           2229        1846.00      8048.41
  223.25        2956.25           2232        1826.00      7961.18
  223.28        2956.50           2236        1810.00      7891.39
  223.32        2956.75           2239        1877.00      8183.62
  223.35        2957.00           2243        1894.00      8257.77
  223.38        2957.25           2246        1857.00      8096.39
  223.41        2957.50           2250        1924.00      8388.62
  223.44        2957.75           2254        1894.00      8257.77
  223.47        2958.00           2257        1891.00      8244.68
  223.50        2958.25           2261        1921.00      8375.53
  223.53        2958.50           2264        1924.00      8388.62
  223.56        2958.75           2268        1951.00      8506.38
  223.59        2959.00           2271        1939.00      8454.04
  223.62        2959.25           2275        1948.00      8493.30
  223.65        2959.50           2278        1975.00      8611.07
  223.68        2959.75           2282        2050.00      8938.20
  223.71        2960.00           2285        2045.00      8916.39
  223.74        2960.25           2289        2082.00      9077.78
  223.77        2960.50           2293        2127.00      9274.07
  223.80        2960.75           2296        2164.00      9435.46
  223.84        2961.00           2300        2271.00      9902.20
  223.87        2961.25           2303        2584.00     11267.61
  223.90        2961.50           2307        7296.00     31838.28
  223.93        2961.75           2310       17278.00     75510.96
  223.96        2962.00           2314       34477.00    151065.10
  223.99        2962.25           2317       48022.00    210842.60
  224.02        2962.50           2321       68980.00    303818.90
  224.05        2962.75           2324       84260.00    371980.00
  224.08        2963.00           2328      105079.00    465364.50
  224.11        2963.25           2331      121627.00    540020.00
  224.14        2963.50           2335      145926.00    650341.80
  224.17        2963.75           2339      170622.00    763330.20
  224.20        2964.00           2342      187750.00    842213.50
  224.23        2964.25           2346      210166.00    946103.90
  224.26        2964.50           2349      227270.00   1025880.00
  224.29        2964.75           2353      247955.00   1122950.00
  224.32        2965.00           2356      264704.00   1202032.00
  224.36        2965.25           2360      285748.00   1302012.00
  224.39        2965.50           2363      300787.00   1373891.00
  224.42        2965.75           2367      322236.00   1477033.00
  224.45        2966.00           2370      336893.00   1547944.00
  224.48        2966.25           2374      354914.00   1635615.00
  224.51        2966.50           2378      371820.00   1718353.00
  224.54        2966.75           2381      377733.00   1747405.00
  224.57        2967.00           2385      380702.00   1762014.00
  224.60        2967.25           2388      381003.00   1763497.00
  224.63        2967.50           2392      380914.00   1763058.00
  224.66        2967.75           2395      381328.00   1765097.00
  224.69        2968.00           2399      377611.00   1746805.00
  224.72        2968.25           2402      369463.00   1706789.00
  224.75        2968.50           2406      352545.00   1624059.00
  224.78        2968.75           2409      338070.00   1553654.00
  224.81        2969.00           2413      316769.00   1450674.00
  224.84        2969.25           2417      294823.00   1345343.00
  224.88        2969.50           2420      276213.00   1256625.00
  224.91        2969.75           2424      253776.00   1150386.00
  224.94        2970.00           2427      238599.00   1078964.00
  224.97        2970.25           2431      213941.00    963673.20
  225.00        2970.50           2434      197225.00    886035.90
  225.03        2970.75           2438      172558.00    772225.00
  225.06        2971.00           2441      155252.00    692906.60
  225.09        2971.25           2445      132644.00    589935.50
  225.12        2971.50           2449      111176.00    492826.40
  225.15        2971.75           2452       94507.00    417868.80
  225.18        2972.00           2456       71191.00    313662.10
  225.21        2972.25           2459       54109.00    237785.70
  225.24        2972.50           2463       31985.00    140093.80
  225.27        2972.75           2466       18165.00     79398.01
  225.30        2973.00           2470        6558.00     28614.57
  225.33        2973.25           2473        3377.00     14727.51
  225.36        2973.50           2477        2353.00     10259.90
  225.39        2973.75           2481        2181.00      9509.61
  225.43        2974.00           2484        2142.00      9339.50
  225.46        2974.25           2488        2083.00      9082.14
  225.49        2974.50           2491        2061.00      8986.18
  225.52        2974.75           2495        2042.00      8903.31
  225.55        2975.00           2498        2010.00      8763.73
  225.58        2975.25           2502        1887.00      8227.24
  225.61        2975.50           2505        1946.00      8484.58
  225.64        2975.75           2509        1943.00      8471.49
  225.67        2976.00           2512        1917.00      8358.09
  225.70        2976.25           2516        1886.00      8222.88
  225.73        2976.50           2520        1867.00      8140.00
  225.76        2976.75           2523        1872.00      8161.81
  225.79        2977.00           2527        1838.00      8013.52
  225.82        2977.25           2530        1842.00      8030.96
  225.85        2977.50           2534        1798.00      7839.06
  225.88        2977.75           2537        1792.00      7812.89
  225.91        2978.00           2541        1782.00      7769.27
  225.95        2978.25           2544        1781.00      7764.91
  225.98        2978.50           2548        1728.00      7533.75
  226.01        2978.75           2552        1763.00      7686.40
  226.04        2979.00           2555        1715.00      7477.05
  226.07        2979.25           2559        1686.00      7350.57
  226.10        2979.50           2562        1719.00      7494.50
  226.13        2979.75           2566        1706.00      7437.80
  226.16        2980.00           2569        1641.00      7154.31
  226.19        2980.25           2573        1676.00      7306.96
  226.22        2980.50           2577        1670.00      7280.79
  226.25        2980.75           2580        1656.00      7219.73
  226.28        2981.00           2584        1633.00      7119.42
  226.31        2981.25           2587        1674.00      7298.24
  226.34        2981.50           2591        1637.00      7136.87
  226.37        2981.75           2594        1632.00      7115.06
  226.40        2982.00           2598        1617.00      7049.64
  226.43        2982.25           2601        1630.00      7106.34
  226.47        2982.50           2605        1619.00      7058.36
  226.50        2982.75           2609        1612.00      7027.84
  226.53        2983.00           2612        1583.00      6901.36
  226.56        2983.25           2616        1585.00      6910.08
  226.59        2983.50           2619        1591.00      6936.25
  226.62        2983.75           2623        1574.00      6862.11
  226.65        2984.00           2626        1574.00      6862.11
HS scan finished at 03:46:52
end
************************************************************
  HS Scan of (1) Internal mercury lamp
************************************************************
Integration time is 0.2294 seconds per sample
dh110319Reading 51.44 .94 3.05pr1000
************************************************************
Dead Time -------------------------  3.4E-08 
Number of Cycles Used -------------  4 
Starting Wavelength (Angstroms) ---  2950 
Final Wavelength (Angstoms) -------  2984 
Wavelength Increment (Angstroms) --  .25 
Filter Wheel #1 Position ---------- (1) Ground quartz diffuser (ND=2.32)
Filter Wheel #2 Position ---------- (1) Neutral Density 0.494



************************************************************
HS scan start time = 19:07:26
Dark Count =  1.3 


Time (GMT)  Wavelength (Ang)  Step Number  Raw Counts  Counts/Second

 1148.33        2950.00           2144        1156.00      5034.43
 1148.52        2950.25           2147        1132.00      4929.77
 1148.55        2950.50           2151        1128.00      4912.33
 1148.58        2950.75           2155        1142.00      4973.38
 1148.61        2951.00           2158        1187.00      5169.61
 1148.64        2951.25           2162        1169.00      5091.12
 1148.67        2951.50           2165        1154.00      5025.71
 1148.70        2951.75           2169        1174.00      5112.92
 1148.73        2952.00           2172        1154.00      5025.71
 1148.76        2952.25           2176        1164.00      5069.31
 1148.80        2952.50           2179        1173.00      5108.56
 1148.83        2952.75           2183        1198.00      5217.58
 1148.86        2953.00           2186        1196.00      5208.86
 1148.89        2953.25           2190        1169.00      5091.12
 1148.92        2953.50           2193        1207.00      5256.82
 1148.95        2953.75           2197        1220.00      5313.51
 1148.98        2954.00           2200        1170.00      5095.48
 1149.01        2954.25           2204        1225.00      5335.32
 1149.04        2954.50           2208        1210.00      5269.91
 1149.07        2954.75           2211        1228.00      5348.40
 1149.10        2955.00           2215        1200.00      5226.30
 1149.13        2955.25           2218        1198.00      5217.58
 1149.16        2955.50           2222        1265.00      5509.75
 1149.19        2955.75           2225        1237.00      5387.65
 1149.22        2956.00           2229        1233.00      5370.20
 1149.25        2956.25           2232        1259.00      5483.59
 1149.28        2956.50           2236        1315.00      5727.79
 1149.32        2956.75           2239        1280.00      5575.16
 1149.35        2957.00           2243        1313.00      5719.07
 1149.38        2957.25           2246        1270.00      5531.55
 1149.41        2957.50           2250        1315.00      5727.79
 1149.44        2957.75           2254        1304.00      5679.82
 1149.47        2958.00           2257        1319.00      5745.24
 1149.50        2958.25           2261        1327.00      5780.13
 1149.53        2958.50           2264        1334.00      5810.65
 1149.56        2958.75           2268        1377.00      5998.17
 1149.59        2959.00           2271        1377.00      5998.17
 1149.62        2959.25           2275        1391.00      6059.23
 1149.65        2959.50           2278        1415.00      6163.89
 1149.68        2959.75           2282        1443.00      6286.00
 1149.71        2960.00           2285        1492.00      6499.69
 1149.74        2960.25           2289        1484.00      6464.80
 1149.77        2960.50           2293        1498.00      6525.86
 1149.80        2960.75           2296        1519.00      6617.44
 1149.84        2961.00           2300        1620.00      7057.93
 1149.87        2961.25           2303        1874.00      8165.74
 1149.90        2961.50           2307        4232.00     18454.03
 1149.93        2961.75           2310       10524.00     45942.25
 1149.96        2962.00           2314       23630.00    103364.80
 1149.99        2962.25           2317       35253.00    154478.40
 1150.02        2962.50           2321       53057.00    233120.70
 1150.05        2962.75           2324       67733.00    298265.40
 1150.08        2963.00           2328       88021.00    388801.10
 1150.11        2963.25           2331      103744.00    459353.50
 1150.14        2963.50           2335      123017.00    546303.40
 1150.17        2963.75           2339      141521.00    630275.10
 1150.20        2964.00           2342      155543.00    694231.80
 1150.23        2964.25           2346      176010.00    788093.50
 1150.26        2964.50           2349      190862.00    856587.10
 1150.29        2964.75           2353      209244.00    941810.90
 1150.32        2965.00           2356      223145.00   1006595.00
 1150.36        2965.25           2360      240701.00   1088829.00
 1150.39        2965.50           2363      252062.00   1142297.00
 1150.42        2965.75           2367      268520.00   1220105.00
 1150.45        2966.00           2370      282724.00   1287597.00
 1150.48        2966.25           2374      300483.00   1372429.00
 1150.51        2966.50           2378      314180.00   1438202.00
 1150.54        2966.75           2381      319356.00   1463136.00
 1150.57        2967.00           2385      320996.00   1471045.00
 1150.60        2967.25           2388      321045.00   1471281.00
 1150.63        2967.50           2392      321620.00   1474055.00
 1150.66        2967.75           2395      321063.00   1471368.00
 1150.69        2968.00           2399      319266.00   1462702.00
 1150.72        2968.25           2402      313180.00   1433390.00
 1150.75        2968.50           2406      298928.00   1364981.00
 1150.78        2968.75           2409      285265.00   1299704.00
 1150.81        2969.00           2413      268134.00   1218275.00
 1150.84        2969.25           2417      252951.00   1146489.00
 1150.87        2969.50           2420      241039.00   1090417.00
 1150.91        2969.75           2424      222082.00   1001630.00
 1150.94        2970.00           2427      206512.00    929112.90
 1150.97        2970.25           2431      186090.00    834544.50
 1151.00        2970.50           2434      171744.00    768479.50
 1151.03        2970.75           2438      153719.00    685896.30
 1151.06        2971.00           2441      139884.00    622826.80
 1151.09        2971.25           2445      118910.00    527731.10
 1151.12        2971.50           2449       97251.00    430176.70
 1151.15        2971.75           2452       81832.00    361123.10
 1151.18        2972.00           2456       62257.00    273924.30
 1151.21        2972.25           2459       48324.00    212173.30
 1151.24        2972.50           2463       30342.00    132859.90
 1151.27        2972.75           2466       18076.00     79003.13
 1151.30        2973.00           2470        6380.00     27832.35
 1151.33        2973.25           2473        2937.00     12802.87
 1151.36        2973.50           2477        1788.00      7790.64
 1151.40        2973.75           2481        1588.00      6918.37
 1151.43        2974.00           2484        1562.00      6804.97
 1151.46        2974.25           2488        1512.00      6586.92
 1151.49        2974.50           2491        1472.00      6412.47
 1151.52        2974.75           2495        1446.00      6299.08
 1151.55        2975.00           2498        1445.00      6294.72
 1151.58        2975.25           2502        1434.00      6246.75
 1151.61        2975.50           2505        1401.00      6102.84
 1151.64        2975.75           2509        1368.00      5958.92
 1151.67        2976.00           2512        1366.00      5950.20
 1151.70        2976.25           2516        1366.00      5950.20
 1151.73        2976.50           2520        1319.00      5745.24
 1151.76        2976.75           2523        1301.00      5666.74
 1151.79        2977.00           2527        1291.00      5623.13
 1151.82        2977.25           2530        1274.00      5549.00
 1151.85        2977.50           2534        1264.00      5505.39
 1151.88        2977.75           2537        1275.00      5553.36
 1151.92        2978.00           2541        1284.00      5592.61
 1151.95        2978.25           2544        1240.00      5400.73
 1151.98        2978.50           2548        1235.00      5378.93
 1152.01        2978.75           2552        1205.00      5248.10
 1152.04        2979.00           2555        1201.00      5230.66
 1152.07        2979.25           2559        1198.00      5217.58
 1152.10        2979.50           2562        1204.00      5243.74
 1152.13        2979.75           2566        1158.00      5043.15
 1152.16        2980.00           2569        1167.00      5082.40
 1152.19        2980.25           2573        1181.00      5143.45
 1152.22        2980.50           2577        1162.00      5060.59
 1152.25        2980.75           2580        1147.00      4995.18
 1152.28        2981.00           2584        1149.00      5003.90
 1152.31        2981.25           2587        1165.00      5073.67
 1152.34        2981.50           2591        1154.00      5025.71
 1152.37        2981.75           2594        1151.00      5012.62
 1152.40        2982.00           2598        1147.00      4995.18
 1152.44        2982.25           2601        1097.00      4777.15
 1152.47        2982.50           2605        1113.00      4846.92
 1152.50        2982.75           2609        1133.00      4934.13
 1152.53        2983.00           2612        1133.00      4934.13
 1152.56        2983.25           2616        1115.00      4855.64
 1152.59        2983.50           2619        1065.00      4637.61
 1152.62        2983.75           2623        1134.00      4938.49
 1152.65        2984.00           2626        1098.00      4781.51
HS scan finished at 19:12:52
end
