************************************************************
  HS Scan of 
************************************************************
Integration time is 0.2294 seconds per sample
dh190317Reading 51.44 .94 3.13pr1000
************************************************************
Dead Time -------------------------  3.4E-08 
Number of Cycles Used -------------  4 
Starting Wavelength (Angstroms) ---  2950 
Final Wavelength (Angstoms) -------  2984 
Wavelength Increment (Angstroms) --  .25 
Filter Wheel #1 Position ---------- (1) Ground quartz diffuser (ND=2.32)
Filter Wheel #2 Position ---------- (1) Neutral Density 0.494



************************************************************
HS scan start time = 03:11:05
Dark Count =  1.3 


Time (GMT)  Wavelength (Ang)  Step Number  Raw Counts  Counts/Second

  191.98        2950.00           2144         939.00      4088.19
  192.17        2950.25           2147         954.00      4153.59
  192.20        2950.50           2151         978.00      4258.25
  192.23        2950.75           2155         961.00      4184.12
  192.26        2951.00           2158         978.00      4258.25
  192.29        2951.25           2162         925.00      4027.14
  192.32        2951.50           2165         941.00      4096.91
  192.35        2951.75           2169         940.00      4092.55
  192.38        2952.00           2172         976.00      4249.52
  192.41        2952.25           2176         973.00      4236.44
  192.45        2952.50           2179         989.00      4306.21
  192.48        2952.75           2183         968.00      4214.64
  192.51        2953.00           2186         999.00      4349.82
  192.54        2953.25           2190         945.00      4114.35
  192.57        2953.50           2193         978.00      4258.25
  192.60        2953.75           2197         989.00      4306.21
  192.63        2954.00           2200        1020.00      4441.39
  192.66        2954.25           2204        1001.00      4358.54
  192.69        2954.50           2208        1025.00      4463.19
  192.72        2954.75           2211         998.00      4345.45
  192.75        2955.00           2215        1042.00      4537.32
  192.78        2955.25           2218        1046.00      4554.76
  192.81        2955.50           2222        1032.00      4493.71
  192.84        2955.75           2225        1054.00      4589.64
  192.87        2956.00           2229        1069.00      4655.05
  192.90        2956.25           2232        1074.00      4676.86
  192.93        2956.50           2236        1062.00      4624.53
  192.97        2956.75           2239        1079.00      4698.66
  193.00        2957.00           2243        1054.00      4589.64
  193.03        2957.25           2246        1091.00      4750.99
  193.06        2957.50           2250        1124.00      4894.89
  193.09        2957.75           2254        1093.00      4759.71
  193.12        2958.00           2257        1082.00      4711.74
  193.15        2958.25           2261        1149.00      5003.90
  193.18        2958.50           2264        1159.00      5047.51
  193.21        2958.75           2268        1138.00      4955.94
  193.24        2959.00           2271        1175.00      5117.28
  193.27        2959.25           2275        1206.00      5252.46
  193.30        2959.50           2278        1177.00      5126.00
  193.33        2959.75           2282        1219.00      5309.15
  193.36        2960.00           2285        1234.00      5374.57
  193.39        2960.25           2289        1266.00      5514.11
  193.42        2960.50           2293        1326.00      5775.76
  193.45        2960.75           2296        1307.00      5692.91
  193.49        2961.00           2300        1408.00      6133.36
  193.52        2961.25           2303        1714.00      7467.89
  193.55        2961.50           2307        5586.00     24364.99
  193.58        2961.75           2310       13853.00     60506.65
  193.61        2962.00           2314       28513.00    124816.70
  193.64        2962.25           2317       40568.00    177911.20
  193.67        2962.50           2321       56419.00    248018.60
  193.70        2962.75           2324       67746.00    298323.10
  193.73        2963.00           2328       84367.00    372453.60
  193.76        2963.25           2331       98970.00    437895.50
  193.79        2963.50           2335      117084.00    519481.40
  193.82        2963.75           2339      133884.00    595559.50
  193.85        2964.00           2342      147342.00    656791.50
  193.88        2964.25           2346      164804.00    736627.60
  193.91        2964.50           2349      176867.00    792037.00
  193.94        2964.75           2353      193913.00    870697.60
  193.97        2965.00           2356      206215.00    927733.10
  194.02        2965.25           2360      221443.00    998647.20
  194.05        2965.50           2363      233262.00   1053927.00
  194.08        2965.75           2367      248979.00   1127768.00
  194.11        2966.00           2370      259878.00   1179196.00
  194.14        2966.25           2374      273951.00   1245874.00
  194.17        2966.50           2378      287697.00   1311302.00
  194.20        2966.75           2381      291529.00   1329594.00
  194.23        2967.00           2385      293237.00   1337755.00
  194.26        2967.25           2388      293372.00   1338401.00
  194.30        2967.50           2392      293472.00   1338879.00
  194.33        2967.75           2395      293209.00   1337622.00
  194.36        2968.00           2399      290474.00   1324556.00
  194.39        2968.25           2402      283410.00   1290865.00
  194.42        2968.50           2406      269316.00   1223879.00
  194.45        2968.75           2409      257099.00   1166065.00
  194.48        2969.00           2413      240736.00   1088994.00
  194.51        2969.25           2417      223026.00   1006039.00
  194.54        2969.50           2420      210784.00    948973.60
  194.57        2969.75           2424      194927.00    875390.30
  194.60        2970.00           2427      181182.00    811908.60
  194.63        2970.25           2431      162327.00    725276.10
  194.67        2970.50           2434      148525.00    662186.40
  194.70        2970.75           2438      130331.00    579436.60
  194.73        2971.00           2441      117436.00    521071.30
  194.76        2971.25           2445      100316.00    443942.20
  194.79        2971.50           2449       82861.00    365721.30
  194.82        2971.75           2452       69965.00    308198.30
  194.85        2972.00           2456       53064.00    233151.70
  194.88        2972.25           2459       39797.00    174509.70
  194.91        2972.50           2463       22970.00    100467.70
  194.94        2972.75           2466       12547.00     54791.17
  194.97        2973.00           2470        4204.00     18331.82
  195.01        2973.25           2473        2010.00      8758.93
  195.04        2973.50           2477        1444.00      6290.36
  195.07        2973.75           2481        1394.00      6072.31
  195.10        2974.00           2484        1320.00      5749.60
  195.13        2974.25           2488        1272.00      5540.28
  195.16        2974.50           2491        1263.00      5501.03
  195.19        2974.75           2495        1243.00      5413.81
  195.22        2975.00           2498        1239.00      5396.37
  195.25        2975.25           2502        1232.00      5365.84
  195.28        2975.50           2505        1194.00      5200.13
  195.32        2975.75           2509        1153.00      5021.35
  195.35        2976.00           2512        1181.00      5143.45
  195.38        2976.25           2516        1137.00      4951.57
  195.41        2976.50           2520        1140.00      4964.66
  195.44        2976.75           2523        1108.00      4825.12
  195.47        2977.00           2527        1105.00      4812.03
  195.50        2977.25           2530        1081.00      4707.38
  195.53        2977.50           2534        1085.00      4724.82
  195.56        2977.75           2537        1082.00      4711.74
  195.59        2978.00           2541        1081.00      4707.38
  195.62        2978.25           2544        1067.00      4646.33
  195.65        2978.50           2548        1043.00      4541.68
  195.68        2978.75           2552        1046.00      4554.76
  195.71        2979.00           2555        1031.00      4489.35
  195.74        2979.25           2559        1028.00      4476.27
  195.77        2979.50           2562        1019.00      4437.03
  195.80        2979.75           2566        1029.00      4480.63
  195.84        2980.00           2569        1004.00      4371.62
  195.87        2980.25           2573         993.00      4323.65
  195.90        2980.50           2577         974.00      4240.80
  195.93        2980.75           2580         968.00      4214.64
  195.96        2981.00           2584         951.00      4140.51
  195.99        2981.25           2587         975.00      4245.16
  196.02        2981.50           2591         950.00      4136.15
  196.05        2981.75           2594         933.00      4062.03
  196.08        2982.00           2598         972.00      4232.08
  196.11        2982.25           2601         976.00      4249.52
  196.14        2982.50           2605         966.00      4205.92
  196.17        2982.75           2609         932.00      4057.67
  196.20        2983.00           2612         918.00      3996.62
  196.23        2983.25           2616         933.00      4062.03
  196.26        2983.50           2619         913.00      3974.82
  196.29        2983.75           2623         922.00      4014.06
  196.32        2984.00           2626         930.00      4048.94
HS scan finished at 03:16:33
end
************************************************************
  HS Scan of 
************************************************************
Integration time is 0.2294 seconds per sample
dh190317Reading 51.44 .94 3.19pr1000
************************************************************
Dead Time -------------------------  3.4E-08 
Number of Cycles Used -------------  4 
Starting Wavelength (Angstroms) ---  2950 
Final Wavelength (Angstoms) -------  2984 
Wavelength Increment (Angstroms) --  .25 
Filter Wheel #1 Position ---------- (1) Ground quartz diffuser (ND=2.32)
Filter Wheel #2 Position ---------- (1) Neutral Density 0.494



************************************************************
HS scan start time = 19:07:23
Dark Count =  1.5 


Time (GMT)  Wavelength (Ang)  Step Number  Raw Counts  Counts/Second

 1148.29        2950.00           2144         952.00      4144.00
 1148.48        2950.25           2147         914.00      3978.31
 1148.51        2950.50           2151         924.00      4021.91
 1148.54        2950.75           2155         983.00      4279.18
 1148.57        2951.00           2158         949.00      4130.92
 1148.60        2951.25           2162         940.00      4091.68
 1148.64        2951.50           2165         953.00      4148.36
 1148.67        2951.75           2169         975.00      4244.29
 1148.70        2952.00           2172         967.00      4209.41
 1148.73        2952.25           2176         957.00      4165.80
 1148.76        2952.50           2179         965.00      4200.69
 1148.79        2952.75           2183         955.00      4157.08
 1148.82        2953.00           2186         989.00      4305.34
 1148.85        2953.25           2190         985.00      4287.90
 1148.88        2953.50           2193         972.00      4231.21
 1148.91        2953.75           2197         975.00      4244.29
 1148.94        2954.00           2200        1011.00      4401.27
 1148.97        2954.25           2204        1015.00      4418.71
 1149.00        2954.50           2208        1028.00      4475.40
 1149.03        2954.75           2211        1019.00      4436.15
 1149.06        2955.00           2215        1000.00      4353.30
 1149.09        2955.25           2218        1004.00      4370.75
 1149.12        2955.50           2222        1029.00      4479.76
 1149.16        2955.75           2225        1040.00      4527.72
 1149.19        2956.00           2229        1037.00      4514.64
 1149.22        2956.25           2232        1055.00      4593.13
 1149.25        2956.50           2236        1045.00      4549.53
 1149.28        2956.75           2239        1052.00      4580.05
 1149.31        2957.00           2243        1064.00      4632.38
 1149.34        2957.25           2246        1084.00      4719.59
 1149.37        2957.50           2250        1041.00      4532.08
 1149.40        2957.75           2254        1079.00      4697.79
 1149.43        2958.00           2257        1119.00      4872.21
 1149.46        2958.25           2261        1111.00      4837.33
 1149.49        2958.50           2264        1129.00      4915.82
 1149.52        2958.75           2268        1151.00      5011.75
 1149.55        2959.00           2271        1154.00      5024.83
 1149.58        2959.25           2275        1146.00      4989.95
 1149.61        2959.50           2278        1180.00      5138.21
 1149.64        2959.75           2282        1212.00      5277.76
 1149.68        2960.00           2285        1161.00      5055.36
 1149.71        2960.25           2289        1187.00      5168.74
 1149.74        2960.50           2293        1248.00      5434.74
 1149.77        2960.75           2296        1272.00      5539.40
 1149.80        2961.00           2300        1404.00      6115.05
 1149.83        2961.25           2303        1917.00      8352.42
 1149.86        2961.50           2307        7188.00     31360.80
 1149.89        2961.75           2310       15478.00     67620.41
 1149.92        2962.00           2314       28943.00    126706.40
 1149.95        2962.25           2317       39211.00    171924.00
 1149.98        2962.50           2321       54115.00    237806.50
 1150.01        2962.75           2324       65077.00    286453.40
 1150.04        2963.00           2328       79971.00    352809.80
 1150.07        2963.25           2331       92493.00    408832.30
 1150.10        2963.50           2335      109081.00    483378.50
 1150.13        2963.75           2339      124781.00    554286.70
 1150.16        2964.00           2342      137904.00    613822.00
 1150.20        2964.25           2346      153646.00    685561.90
 1150.23        2964.50           2349      163774.00    731905.30
 1150.26        2964.75           2353      177764.00    796164.80
 1150.29        2965.00           2356      189850.00    851908.70
 1150.32        2965.25           2360      205011.00    922140.10
 1150.35        2965.50           2363      215439.00    970645.10
 1150.38        2965.75           2367      230943.00   1043063.00
 1150.41        2966.00           2370      240362.00   1087236.00
 1150.44        2966.25           2374      252423.00   1143998.00
 1150.47        2966.50           2378      263775.00   1197628.00
 1150.50        2966.75           2381      266888.00   1212370.00
 1150.53        2967.00           2385      268209.00   1218630.00
 1150.56        2967.25           2388      267864.00   1216995.00
 1150.59        2967.50           2392      267683.00   1216137.00
 1150.62        2967.75           2395      267671.00   1216080.00
 1150.65        2968.00           2399      262244.00   1190384.00
 1150.68        2968.25           2402      254150.00   1152144.00
 1150.72        2968.50           2406      241285.00   1091572.00
 1150.75        2968.75           2409      230148.00   1039341.00
 1150.78        2969.00           2413      214852.00    967910.40
 1150.81        2969.25           2417      198377.00    891367.00
 1150.84        2969.50           2420      186330.00    835651.30
 1150.87        2969.75           2424      171173.00    765855.20
 1150.90        2970.00           2427      160655.00    717617.70
 1150.93        2970.25           2431      145180.00    646936.40
 1150.96        2970.50           2434      131271.00    583699.50
 1150.99        2970.75           2438      113837.00    504822.30
 1151.02        2971.00           2441      102510.00    453803.00
 1151.05        2971.25           2445       87065.00    384521.50
 1151.08        2971.50           2449       71793.00    316337.50
 1151.11        2971.75           2452       61055.00    268585.80
 1151.14        2972.00           2456       44665.00    195998.80
 1151.17        2972.25           2459       32812.00    143728.10
 1151.20        2972.50           2463       17272.00     75478.99
 1151.24        2972.75           2466        8232.00     35922.23
 1151.27        2973.00           2470        2633.00     11475.71
 1151.30        2973.25           2473        1612.00      7022.16
 1151.33        2973.50           2477        1371.00      5971.13
 1151.36        2973.75           2481        1273.00      5543.76
 1151.39        2974.00           2484        1282.00      5583.01
 1151.42        2974.25           2488        1258.00      5478.35
 1151.45        2974.50           2491        1240.00      5399.86
 1151.48        2974.75           2495        1225.00      5334.45
 1151.51        2975.00           2498        1169.00      5090.24
 1151.54        2975.25           2502        1184.00      5155.66
 1151.57        2975.50           2505        1147.00      4994.31
 1151.60        2975.75           2509        1138.00      4955.06
 1151.63        2976.00           2512        1143.00      4976.87
 1151.66        2976.25           2516        1087.00      4732.67
 1151.69        2976.50           2520        1113.00      4846.05
 1151.72        2976.75           2523        1060.00      4614.93
 1151.76        2977.00           2527        1057.00      4601.85
 1151.79        2977.25           2530        1055.00      4593.13
 1151.82        2977.50           2534        1047.00      4558.25
 1151.85        2977.75           2537        1044.00      4545.17
 1151.88        2978.00           2541        1074.00      4675.98
 1151.91        2978.25           2544        1024.00      4457.96
 1151.94        2978.50           2548        1008.00      4388.19
 1151.97        2978.75           2552        1029.00      4479.76
 1152.00        2979.00           2555         998.00      4344.58
 1152.03        2979.25           2559         997.00      4340.22
 1152.06        2979.50           2562        1003.00      4366.39
 1152.09        2979.75           2566        1005.00      4375.11
 1152.12        2980.00           2569         972.00      4231.21
 1152.15        2980.25           2573         979.00      4261.73
 1152.18        2980.50           2577        1004.00      4370.75
 1152.21        2980.75           2580         968.00      4213.77
 1152.24        2981.00           2584         978.00      4257.37
 1152.27        2981.25           2587         964.00      4196.33
 1152.31        2981.50           2591         949.00      4130.92
 1152.34        2981.75           2594         944.00      4109.12
 1152.37        2982.00           2598         983.00      4279.18
 1152.40        2982.25           2601         966.00      4205.05
 1152.43        2982.50           2605         923.00      4017.55
 1152.46        2982.75           2609         954.00      4152.72
 1152.49        2983.00           2612         886.00      3856.22
 1152.52        2983.25           2616         926.00      4030.63
 1152.55        2983.50           2619         919.00      4000.11
 1152.58        2983.75           2623         902.00      3925.98
 1152.61        2984.00           2626         936.00      4074.23
HS scan finished at 19:12:50
end
