************************************************************
  HS Scan of (1) Internal mercury lamp
************************************************************
Integration time is 0.2294 seconds per sample
dh150318Reading 51.44 .94 2.8pr1000
************************************************************
Dead Time -------------------------  3.4E-08 
Number of Cycles Used -------------  4 
Starting Wavelength (Angstroms) ---  2950 
Final Wavelength (Angstoms) -------  2984 
Wavelength Increment (Angstroms) --  .25 
Filter Wheel #1 Position ---------- (1) Ground quartz diffuser (ND=2.32)
Filter Wheel #2 Position ---------- (1) Neutral Density 0.494



************************************************************
HS scan start time = 03:25:21
Dark Count =  .5 


Time (GMT)  Wavelength (Ang)  Step Number  Raw Counts  Counts/Second

  206.24        2950.00           2144         158.00       686.59
  206.43        2950.25           2147         134.00       581.96
  206.46        2950.50           2151         146.00       634.28
  206.50        2950.75           2155         147.00       638.64
  206.53        2951.00           2158         156.00       677.87
  206.56        2951.25           2162         141.00       612.48
  206.59        2951.50           2165         152.00       660.43
  206.62        2951.75           2169         138.00       599.40
  206.65        2952.00           2172         156.00       677.87
  206.68        2952.25           2176         164.00       712.75
  206.71        2952.50           2179         164.00       712.75
  206.74        2952.75           2183         153.00       664.79
  206.77        2953.00           2186         146.00       634.28
  206.80        2953.25           2190         139.00       603.76
  206.83        2953.50           2193         151.00       656.07
  206.86        2953.75           2197         136.00       590.68
  206.89        2954.00           2200         167.00       725.82
  206.92        2954.25           2204         151.00       656.07
  206.95        2954.50           2208         156.00       677.87
  206.98        2954.75           2211         146.00       634.28
  207.02        2955.00           2215         158.00       686.59
  207.05        2955.25           2218         153.00       664.79
  207.08        2955.50           2222         169.00       734.54
  207.11        2955.75           2225         156.00       677.87
  207.14        2956.00           2229         168.00       730.18
  207.17        2956.25           2232         163.00       708.39
  207.20        2956.50           2236         157.00       682.23
  207.23        2956.75           2239         175.00       760.70
  207.26        2957.00           2243         169.00       734.54
  207.29        2957.25           2246         173.00       751.98
  207.32        2957.50           2250         166.00       721.46
  207.35        2957.75           2254         165.00       717.11
  207.38        2958.00           2257         185.00       804.29
  207.41        2958.25           2261         168.00       730.18
  207.44        2958.50           2264         188.00       817.37
  207.47        2958.75           2268         178.00       773.78
  207.50        2959.00           2271         174.00       756.34
  207.54        2959.25           2275         181.00       786.86
  207.57        2959.50           2278         192.00       834.81
  207.60        2959.75           2282         188.00       817.37
  207.63        2960.00           2285         197.00       856.61
  207.66        2960.25           2289         201.00       874.05
  207.69        2960.50           2293         219.00       952.52
  207.72        2960.75           2296         228.00       991.75
  207.75        2961.00           2300         291.00      1266.40
  207.78        2961.25           2303         532.00      2317.10
  207.81        2961.50           2307        1992.00      8683.91
  207.84        2961.75           2310        3752.00     16362.63
  207.87        2962.00           2314        6823.00     29770.75
  207.90        2962.25           2317        9421.00     41123.28
  207.93        2962.50           2321       12805.00     55923.58
  207.96        2962.75           2324       15226.00     66521.25
  207.99        2963.00           2328       18849.00     82394.85
  208.02        2963.25           2331       21598.00     94450.61
  208.05        2963.50           2335       24897.00    108931.50
  208.09        2963.75           2339       28133.00    123149.70
  208.12        2964.00           2342       30925.00    135428.20
  208.15        2964.25           2346       34677.00    151944.70
  208.18        2964.50           2349       37225.00    163171.70
  208.21        2964.75           2353       40803.00    178951.70
  208.24        2965.00           2356       43190.00    189488.50
  208.27        2965.25           2360       46175.00    202675.60
  208.30        2965.50           2363       48592.00    213362.20
  208.33        2965.75           2367       52196.00    229311.40
  208.36        2966.00           2370       54588.00    239906.60
  208.39        2966.25           2374       57312.00    251981.80
  208.42        2966.50           2378       58923.00    259127.80
  208.45        2966.75           2381       59166.00    260206.00
  208.48        2967.00           2385       59279.00    260707.50
  208.51        2967.25           2388       59276.00    260694.10
  208.54        2967.50           2392       59340.00    260978.10
  208.57        2967.75           2395       58842.00    258768.50
  208.61        2968.00           2399       57595.00    253236.90
  208.64        2968.25           2402       55077.00    242073.60
  208.67        2968.50           2406       52034.00    228594.10
  208.70        2968.75           2409       49863.00    218984.90
  208.73        2969.00           2413       46323.00    203329.80
  208.76        2969.25           2417       43306.00    190000.70
  208.79        2969.50           2420       40680.00    178408.90
  208.82        2969.75           2424       36758.00    161113.40
  208.85        2970.00           2427       34070.00    149271.40
  208.88        2970.25           2431       30575.00    133888.40
  208.91        2970.50           2434       27677.00    121145.30
  208.94        2970.75           2438       24106.00    105458.10
  208.97        2971.00           2441       21628.00     94582.22
  209.00        2971.25           2445       18177.00     79449.29
  209.03        2971.50           2449       14474.00     63228.64
  209.06        2971.75           2452       11594.00     50625.43
  209.09        2972.00           2456        8281.00     36140.72
  209.13        2972.25           2459        5942.00     25923.01
  209.16        2972.50           2463        3253.00     14185.13
  209.19        2972.75           2466        1678.00      7314.37
  209.22        2973.00           2470         509.00      2216.82
  209.25        2973.25           2473         284.00      1235.88
  209.28        2973.50           2477         251.00      1092.02
  209.31        2973.75           2481         217.00       943.80
  209.34        2974.00           2484         215.00       935.08
  209.37        2974.25           2488         209.00       908.92
  209.40        2974.50           2491         202.00       878.40
  209.43        2974.75           2495         201.00       874.05
  209.46        2975.00           2498         192.00       834.81
  209.49        2975.25           2502         189.00       821.73
  209.52        2975.50           2505         178.00       773.78
  209.55        2975.75           2509         190.00       826.09
  209.58        2976.00           2512         178.00       773.78
  209.61        2976.25           2516         177.00       769.42
  209.65        2976.50           2520         178.00       773.78
  209.68        2976.75           2523         171.00       743.26
  209.71        2977.00           2527         162.00       704.03
  209.74        2977.25           2530         156.00       677.87
  209.77        2977.50           2534         163.00       708.39
  209.80        2977.75           2537         168.00       730.18
  209.83        2978.00           2541         159.00       690.95
  209.86        2978.25           2544         156.00       677.87
  209.89        2978.50           2548         167.00       725.82
  209.92        2978.75           2552         174.00       756.34
  209.96        2979.00           2555         155.00       673.51
  209.99        2979.25           2559         158.00       686.59
  210.02        2979.50           2562         148.00       643.00
  210.05        2979.75           2566         154.00       669.15
  210.08        2980.00           2569         146.00       634.28
  210.11        2980.25           2573         157.00       682.23
  210.14        2980.50           2577         161.00       699.67
  210.17        2980.75           2580         145.00       629.92
  210.20        2981.00           2584         154.00       669.15
  210.23        2981.25           2587         149.00       647.36
  210.26        2981.50           2591         138.00       599.40
  210.29        2981.75           2594         135.00       586.32
  210.32        2982.00           2598         146.00       634.28
  210.35        2982.25           2601         148.00       643.00
  210.38        2982.50           2605         174.00       756.34
  210.41        2982.75           2609         144.00       625.56
  210.45        2983.00           2612         144.00       625.56
  210.48        2983.25           2616         153.00       664.79
  210.51        2983.50           2619         161.00       699.67
  210.54        2983.75           2623         125.00       542.73
  210.57        2984.00           2626         128.00       555.81
HS scan finished at 03:30:47
end
************************************************************
  HS Scan of (1) Internal mercury lamp
************************************************************
Integration time is 0.2294 seconds per sample
dh150318Reading 51.44 .94 3.11pr1000
************************************************************
Dead Time -------------------------  3.4E-08 
Number of Cycles Used -------------  4 
Starting Wavelength (Angstroms) ---  2950 
Final Wavelength (Angstoms) -------  2984 
Wavelength Increment (Angstroms) --  .25 
Filter Wheel #1 Position ---------- (1) Ground quartz diffuser (ND=2.32)
Filter Wheel #2 Position ---------- (1) Neutral Density 0.494



************************************************************
HS scan start time = 19:07:21
Dark Count =  1.2 


Time (GMT)  Wavelength (Ang)  Step Number  Raw Counts  Counts/Second

 1148.26        2950.00           2144          90.00       387.10
 1148.45        2950.25           2147          82.00       352.23
 1148.48        2950.50           2151          90.00       387.10
 1148.51        2950.75           2155          84.00       360.95
 1148.54        2951.00           2158          89.00       382.74
 1148.57        2951.25           2162          88.00       378.38
 1148.60        2951.50           2165          94.00       404.54
 1148.63        2951.75           2169         110.00       474.29
 1148.66        2952.00           2172          84.00       360.95
 1148.69        2952.25           2176          97.00       417.62
 1148.72        2952.50           2179          95.00       408.90
 1148.75        2952.75           2183          85.00       365.31
 1148.79        2953.00           2186          96.00       413.26
 1148.82        2953.25           2190         108.00       465.57
 1148.85        2953.50           2193          92.00       395.82
 1148.88        2953.75           2197          90.00       387.10
 1148.91        2954.00           2200          89.00       382.74
 1148.94        2954.25           2204          90.00       387.10
 1148.97        2954.50           2208          92.00       395.82
 1149.00        2954.75           2211         101.00       435.05
 1149.03        2955.00           2215          98.00       421.98
 1149.06        2955.25           2218         135.00       583.27
 1149.09        2955.50           2222          92.00       395.82
 1149.12        2955.75           2225         110.00       474.29
 1149.15        2956.00           2229         122.00       526.60
 1149.18        2956.25           2232          93.00       400.18
 1149.21        2956.50           2236         118.00       509.16
 1149.24        2956.75           2239          97.00       417.62
 1149.28        2957.00           2243         101.00       435.05
 1149.31        2957.25           2246         104.00       448.13
 1149.34        2957.50           2250         145.00       626.87
 1149.37        2957.75           2254         124.00       535.32
 1149.40        2958.00           2257         109.00       469.93
 1149.43        2958.25           2261         103.00       443.77
 1149.46        2958.50           2264         131.00       565.83
 1149.49        2958.75           2268         124.00       535.32
 1149.52        2959.00           2271         108.00       465.57
 1149.55        2959.25           2275         131.00       565.83
 1149.58        2959.50           2278         111.00       478.65
 1149.61        2959.75           2282         141.00       609.43
 1149.64        2960.00           2285         157.00       679.18
 1149.67        2960.25           2289         127.00       548.40
 1149.70        2960.50           2293         163.00       705.34
 1149.73        2960.75           2296         147.00       635.58
 1149.76        2961.00           2300         173.00       748.93
 1149.80        2961.25           2303         393.00      1708.03
 1149.83        2961.50           2307        1588.00      6918.80
 1149.86        2961.75           2310        2877.00     12541.53
 1149.89        2962.00           2314        4676.00     20392.51
 1149.92        2962.25           2317        6145.00     26806.46
 1149.95        2962.50           2321        8330.00     36351.79
 1149.99        2962.75           2324       10062.00     43922.57
 1150.02        2963.00           2328       12042.00     52582.16
 1150.05        2963.25           2331       13611.00     59447.85
 1150.08        2963.50           2335       15591.00     68116.60
 1150.11        2963.75           2339       17894.00     78205.94
 1150.14        2964.00           2342       19644.00     85877.24
 1150.17        2964.25           2346       21727.00     95013.52
 1150.20        2964.50           2349       23254.00    101714.70
 1150.23        2964.75           2353       25510.00    111620.70
 1150.26        2965.00           2356       27291.00    119445.80
 1150.29        2965.25           2360       29387.00    128660.10
 1150.32        2965.50           2363       31020.00    135843.10
 1150.35        2965.75           2367       32974.00    144442.60
 1150.38        2966.00           2370       34508.00    151197.30
 1150.41        2966.25           2374       36140.00    158386.90
 1150.44        2966.50           2378       37235.00    163212.70
 1150.47        2966.75           2381       37498.00    164372.00
 1150.51        2967.00           2385       37528.00    164504.30
 1150.54        2967.25           2388       37599.00    164817.30
 1150.57        2967.50           2392       37531.00    164517.50
 1150.60        2967.75           2395       37238.00    163225.90
 1150.63        2968.00           2399       35851.00    157113.40
 1150.66        2968.25           2402       34245.00    150039.00
 1150.70        2968.50           2406       32238.00    141202.90
 1150.73        2968.75           2409       30529.00    133683.00
 1150.76        2969.00           2413       28545.00    124957.80
 1150.79        2969.25           2417       26394.00    115504.20
 1150.82        2969.50           2420       24653.00    107856.90
 1150.85        2969.75           2424       22633.00     98989.11
 1150.89        2970.00           2427       21327.00     93258.62
 1150.92        2970.25           2431       18914.00     82676.72
 1150.95        2970.50           2434       17091.00     74687.25
 1150.98        2970.75           2438       14670.00     64083.68
 1151.02        2971.00           2441       12834.00     56047.42
 1151.05        2971.25           2445       10701.00     46716.69
 1151.08        2971.50           2449        8628.00     37654.10
 1151.11        2971.75           2452        7108.00     31012.63
 1151.14        2972.00           2456        5008.00     21841.85
 1151.18        2972.25           2459        3423.00     14923.88
 1151.21        2972.50           2463        1622.00      7067.09
 1151.24        2972.75           2466         693.00      3016.00
 1151.27        2973.00           2470         205.00       888.43
 1151.30        2973.25           2473         155.00       670.46
 1151.33        2973.50           2477         168.00       727.13
 1151.36        2973.75           2481         151.00       653.02
 1151.39        2974.00           2484         131.00       565.83
 1151.42        2974.25           2488         141.00       609.43
 1151.45        2974.50           2491         185.00       801.24
 1151.48        2974.75           2495         117.00       504.80
 1151.51        2975.00           2498         144.00       622.51
 1151.54        2975.25           2502         157.00       679.18
 1151.57        2975.50           2505         122.00       526.60
 1151.60        2975.75           2509         123.00       530.96
 1151.63        2976.00           2512         110.00       474.29
 1151.66        2976.25           2516         139.00       600.71
 1151.70        2976.50           2520         105.00       452.49
 1151.73        2976.75           2523         112.00       483.01
 1151.76        2977.00           2527         105.00       452.49
 1151.79        2977.25           2530         106.00       456.85
 1151.82        2977.50           2534         115.00       496.09
 1151.85        2977.75           2537         102.00       439.41
 1151.88        2978.00           2541          98.00       421.98
 1151.91        2978.25           2544          93.00       400.18
 1151.94        2978.50           2548         115.00       496.09
 1151.97        2978.75           2552          96.00       413.26
 1152.00        2979.00           2555          92.00       395.82
 1152.03        2979.25           2559          89.00       382.74
 1152.06        2979.50           2562          97.00       417.62
 1152.09        2979.75           2566          94.00       404.54
 1152.12        2980.00           2569         106.00       456.85
 1152.15        2980.25           2573          88.00       378.38
 1152.18        2980.50           2577         100.00       430.70
 1152.22        2980.75           2580          90.00       387.10
 1152.25        2981.00           2584          94.00       404.54
 1152.28        2981.25           2587          89.00       382.74
 1152.31        2981.50           2591          97.00       417.62
 1152.34        2981.75           2594         107.00       461.21
 1152.37        2982.00           2598          91.00       391.46
 1152.40        2982.25           2601          87.00       374.02
 1152.43        2982.50           2605          88.00       378.38
 1152.46        2982.75           2609          87.00       374.02
 1152.49        2983.00           2612          87.00       374.02
 1152.52        2983.25           2616          85.00       365.31
 1152.55        2983.50           2619          89.00       382.74
 1152.58        2983.75           2623          82.00       352.23
 1152.61        2984.00           2626          82.00       352.23
HS scan finished at 19:12:50
end
