************************************************************
  HS Scan of (1) Internal mercury lamp
************************************************************
Integration time is 0.2294 seconds per sample
dh140318Reading 51.44 .94 2.66pr1000
************************************************************
Dead Time -------------------------  3.4E-08 
Number of Cycles Used -------------  4 
Starting Wavelength (Angstroms) ---  2950 
Final Wavelength (Angstoms) -------  2984 
Wavelength Increment (Angstroms) --  .25 
Filter Wheel #1 Position ---------- (1) Ground quartz diffuser (ND=2.32)
Filter Wheel #2 Position ---------- (1) Neutral Density 0.494



************************************************************
HS scan start time = 03:28:34
Dark Count =  .4 


Time (GMT)  Wavelength (Ang)  Step Number  Raw Counts  Counts/Second

  209.47        2950.00           2144         149.00       647.79
  209.67        2950.25           2147         153.00       665.23
  209.70        2950.50           2151         145.00       630.35
  209.73        2950.75           2155         155.00       673.95
  209.76        2951.00           2158         158.00       687.03
  209.79        2951.25           2162         160.00       695.74
  209.82        2951.50           2165         159.00       691.39
  209.85        2951.75           2169         155.00       673.95
  209.88        2952.00           2172         150.00       652.15
  209.91        2952.25           2176         169.00       734.98
  209.94        2952.50           2179         148.00       643.43
  209.97        2952.75           2183         149.00       647.79
  210.00        2953.00           2186         150.00       652.15
  210.03        2953.25           2190         155.00       673.95
  210.07        2953.50           2193         165.00       717.54
  210.10        2953.75           2197         148.00       643.43
  210.13        2954.00           2200         158.00       687.03
  210.16        2954.25           2204         153.00       665.23
  210.19        2954.50           2208         153.00       665.23
  210.22        2954.75           2211         156.00       678.31
  210.25        2955.00           2215         157.00       682.67
  210.28        2955.25           2218         154.00       669.59
  210.31        2955.50           2222         172.00       748.06
  210.34        2955.75           2225         172.00       748.06
  210.37        2956.00           2229         165.00       717.54
  210.40        2956.25           2232         167.00       726.26
  210.43        2956.50           2236         186.00       809.09
  210.46        2956.75           2239         166.00       721.90
  210.49        2957.00           2243         161.00       700.10
  210.52        2957.25           2246         175.00       761.14
  210.55        2957.50           2250         190.00       826.53
  210.59        2957.75           2254         178.00       774.21
  210.62        2958.00           2257         186.00       809.09
  210.65        2958.25           2261         182.00       791.65
  210.68        2958.50           2264         196.00       852.68
  210.71        2958.75           2268         190.00       826.53
  210.74        2959.00           2271         198.00       861.40
  210.77        2959.25           2275         194.00       843.96
  210.80        2959.50           2278         198.00       861.40
  210.83        2959.75           2282         204.00       887.56
  210.86        2960.00           2285         254.00      1105.53
  210.89        2960.25           2289         218.00       948.59
  210.92        2960.50           2293         230.00      1000.91
  210.95        2960.75           2296         234.00      1018.34
  210.98        2961.00           2300         287.00      1249.40
  211.01        2961.25           2303         593.00      2583.49
  211.04        2961.50           2307        2171.00      9465.12
  211.07        2961.75           2310        4118.00     17960.40
  211.11        2962.00           2314        7178.00     31321.92
  211.14        2962.25           2317        9626.00     42019.89
  211.17        2962.50           2321       13471.00     58838.60
  211.20        2962.75           2324       16317.00     71299.93
  211.23        2963.00           2328       19737.00     86288.53
  211.26        2963.25           2331       22375.00     97860.38
  211.29        2963.50           2335       25864.00    113179.20
  211.32        2963.75           2339       29503.00    129173.80
  211.35        2964.00           2342       32657.00    143050.60
  211.38        2964.25           2346       36407.00    159566.90
  211.41        2964.50           2349       39160.00    171703.90
  211.44        2964.75           2353       42391.00    185961.10
  211.47        2965.00           2356       44989.00    197435.10
  211.50        2965.25           2360       48423.00    212615.10
  211.53        2965.50           2363       50539.00    221976.80
  211.56        2965.75           2367       54153.00    237979.70
  211.59        2966.00           2370       56498.00    248372.80
  211.63        2966.25           2374       59638.00    262301.00
  211.66        2966.50           2378       61132.00    268932.60
  211.69        2966.75           2381       61582.00    270930.70
  211.72        2967.00           2385       61888.00    272289.50
  211.75        2967.25           2388       61761.00    271725.50
  211.78        2967.50           2392       61523.00    270668.60
  211.81        2967.75           2395       61411.00    270171.40
  211.84        2968.00           2399       59449.00    261462.30
  211.87        2968.25           2402       57096.00    251024.40
  211.90        2968.50           2406       54327.00    238750.60
  211.93        2968.75           2409       51658.00    226929.90
  211.96        2969.00           2413       48191.00    211589.10
  211.99        2969.25           2417       44568.00    195575.20
  212.02        2969.50           2420       41948.00    184005.50
  212.05        2969.75           2424       38413.00    168409.70
  212.08        2970.00           2427       35789.00    156843.80
  212.11        2970.25           2431       31793.00    139247.90
  212.15        2970.50           2434       29271.00    128153.50
  212.18        2970.75           2438       25575.00    111909.70
  212.21        2971.00           2441       22861.00     99993.26
  212.24        2971.25           2445       18987.00     83000.25
  212.27        2971.50           2449       15361.00     67112.86
  212.30        2971.75           2452       12747.00     55670.23
  212.33        2972.00           2456        9028.00     39405.86
  212.36        2972.25           2459        6600.00     28797.14
  212.39        2972.50           2463        3523.00     15363.74
  212.42        2972.75           2466        1652.00      7201.41
  212.45        2973.00           2470         493.00      2147.50
  212.48        2973.25           2473         284.00      1236.32
  212.51        2973.50           2477         246.00      1070.66
  212.54        2973.75           2481         247.00      1075.02
  212.57        2974.00           2484         229.00       996.55
  212.60        2974.25           2488         224.00       974.75
  212.63        2974.50           2491         240.00      1044.50
  212.66        2974.75           2495         236.00      1027.06
  212.70        2975.00           2498         195.00       848.32
  212.73        2975.25           2502         201.00       874.48
  212.76        2975.50           2505         198.00       861.40
  212.79        2975.75           2509         188.00       817.81
  212.82        2976.00           2512         185.00       804.73
  212.85        2976.25           2516         178.00       774.21
  212.88        2976.50           2520         196.00       852.68
  212.91        2976.75           2523         170.00       739.34
  212.94        2977.00           2527         181.00       787.29
  212.97        2977.25           2530         191.00       830.89
  213.00        2977.50           2534         186.00       809.09
  213.03        2977.75           2537         179.00       778.57
  213.06        2978.00           2541         173.00       752.42
  213.09        2978.25           2544         167.00       726.26
  213.12        2978.50           2548         178.00       774.21
  213.15        2978.75           2552         164.00       713.18
  213.18        2979.00           2555         162.00       704.46
  213.22        2979.25           2559         162.00       704.46
  213.25        2979.50           2562         170.00       739.34
  213.28        2979.75           2566         161.00       700.10
  213.31        2980.00           2569         155.00       673.95
  213.34        2980.25           2573         164.00       713.18
  213.37        2980.50           2577         158.00       687.03
  213.40        2980.75           2580         154.00       669.59
  213.43        2981.00           2584         149.00       647.79
  213.46        2981.25           2587         156.00       678.31
  213.49        2981.50           2591         149.00       647.79
  213.52        2981.75           2594         156.00       678.31
  213.55        2982.00           2598         156.00       678.31
  213.58        2982.25           2601         154.00       669.59
  213.61        2982.50           2605         145.00       630.35
  213.64        2982.75           2609         153.00       665.23
  213.67        2983.00           2612         145.00       630.35
  213.70        2983.25           2616         162.00       704.46
  213.74        2983.50           2619         151.00       656.51
  213.77        2983.75           2623         164.00       713.18
  213.80        2984.00           2626         150.00       652.15
HS scan finished at 03:34:01
end
************************************************************
  HS Scan of (1) Internal mercury lamp
************************************************************
Integration time is 0.2294 seconds per sample
dh140318Reading 51.44 .94 3.03pr1000
************************************************************
Dead Time -------------------------  3.4E-08 
Number of Cycles Used -------------  4 
Starting Wavelength (Angstroms) ---  2950 
Final Wavelength (Angstoms) -------  2984 
Wavelength Increment (Angstroms) --  .25 
Filter Wheel #1 Position ---------- (1) Ground quartz diffuser (ND=2.32)
Filter Wheel #2 Position ---------- (1) Neutral Density 0.494



************************************************************
HS scan start time = 19:07:22
Dark Count =  1.2 


Time (GMT)  Wavelength (Ang)  Step Number  Raw Counts  Counts/Second

 1148.26        2950.00           2144         156.00       674.82
 1148.45        2950.25           2147         144.00       622.51
 1148.48        2950.50           2151         140.00       605.07
 1148.51        2950.75           2155         146.00       631.23
 1148.55        2951.00           2158         156.00       674.82
 1148.58        2951.25           2162         141.00       609.43
 1148.61        2951.50           2165         134.00       578.91
 1148.64        2951.75           2169         137.00       591.99
 1148.67        2952.00           2172         186.00       805.60
 1148.70        2952.25           2176         147.00       635.58
 1148.73        2952.50           2179         133.00       574.55
 1148.76        2952.75           2183         169.00       731.49
 1148.79        2953.00           2186         155.00       670.46
 1148.82        2953.25           2190         154.00       666.10
 1148.85        2953.50           2193         141.00       609.43
 1148.88        2953.75           2197         145.00       626.87
 1148.91        2954.00           2200         146.00       631.23
 1148.94        2954.25           2204         155.00       670.46
 1148.97        2954.50           2208         152.00       657.38
 1149.00        2954.75           2211         169.00       731.49
 1149.03        2955.00           2215         159.00       687.90
 1149.07        2955.25           2218         160.00       692.26
 1149.10        2955.50           2222         164.00       709.69
 1149.13        2955.75           2225         172.00       744.57
 1149.16        2956.00           2229         152.00       657.38
 1149.19        2956.25           2232         164.00       709.69
 1149.22        2956.50           2236         171.00       740.21
 1149.25        2956.75           2239         161.00       696.62
 1149.28        2957.00           2243         174.00       753.29
 1149.31        2957.25           2246         157.00       679.18
 1149.34        2957.50           2250         171.00       740.21
 1149.37        2957.75           2254         173.00       748.93
 1149.40        2958.00           2257         176.00       762.01
 1149.43        2958.25           2261         192.00       831.76
 1149.46        2958.50           2264         184.00       796.88
 1149.49        2958.75           2268         178.00       770.73
 1149.52        2959.00           2271         194.00       840.48
 1149.55        2959.25           2275         197.00       853.56
 1149.59        2959.50           2278         196.00       849.20
 1149.62        2959.75           2282         181.00       783.80
 1149.65        2960.00           2285         197.00       853.56
 1149.68        2960.25           2289         214.00       927.67
 1149.71        2960.50           2293         224.00       971.26
 1149.74        2960.75           2296         213.00       923.31
 1149.77        2961.00           2300         262.00      1136.92
 1149.80        2961.25           2303         418.00      1817.03
 1149.83        2961.50           2307        1420.00      6186.13
 1149.86        2961.75           2310        3180.00     13863.55
 1149.89        2962.00           2314        6324.00     27588.20
 1149.92        2962.25           2317        8963.00     39118.26
 1149.95        2962.50           2321       12490.00     54542.21
 1149.98        2962.75           2324       15017.00     65603.01
 1150.01        2963.00           2328       18339.00     80156.26
 1150.04        2963.25           2331       21122.00     92359.32
 1150.07        2963.50           2335       24908.00    108976.70
 1150.11        2963.75           2339       28604.00    125217.20
 1150.14        2964.00           2342       31044.00    135948.70
 1150.17        2964.25           2346       34672.00    151919.60
 1150.20        2964.50           2349       37070.00    162485.40
 1150.23        2964.75           2353       40660.00    178317.60
 1150.26        2965.00           2356       43361.00    190240.50
 1150.29        2965.25           2360       46916.00    205948.00
 1150.32        2965.50           2363       49913.00    219203.10
 1150.35        2965.75           2367       52897.00    232412.60
 1150.38        2966.00           2370       55160.00    242438.30
 1150.41        2966.25           2374       57927.00    254706.30
 1150.44        2966.50           2378       59767.00    262869.90
 1150.47        2966.75           2381       60079.00    264254.60
 1150.50        2967.00           2385       60478.00    266025.70
 1150.53        2967.25           2388       60266.00    265084.60
 1150.56        2967.50           2392       60375.00    265568.50
 1150.59        2967.75           2395       60099.00    264343.40
 1150.62        2968.00           2399       58551.00    257474.30
 1150.66        2968.25           2402       56719.00    249349.20
 1150.69        2968.50           2406       53771.00    236283.80
 1150.72        2968.75           2409       51278.00    225244.10
 1150.75        2969.00           2413       47747.00    209622.10
 1150.78        2969.25           2417       44173.00    193826.80
 1150.81        2969.50           2420       41903.00    183803.30
 1150.84        2969.75           2424       38278.00    167810.90
 1150.87        2970.00           2427       35881.00    157245.60
 1150.90        2970.25           2431       32655.00    143038.40
 1150.93        2970.50           2434       29657.00    129847.50
 1150.96        2970.75           2438       25631.00    112152.20
 1150.99        2971.00           2441       22833.00     99866.87
 1151.02        2971.25           2445       19292.00     84333.89
 1151.05        2971.50           2449       15996.00     69890.38
 1151.08        2971.75           2452       13440.00     58699.43
 1151.11        2972.00           2456       10075.00     43979.40
 1151.15        2972.25           2459        7605.00     33183.89
 1151.18        2972.50           2463        4532.00     19763.93
 1151.21        2972.75           2466        2603.00     11346.14
 1151.24        2973.00           2470         821.00      3574.10
 1151.27        2973.25           2473         346.00      1503.13
 1151.30        2973.50           2477         244.00      1058.45
 1151.33        2973.75           2481         254.00      1102.05
 1151.36        2974.00           2484         215.00       932.03
 1151.39        2974.25           2488         201.00       870.99
 1151.42        2974.50           2491         211.00       914.59
 1151.45        2974.75           2495         206.00       892.79
 1151.48        2975.00           2498         200.00       866.63
 1151.51        2975.25           2502         193.00       836.12
 1151.54        2975.50           2505         186.00       805.60
 1151.57        2975.75           2509         191.00       827.40
 1151.60        2976.00           2512         182.00       788.16
 1151.63        2976.25           2516         176.00       762.01
 1151.67        2976.50           2520         181.00       783.80
 1151.70        2976.75           2523         172.00       744.57
 1151.73        2977.00           2527         178.00       770.73
 1151.76        2977.25           2530         172.00       744.57
 1151.79        2977.50           2534         173.00       748.93
 1151.82        2977.75           2537         163.00       705.34
 1151.85        2978.00           2541         177.00       766.37
 1151.88        2978.25           2544         161.00       696.62
 1151.91        2978.50           2548         147.00       635.58
 1151.94        2978.75           2552         162.00       700.98
 1151.97        2979.00           2555         161.00       696.62
 1152.00        2979.25           2559         158.00       683.54
 1152.03        2979.50           2562         149.00       644.30
 1152.06        2979.75           2566         153.00       661.74
 1152.09        2980.00           2569         155.00       670.46
 1152.12        2980.25           2573         168.00       727.13
 1152.15        2980.50           2577         153.00       661.74
 1152.19        2980.75           2580         158.00       683.54
 1152.22        2981.00           2584         139.00       600.71
 1152.25        2981.25           2587         158.00       683.54
 1152.28        2981.50           2591         144.00       622.51
 1152.31        2981.75           2594         150.00       648.66
 1152.34        2982.00           2598         159.00       687.90
 1152.37        2982.25           2601         145.00       626.87
 1152.40        2982.50           2605         147.00       635.58
 1152.43        2982.75           2609         175.00       757.65
 1152.46        2983.00           2612         155.00       670.46
 1152.49        2983.25           2616         167.00       722.77
 1152.52        2983.50           2619         137.00       591.99
 1152.55        2983.75           2623         153.00       661.74
 1152.58        2984.00           2626         155.00       670.46
HS scan finished at 19:12:48
end
