************************************************************
  HS Scan of (1) Internal mercury lamp
************************************************************
Integration time is 0.2294 seconds per sample
dh170318Reading 51.44 .94 2.84pr1000
************************************************************
Dead Time -------------------------  3.4E-08 
Number of Cycles Used -------------  4 
Starting Wavelength (Angstroms) ---  2950 
Final Wavelength (Angstoms) -------  2984 
Wavelength Increment (Angstroms) --  .25 
Filter Wheel #1 Position ---------- (1) Ground quartz diffuser (ND=2.32)
Filter Wheel #2 Position ---------- (1) Neutral Density 0.494



************************************************************
HS scan start time = 03:18:45
Dark Count =  .6 


Time (GMT)  Wavelength (Ang)  Step Number  Raw Counts  Counts/Second

  199.65        2950.00           2144         139.00       603.33
  199.84        2950.25           2147         145.00       629.48
  199.87        2950.50           2151         157.00       681.79
  199.90        2950.75           2155         151.00       655.64
  199.93        2951.00           2158         141.00       612.04
  199.96        2951.25           2162         145.00       629.48
  199.99        2951.50           2165         151.00       655.64
  200.02        2951.75           2169         152.00       660.00
  200.05        2952.00           2172         155.00       673.08
  200.08        2952.25           2176         150.00       651.28
  200.11        2952.50           2179         166.00       721.03
  200.14        2952.75           2183         147.00       638.20
  200.18        2953.00           2186         160.00       694.87
  200.21        2953.25           2190         148.00       642.56
  200.24        2953.50           2193         162.00       703.59
  200.27        2953.75           2197         159.00       690.51
  200.30        2954.00           2200         145.00       629.48
  200.33        2954.25           2204         152.00       660.00
  200.36        2954.50           2208         164.00       712.31
  200.39        2954.75           2211         171.00       742.83
  200.42        2955.00           2215         163.00       707.95
  200.45        2955.25           2218         170.00       738.47
  200.48        2955.50           2222         160.00       694.87
  200.51        2955.75           2225         163.00       707.95
  200.54        2956.00           2229         176.00       764.62
  200.57        2956.25           2232         161.00       699.23
  200.60        2956.50           2236         172.00       747.19
  200.63        2956.75           2239         171.00       742.83
  200.66        2957.00           2243         182.00       790.78
  200.70        2957.25           2246         161.00       699.23
  200.73        2957.50           2250         173.00       751.54
  200.76        2957.75           2254         170.00       738.47
  200.79        2958.00           2257         167.00       725.39
  200.82        2958.25           2261         184.00       799.50
  200.85        2958.50           2264         180.00       782.06
  200.88        2958.75           2268         181.00       786.42
  200.91        2959.00           2271         193.00       838.73
  200.94        2959.25           2275         183.00       795.14
  200.97        2959.50           2278         194.00       843.09
  201.00        2959.75           2282         191.00       830.01
  201.03        2960.00           2285         204.00       886.69
  201.06        2960.25           2289         210.00       912.84
  201.09        2960.50           2293         231.00      1004.39
  201.12        2960.75           2296         222.00       965.16
  201.15        2961.00           2300         305.00      1327.00
  201.18        2961.25           2303         558.00      2430.02
  201.22        2961.50           2307        2086.00      9093.48
  201.25        2961.75           2310        4075.00     17771.85
  201.28        2962.00           2314        7034.00     30691.99
  201.31        2962.25           2317        9554.00     41704.26
  201.34        2962.50           2321       12972.00     56653.93
  201.37        2962.75           2324       15809.00     69073.98
  201.40        2963.00           2328       19546.00     85450.18
  201.43        2963.25           2331       22084.00     96582.56
  201.46        2963.50           2335       25566.00    111869.30
  201.49        2963.75           2339       28858.00    126336.60
  201.52        2964.00           2342       31740.00    139013.80
  201.55        2964.25           2346       35724.00    156556.50
  201.58        2964.50           2349       38251.00    167694.50
  201.61        2964.75           2353       41953.00    184026.70
  201.64        2965.00           2356       44378.00    194735.00
  201.67        2965.25           2360       47376.00    207984.30
  201.70        2965.50           2363       49752.00    218493.30
  201.74        2965.75           2367       53288.00    234147.00
  201.77        2966.00           2370       55878.00    245623.40
  201.80        2966.25           2374       58815.00    258648.20
  201.83        2966.50           2378       60444.00    265877.40
  201.86        2966.75           2381       60818.00    267537.70
  201.89        2967.00           2385       60721.00    267107.00
  201.92        2967.25           2388       60794.00    267431.10
  201.95        2967.50           2392       60771.00    267329.00
  201.98        2967.75           2395       60241.00    264976.30
  202.02        2968.00           2399       58715.00    258204.50
  202.05        2968.25           2402       56211.00    247099.50
  202.08        2968.50           2406       53386.00    234581.00
  202.11        2968.75           2409       51149.00    224675.80
  202.14        2969.00           2413       47799.00    209854.70
  202.17        2969.25           2417       44438.00    195000.00
  202.20        2969.50           2420       41549.00    182243.50
  202.23        2969.75           2424       38107.00    167059.60
  202.26        2970.00           2427       35746.00    156653.40
  202.29        2970.25           2431       32413.00    141975.80
  202.32        2970.50           2434       29837.00    130641.80
  202.35        2970.75           2438       25742.00    112642.40
  202.38        2971.00           2441       22628.00     98969.79
  202.41        2971.25           2445       18692.00     81706.18
  202.45        2971.50           2449       14558.00     63595.96
  202.48        2971.75           2452       11904.00     51981.07
  202.51        2972.00           2456        8613.00     37591.17
  202.54        2972.25           2459        6268.00     27346.25
  202.57        2972.50           2463        3384.00     14756.31
  202.60        2972.75           2466        1705.00      7431.70
  202.63        2973.00           2470         557.00      2425.66
  202.66        2973.25           2473         320.00      1392.39
  202.69        2973.50           2477         246.00      1069.79
  202.72        2973.75           2481         227.00       986.96
  202.75        2974.00           2484         216.00       939.00
  202.78        2974.25           2488         207.00       899.77
  202.81        2974.50           2491         200.00       869.25
  202.84        2974.75           2495         205.00       891.05
  202.87        2975.00           2498         198.00       860.53
  202.90        2975.25           2502         188.00       816.94
  202.93        2975.50           2505         182.00       790.78
  202.97        2975.75           2509         191.00       830.01
  203.00        2976.00           2512         193.00       838.73
  203.03        2976.25           2516         189.00       821.30
  203.06        2976.50           2520         186.00       808.22
  203.09        2976.75           2523         177.00       768.98
  203.12        2977.00           2527         178.00       773.34
  203.15        2977.25           2530         171.00       742.83
  203.18        2977.50           2534         173.00       751.54
  203.21        2977.75           2537         157.00       681.79
  203.24        2978.00           2541         160.00       694.87
  203.27        2978.25           2544         166.00       721.03
  203.30        2978.50           2548         169.00       734.11
  203.33        2978.75           2552         154.00       668.72
  203.36        2979.00           2555         157.00       681.79
  203.39        2979.25           2559         162.00       703.59
  203.42        2979.50           2562         174.00       755.90
  203.45        2979.75           2566         146.00       633.84
  203.49        2980.00           2569         157.00       681.79
  203.52        2980.25           2573         148.00       642.56
  203.55        2980.50           2577         144.00       625.12
  203.58        2980.75           2580         153.00       664.36
  203.61        2981.00           2584         155.00       673.08
  203.64        2981.25           2587         142.00       616.40
  203.67        2981.50           2591         144.00       625.12
  203.70        2981.75           2594         165.00       716.67
  203.73        2982.00           2598         150.00       651.28
  203.76        2982.25           2601         151.00       655.64
  203.79        2982.50           2605         138.00       598.97
  203.82        2982.75           2609         141.00       612.04
  203.85        2983.00           2612         141.00       612.04
  203.88        2983.25           2616         146.00       633.84
  203.91        2983.50           2619         155.00       673.08
  203.94        2983.75           2623         161.00       699.23
  203.97        2984.00           2626         142.00       616.40
HS scan finished at 03:24:12
end
************************************************************
  HS Scan of (1) Internal mercury lamp
************************************************************
Integration time is 0.2294 seconds per sample
dh170318Reading 51.44 .94 2.41pr1000
************************************************************
Dead Time -------------------------  3.4E-08 
Number of Cycles Used -------------  4 
Starting Wavelength (Angstroms) ---  2950 
Final Wavelength (Angstoms) -------  2984 
Wavelength Increment (Angstroms) --  .25 
Filter Wheel #1 Position ---------- (1) Ground quartz diffuser (ND=2.32)
Filter Wheel #2 Position ---------- (1) Neutral Density 0.494



************************************************************
HS scan start time = 19:10:21
Dark Count =  .1 


Time (GMT)  Wavelength (Ang)  Step Number  Raw Counts  Counts/Second

 1151.25        2950.00           2144         154.00       670.90
 1151.44        2950.25           2147         162.00       705.77
 1151.47        2950.50           2151         158.00       688.33
 1151.50        2950.75           2155         146.00       636.02
 1151.53        2951.00           2158         145.00       631.66
 1151.57        2951.25           2162         157.00       683.97
 1151.60        2951.50           2165         173.00       753.72
 1151.63        2951.75           2169         171.00       745.01
 1151.66        2952.00           2172         162.00       705.77
 1151.69        2952.25           2176         165.00       718.85
 1151.72        2952.50           2179         171.00       745.01
 1151.75        2952.75           2183         159.00       692.69
 1151.78        2953.00           2186         167.00       727.57
 1151.81        2953.25           2190         163.00       710.13
 1151.84        2953.50           2193         167.00       727.57
 1151.87        2953.75           2197         164.00       714.49
 1151.90        2954.00           2200         177.00       771.16
 1151.93        2954.25           2204         176.00       766.80
 1151.96        2954.50           2208         179.00       779.88
 1151.99        2954.75           2211         169.00       736.29
 1152.02        2955.00           2215         169.00       736.29
 1152.05        2955.25           2218         159.00       692.69
 1152.09        2955.50           2222         176.00       766.80
 1152.12        2955.75           2225         174.00       758.08
 1152.15        2956.00           2229         187.00       814.76
 1152.18        2956.25           2232         184.00       801.68
 1152.21        2956.50           2236         186.00       810.40
 1152.24        2956.75           2239         187.00       814.76
 1152.27        2957.00           2243         190.00       827.83
 1152.30        2957.25           2246         180.00       784.24
 1152.33        2957.50           2250         188.00       819.12
 1152.36        2957.75           2254         186.00       810.40
 1152.39        2958.00           2257         195.00       849.63
 1152.42        2958.25           2261         189.00       823.48
 1152.45        2958.50           2264         193.00       840.91
 1152.49        2958.75           2268         203.00       884.51
 1152.53        2959.00           2271         206.00       897.59
 1152.56        2959.25           2275         201.00       875.79
 1152.59        2959.50           2278         191.00       832.19
 1152.62        2959.75           2282         215.00       936.82
 1152.65        2960.00           2285         212.00       923.74
 1152.68        2960.25           2289         238.00      1037.09
 1152.71        2960.50           2293         256.00      1115.56
 1152.74        2960.75           2296         240.00      1045.81
 1152.77        2961.00           2300         299.00      1303.02
 1152.80        2961.25           2303         541.00      2358.08
 1152.83        2961.50           2307        2035.00      8873.21
 1152.87        2961.75           2310        4137.00     18044.63
 1152.90        2962.00           2314        7518.00     32808.60
 1152.93        2962.25           2317        9859.00     43039.83
 1152.96        2962.50           2321       13057.00     57028.08
 1152.99        2962.75           2324       15409.00     67324.38
 1153.02        2963.00           2328       19096.00     83479.41
 1153.05        2963.25           2331       22183.00     97019.16
 1153.08        2963.50           2335       25784.00    112829.10
 1153.11        2963.75           2339       29428.00    128845.30
 1153.14        2964.00           2342       31883.00    139645.30
 1153.17        2964.25           2346       35766.00    156743.80
 1153.20        2964.50           2349       38492.00    168759.40
 1153.23        2964.75           2353       41980.00    184148.00
 1153.26        2965.00           2356       44691.00    196119.90
 1153.29        2965.25           2360       48265.00    211917.70
 1153.32        2965.50           2363       50619.00    222332.10
 1153.35        2965.75           2367       53944.00    237055.10
 1153.39        2966.00           2370       56643.00    249017.00
 1153.42        2966.25           2374       59440.00    261423.60
 1153.45        2966.50           2378       60304.00    265258.20
 1153.48        2966.75           2381       60711.00    267064.90
 1153.51        2967.00           2385       60858.00    267717.50
 1153.54        2967.25           2388       61287.00    269622.10
 1153.57        2967.50           2392       60739.00    267189.20
 1153.60        2967.75           2395       60428.00    265808.60
 1153.63        2968.00           2399       58504.00    257270.70
 1153.66        2968.25           2402       56311.00    247545.10
 1153.69        2968.50           2406       53125.00    233427.20
 1153.72        2968.75           2409       50330.00    221053.20
 1153.75        2969.00           2413       46863.00    205718.50
 1153.78        2969.25           2417       43473.00    190739.90
 1153.81        2969.50           2420       40998.00    179813.90
 1153.84        2969.75           2424       37305.00    163526.10
 1153.87        2970.00           2427       35245.00    154448.40
 1153.91        2970.25           2431       31590.00    138355.90
 1153.94        2970.50           2434       28546.00    124967.10
 1153.97        2970.75           2438       24793.00    108476.50
 1154.00        2971.00           2441       22008.00     96251.27
 1154.03        2971.25           2445       18861.00     82449.21
 1154.06        2971.50           2449       15551.00     67946.25
 1154.09        2971.75           2452       12933.00     56485.46
 1154.12        2972.00           2456        9406.00     41059.47
 1154.15        2972.25           2459        6863.00     29947.22
 1154.18        2972.50           2463        3593.00     15670.51
 1154.21        2972.75           2466        1707.00      7442.60
 1154.24        2973.00           2470         496.00      2161.89
 1154.27        2973.25           2473         292.00      1272.50
 1154.30        2973.50           2477         257.00      1119.92
 1154.33        2973.75           2481         225.00       980.42
 1154.36        2974.00           2484         245.00      1067.61
 1154.39        2974.25           2488         232.00      1010.93
 1154.43        2974.50           2491         226.00       984.78
 1154.46        2974.75           2495         219.00       954.26
 1154.49        2975.00           2498         204.00       888.87
 1154.52        2975.25           2502         216.00       941.18
 1154.55        2975.50           2505         198.00       862.71
 1154.58        2975.75           2509         202.00       880.15
 1154.61        2976.00           2512         197.00       858.35
 1154.64        2976.25           2516         189.00       823.48
 1154.67        2976.50           2520         189.00       823.48
 1154.70        2976.75           2523         194.00       845.27
 1154.73        2977.00           2527         175.00       762.44
 1154.76        2977.25           2530         181.00       788.60
 1154.79        2977.50           2534         182.00       792.96
 1154.82        2977.75           2537         186.00       810.40
 1154.85        2978.00           2541         179.00       779.88
 1154.88        2978.25           2544         172.00       749.37
 1154.91        2978.50           2548         182.00       792.96
 1154.94        2978.75           2552         169.00       736.29
 1154.98        2979.00           2555         163.00       710.13
 1155.01        2979.25           2559         180.00       784.24
 1155.04        2979.50           2562         152.00       662.18
 1155.07        2979.75           2566         162.00       705.77
 1155.10        2980.00           2569         160.00       697.05
 1155.13        2980.25           2573         182.00       792.96
 1155.16        2980.50           2577         158.00       688.33
 1155.19        2980.75           2580         157.00       683.97
 1155.22        2981.00           2584         152.00       662.18
 1155.25        2981.25           2587         158.00       688.33
 1155.28        2981.50           2591         168.00       731.93
 1155.31        2981.75           2594         158.00       688.33
 1155.34        2982.00           2598         158.00       688.33
 1155.37        2982.25           2601         151.00       657.82
 1155.40        2982.50           2605         142.00       618.58
 1155.43        2982.75           2609         168.00       731.93
 1155.46        2983.00           2612         156.00       679.61
 1155.50        2983.25           2616         150.00       653.46
 1155.53        2983.50           2619         152.00       662.18
 1155.56        2983.75           2623         153.00       666.54
 1155.59        2984.00           2626         150.00       653.46
HS scan finished at 19:15:49
end
