************************************************************
  HS Scan of 
************************************************************
Integration time is 0.2294 seconds per sample
dh140317Reading 51.44 .94 3.01pr1000
************************************************************
Dead Time -------------------------  3.4E-08 
Number of Cycles Used -------------  4 
Starting Wavelength (Angstroms) ---  2950 
Final Wavelength (Angstoms) -------  2984 
Wavelength Increment (Angstroms) --  .25 
Filter Wheel #1 Position ---------- (1) Ground quartz diffuser (ND=2.32)
Filter Wheel #2 Position ---------- (1) Neutral Density 0.494



************************************************************
HS scan start time = 03:27:49
Dark Count =  1 


Time (GMT)  Wavelength (Ang)  Step Number  Raw Counts  Counts/Second

  208.71        2950.00           2144         922.00      4015.37
  208.90        2950.25           2147         920.00      4006.65
  208.93        2950.50           2151         907.00      3949.96
  208.97        2950.75           2155         931.00      4054.61
  209.00        2951.00           2158         915.00      3984.85
  209.03        2951.25           2162         901.00      3923.80
  209.06        2951.50           2165         949.00      4133.10
  209.09        2951.75           2169         893.00      3888.92
  209.12        2952.00           2172         953.00      4150.54
  209.15        2952.25           2176         938.00      4085.14
  209.18        2952.50           2179         946.00      4120.02
  209.21        2952.75           2183         952.00      4146.18
  209.24        2953.00           2186         966.00      4207.23
  209.27        2953.25           2190         929.00      4045.89
  209.30        2953.50           2193         944.00      4111.30
  209.33        2953.75           2197         933.00      4063.33
  209.36        2954.00           2200         930.00      4050.25
  209.39        2954.25           2204         963.00      4194.15
  209.42        2954.50           2208         976.00      4250.83
  209.45        2954.75           2211        1002.00      4364.20
  209.48        2955.00           2215        1014.00      4416.53
  209.52        2955.25           2218         979.00      4263.91
  209.55        2955.50           2222         972.00      4233.39
  209.58        2955.75           2225        1000.00      4355.48
  209.61        2956.00           2229        1021.00      4447.05
  209.64        2956.25           2232        1022.00      4451.42
  209.67        2956.50           2236        1027.00      4473.22
  209.70        2956.75           2239        1028.00      4477.58
  209.73        2957.00           2243        1058.00      4608.39
  209.76        2957.25           2246        1021.00      4447.05
  209.79        2957.50           2250        1066.00      4643.28
  209.82        2957.75           2254        1079.00      4699.97
  209.85        2958.00           2257        1088.00      4739.21
  209.88        2958.25           2261        1147.00      4996.49
  209.91        2958.50           2264        1085.00      4726.13
  209.94        2958.75           2268        1112.00      4843.87
  209.97        2959.00           2271        1135.00      4944.16
  210.01        2959.25           2275        1138.00      4957.24
  210.04        2959.50           2278        1158.00      5044.46
  210.07        2959.75           2282        1197.00      5214.53
  210.10        2960.00           2285        1214.00      5288.66
  210.13        2960.25           2289        1228.00      5349.71
  210.16        2960.50           2293        1217.00      5301.74
  210.19        2960.75           2296        1283.00      5589.55
  210.22        2961.00           2300        1357.00      5912.26
  210.25        2961.25           2303        1700.00      7408.14
  210.28        2961.50           2307        5237.00     22842.50
  210.31        2961.75           2310       12798.00     55890.77
  210.34        2962.00           2314       26159.00    114472.60
  210.37        2962.25           2317       37802.00    165713.10
  210.40        2962.50           2321       53800.00    236413.20
  210.43        2962.75           2324       66994.00    294979.40
  210.46        2963.00           2328       85534.00    377674.00
  210.49        2963.25           2331       99614.00    440789.60
  210.52        2963.50           2335      115123.00    510628.30
  210.56        2963.75           2339      131301.00    583837.90
  210.59        2964.00           2342      144337.00    643098.10
  210.62        2964.25           2346      162740.00    727169.50
  210.65        2964.50           2349      174871.00    782855.40
  210.68        2964.75           2353      190780.00    856209.40
  210.71        2965.00           2356      202306.00    909586.90
  210.74        2965.25           2360      217859.00    981927.10
  210.77        2965.50           2363      229632.00   1036928.00
  210.80        2965.75           2367      245434.00   1111081.00
  210.83        2966.00           2370      255982.00   1160793.00
  210.86        2966.25           2374      270703.00   1230459.00
  210.89        2966.50           2378      282260.00   1285389.00
  210.92        2966.75           2381      286159.00   1303968.00
  210.95        2967.00           2385      287173.00   1308804.00
  210.98        2967.25           2388      287544.00   1310573.00
  211.01        2967.50           2392      287155.00   1308718.00
  211.04        2967.75           2395      287152.00   1308704.00
  211.08        2968.00           2399      283857.00   1292996.00
  211.11        2968.25           2402      276031.00   1255756.00
  211.14        2968.50           2406      261111.00   1185027.00
  211.17        2968.75           2409      250088.00   1132994.00
  211.20        2969.00           2413      235057.00   1062342.00
  211.23        2969.25           2417      219606.00    990075.50
  211.26        2969.50           2420      206756.00    930247.90
  211.29        2969.75           2424      190793.00    856269.50
  211.32        2970.00           2427      178396.00    799076.70
  211.35        2970.25           2431      161262.00    720399.50
  211.38        2970.50           2434      149399.00    666174.70
  211.41        2970.75           2438      131309.00    583874.10
  211.44        2971.00           2441      117386.00    520846.90
  211.47        2971.25           2445       99426.00    439945.10
  211.50        2971.50           2449       81138.00    358024.00
  211.53        2971.75           2452       67326.00    296456.10
  211.57        2972.00           2456       50421.00    221451.90
  211.60        2972.25           2459       37714.00    165325.10
  211.63        2972.50           2463       22335.00     97682.22
  211.66        2972.75           2466       12281.00     53628.65
  211.69        2973.00           2470        4009.00     17482.06
  211.72        2973.25           2473        1886.00      8219.39
  211.75        2973.50           2477        1409.00      6139.03
  211.78        2973.75           2481        1329.00      5790.16
  211.81        2974.00           2484        1314.00      5724.74
  211.84        2974.25           2488        1241.00      5406.40
  211.87        2974.50           2491        1284.00      5593.92
  211.90        2974.75           2495        1219.00      5310.46
  211.93        2975.00           2498        1191.00      5188.36
  211.96        2975.25           2502        1202.00      5236.33
  211.99        2975.50           2505        1164.00      5070.62
  212.02        2975.75           2509        1116.00      4861.31
  212.05        2976.00           2512        1120.00      4878.75
  212.08        2976.25           2516        1105.00      4813.34
  212.12        2976.50           2520        1113.00      4848.23
  212.15        2976.75           2523        1125.00      4900.56
  212.18        2977.00           2527        1053.00      4586.59
  212.21        2977.25           2530        1056.00      4599.67
  212.24        2977.50           2534        1026.00      4468.86
  212.27        2977.75           2537        1072.00      4669.44
  212.30        2978.00           2541        1047.00      4560.43
  212.33        2978.25           2544        1008.00      4390.37
  212.36        2978.50           2548        1035.00      4508.10
  212.39        2978.75           2552        1007.00      4386.01
  212.42        2979.00           2555        1015.00      4420.89
  212.45        2979.25           2559         969.00      4220.31
  212.48        2979.50           2562         981.00      4272.64
  212.51        2979.75           2566         991.00      4316.24
  212.54        2980.00           2569         944.00      4111.30
  212.57        2980.25           2573         978.00      4259.55
  212.60        2980.50           2577         979.00      4263.91
  212.64        2980.75           2580         955.00      4159.26
  212.67        2981.00           2584         935.00      4072.05
  212.70        2981.25           2587         942.00      4102.58
  212.73        2981.50           2591         939.00      4089.50
  212.76        2981.75           2594         951.00      4141.82
  212.79        2982.00           2598         940.00      4093.86
  212.82        2982.25           2601         924.00      4024.09
  212.85        2982.50           2605         948.00      4128.74
  212.88        2982.75           2609         911.00      3967.41
  212.91        2983.00           2612         931.00      4054.61
  212.94        2983.25           2616         913.00      3976.13
  212.97        2983.50           2619         894.00      3893.28
  213.00        2983.75           2623         869.00      3784.27
  213.03        2984.00           2626         909.00      3958.68
HS scan finished at 03:33:15
end
************************************************************
  HS Scan of 
************************************************************
Integration time is 0.2294 seconds per sample
dh140317Reading 51.44 .94 3.33pr1000
************************************************************
Dead Time -------------------------  3.4E-08 
Number of Cycles Used -------------  4 
Starting Wavelength (Angstroms) ---  2950 
Final Wavelength (Angstoms) -------  2984 
Wavelength Increment (Angstroms) --  .25 
Filter Wheel #1 Position ---------- (1) Ground quartz diffuser (ND=2.32)
Filter Wheel #2 Position ---------- (1) Neutral Density 0.494



************************************************************
HS scan start time = 19:07:21
Dark Count =  1.8 


Time (GMT)  Wavelength (Ang)  Step Number  Raw Counts  Counts/Second

 1148.26        2950.00           2144         836.00      3636.89
 1148.45        2950.25           2147         819.00      3562.77
 1148.48        2950.50           2151         814.00      3540.97
 1148.51        2950.75           2155         820.00      3567.13
 1148.54        2951.00           2158         805.00      3501.72
 1148.57        2951.25           2162         839.00      3649.97
 1148.60        2951.50           2165         831.00      3615.09
 1148.63        2951.75           2169         867.00      3772.06
 1148.66        2952.00           2172         857.00      3728.46
 1148.69        2952.25           2176         869.00      3780.78
 1148.72        2952.50           2179         834.00      3628.17
 1148.76        2952.75           2183         854.00      3715.38
 1148.79        2953.00           2186         882.00      3837.47
 1148.82        2953.25           2190         852.00      3706.66
 1148.85        2953.50           2193         850.00      3697.94
 1148.88        2953.75           2197         886.00      3854.91
 1148.91        2954.00           2200         866.00      3767.70
 1148.94        2954.25           2204         885.00      3850.55
 1148.97        2954.50           2208         876.00      3811.31
 1149.00        2954.75           2211         909.00      3955.20
 1149.03        2955.00           2215         873.00      3798.22
 1149.06        2955.25           2218         865.00      3763.34
 1149.09        2955.50           2222         909.00      3955.20
 1149.12        2955.75           2225         913.00      3972.64
 1149.15        2956.00           2229         937.00      4077.29
 1149.18        2956.25           2232         914.00      3977.00
 1149.21        2956.50           2236         902.00      3924.67
 1149.24        2956.75           2239         939.00      4086.01
 1149.28        2957.00           2243         918.00      3994.44
 1149.31        2957.25           2246         959.00      4173.22
 1149.34        2957.50           2250         946.00      4116.53
 1149.37        2957.75           2254         951.00      4138.33
 1149.40        2958.00           2257         955.00      4155.77
 1149.43        2958.25           2261         948.00      4125.25
 1149.46        2958.50           2264         972.00      4229.90
 1149.49        2958.75           2268         961.00      4181.94
 1149.52        2959.00           2271        1016.00      4421.76
 1149.55        2959.25           2275         966.00      4203.74
 1149.58        2959.50           2278        1034.00      4500.25
 1149.61        2959.75           2282        1059.00      4609.27
 1149.64        2960.00           2285        1052.00      4578.74
 1149.67        2960.25           2289        1104.00      4805.49
 1149.70        2960.50           2293        1143.00      4975.56
 1149.73        2960.75           2296        1111.00      4836.02
 1149.76        2961.00           2300        1224.00      5328.78
 1149.80        2961.25           2303        1715.00      7470.07
 1149.83        2961.50           2307        6053.00     26402.07
 1149.86        2961.75           2310       13245.00     57843.38
 1149.89        2962.00           2314       23357.00    102164.20
 1149.92        2962.25           2317       32594.00    142767.20
 1149.95        2962.50           2321       46566.00    204398.10
 1149.98        2962.75           2324       57876.00    254477.40
 1150.01        2963.00           2328       72435.00    319196.10
 1150.04        2963.25           2331       83470.00    368441.10
 1150.07        2963.50           2335       96665.00    427544.10
 1150.10        2963.75           2339      110205.00    488442.20
 1150.13        2964.00           2342      121524.00    539547.00
 1150.16        2964.25           2346      136927.00    609379.90
 1150.19        2964.50           2349      148348.00    661376.80
 1150.22        2964.75           2353      161670.00    722264.30
 1150.25        2965.00           2356      172000.00    769653.50
 1150.28        2965.25           2360      184665.00    827966.50
 1150.32        2965.50           2363      193595.00    869223.90
 1150.35        2965.75           2367      206997.00    931363.90
 1150.38        2966.00           2370      215755.00    972116.10
 1150.41        2966.25           2374      228493.00   1031593.00
 1150.44        2966.50           2378      237555.00   1074056.00
 1150.47        2966.75           2381      239281.00   1082158.00
 1150.50        2967.00           2385      239937.00   1085239.00
 1150.53        2967.25           2388      240150.00   1086239.00
 1150.56        2967.50           2392      239671.00   1083989.00
 1150.59        2967.75           2395      239090.00   1081261.00
 1150.62        2968.00           2399      233371.00   1054435.00
 1150.65        2968.25           2402      224934.00   1014951.00
 1150.68        2968.50           2406      213542.00    961807.80
 1150.71        2968.75           2409      203794.00    916488.50
 1150.74        2969.00           2413      190214.00    853589.60
 1150.77        2969.25           2417      178569.00    799869.60
 1150.80        2969.50           2420      169473.00    758046.50
 1150.84        2969.75           2424      154784.00    690760.30
 1150.87        2970.00           2427      143062.00    637287.80
 1150.90        2970.25           2431      128798.00    572483.50
 1150.93        2970.50           2434      118683.00    526703.10
 1150.96        2970.75           2438      105012.00    465055.90
 1150.99        2971.00           2441       95477.00    422213.00
 1151.02        2971.25           2445       81665.00    360374.70
 1151.05        2971.50           2449       68292.00    300750.20
 1151.08        2971.75           2452       57444.00    252561.40
 1151.11        2972.00           2456       42603.00    186890.90
 1151.14        2972.25           2459       32684.00    143163.40
 1151.17        2972.50           2463       19427.00     84923.14
 1151.20        2972.75           2466       10729.00     46836.51
 1151.23        2973.00           2470        3518.00     15335.81
 1151.26        2973.25           2473        1631.00      7103.72
 1151.29        2973.50           2477        1225.00      5333.14
 1151.32        2973.75           2481        1173.00      5106.38
 1151.36        2974.00           2484        1149.00      5001.72
 1151.39        2974.25           2488        1082.00      4709.56
 1151.42        2974.50           2491        1083.00      4713.92
 1151.45        2974.75           2495        1079.00      4696.48
 1151.48        2975.00           2498        1068.00      4648.51
 1151.51        2975.25           2502        1038.00      4517.70
 1151.54        2975.50           2505        1015.00      4417.40
 1151.57        2975.75           2509         994.00      4325.83
 1151.60        2976.00           2512        1002.00      4360.72
 1151.63        2976.25           2516         968.00      4212.46
 1151.66        2976.50           2520        1005.00      4373.80
 1151.69        2976.75           2523         953.00      4147.05
 1151.72        2977.00           2527         950.00      4133.97
 1151.75        2977.25           2530         945.00      4112.17
 1151.78        2977.50           2534         912.00      3968.28
 1151.81        2977.75           2537         922.00      4011.88
 1151.84        2978.00           2541         930.00      4046.76
 1151.87        2978.25           2544         894.00      3889.79
 1151.91        2978.50           2548         898.00      3907.23
 1151.94        2978.75           2552         894.00      3889.79
 1151.97        2979.00           2555         862.00      3750.26
 1152.00        2979.25           2559         876.00      3811.31
 1152.03        2979.50           2562         854.00      3715.38
 1152.06        2979.75           2566         888.00      3863.63
 1152.09        2980.00           2569         885.00      3850.55
 1152.12        2980.25           2573         841.00      3658.69
 1152.15        2980.50           2577         836.00      3636.89
 1152.18        2980.75           2580         860.00      3741.54
 1152.21        2981.00           2584         866.00      3767.70
 1152.24        2981.25           2587         820.00      3567.13
 1152.27        2981.50           2591         836.00      3636.89
 1152.30        2981.75           2594         823.00      3580.21
 1152.33        2982.00           2598         857.00      3728.46
 1152.36        2982.25           2601         818.00      3558.41
 1152.39        2982.50           2605         773.00      3362.20
 1152.43        2982.75           2609         807.00      3510.45
 1152.46        2983.00           2612         806.00      3506.09
 1152.49        2983.25           2616         812.00      3532.25
 1152.52        2983.50           2619         795.00      3458.12
 1152.55        2983.75           2623         816.00      3549.69
 1152.58        2984.00           2626         801.00      3484.28
HS scan finished at 19:12:48
end
