************************************************************
  HS Scan of 
************************************************************
Integration time is 0.2294 seconds per sample
dh130317Reading 51.44 .94 2.74pr1000
************************************************************
Dead Time -------------------------  3.4E-08 
Number of Cycles Used -------------  4 
Starting Wavelength (Angstroms) ---  2950 
Final Wavelength (Angstoms) -------  2984 
Wavelength Increment (Angstroms) --  .25 
Filter Wheel #1 Position ---------- (1) Ground quartz diffuser (ND=2.32)
Filter Wheel #2 Position ---------- (1) Neutral Density 0.494



************************************************************
HS scan start time = 03:30:55
Dark Count =  .4 


Time (GMT)  Wavelength (Ang)  Step Number  Raw Counts  Counts/Second

  211.82        2950.00           2144         994.00      4331.94
  212.01        2950.25           2147         999.00      4353.74
  212.04        2950.50           2151         961.00      4188.04
  212.07        2950.75           2155         987.00      4301.41
  212.10        2951.00           2158        1005.00      4379.90
  212.13        2951.25           2162        1011.00      4406.07
  212.16        2951.50           2165         999.00      4353.74
  212.19        2951.75           2169        1006.00      4384.26
  212.22        2952.00           2172         989.00      4310.13
  212.25        2952.25           2176        1004.00      4375.54
  212.28        2952.50           2179         975.00      4249.09
  212.31        2952.75           2183         980.00      4270.89
  212.35        2953.00           2186         985.00      4292.69
  212.38        2953.25           2190        1009.00      4397.34
  212.41        2953.50           2193        1015.00      4423.51
  212.44        2953.75           2197        1011.00      4406.07
  212.47        2954.00           2200        1031.00      4493.28
  212.50        2954.25           2204        1030.00      4488.92
  212.53        2954.50           2208        1014.00      4419.15
  212.56        2954.75           2211        1059.00      4615.37
  212.59        2955.00           2215        1066.00      4645.90
  212.62        2955.25           2218        1038.00      4523.80
  212.65        2955.50           2222        1075.00      4685.14
  212.68        2955.75           2225        1063.00      4632.81
  212.71        2956.00           2229        1074.00      4680.78
  212.74        2956.25           2232        1112.00      4846.48
  212.77        2956.50           2236        1069.00      4658.98
  212.80        2956.75           2239        1090.00      4750.55
  212.83        2957.00           2243        1118.00      4872.65
  212.87        2957.25           2246        1104.00      4811.60
  212.90        2957.50           2250        1107.00      4824.68
  212.93        2957.75           2254        1115.00      4859.57
  212.96        2958.00           2257        1151.00      5016.55
  212.99        2958.25           2261        1153.00      5025.27
  213.02        2958.50           2264        1186.00      5169.17
  213.05        2958.75           2268        1176.00      5125.57
  213.08        2959.00           2271        1168.00      5090.68
  213.11        2959.25           2275        1231.00      5365.41
  213.14        2959.50           2278        1217.00      5304.36
  213.17        2959.75           2282        1243.00      5417.74
  213.20        2960.00           2285        1253.00      5461.35
  213.23        2960.25           2289        1282.00      5587.81
  213.26        2960.50           2293        1297.00      5653.22
  213.29        2960.75           2296        1318.00      5744.80
  213.32        2961.00           2300        1460.00      6364.06
  213.35        2961.25           2303        1653.00      7205.78
  213.39        2961.50           2307        3797.00     16559.45
  213.42        2961.75           2310       10155.00     44332.69
  213.45        2962.00           2314       23044.00    100796.50
  213.48        2962.25           2317       34773.00    152368.00
  213.51        2962.50           2321       50300.00    220919.10
  213.54        2962.75           2324       61381.00    270038.10
  213.57        2963.00           2328       76608.00    337805.40
  213.60        2963.25           2331       89345.00    394733.10
  213.63        2963.50           2335      105402.00    466817.20
  213.66        2963.75           2339      121340.00    538721.10
  213.69        2964.00           2342      133483.00    593743.00
  213.72        2964.25           2346      151353.00    675095.00
  213.75        2964.50           2349      164953.00    737314.80
  213.78        2964.75           2353      182952.00    820072.00
  213.81        2965.00           2356      194546.00    873631.00
  213.84        2965.25           2360      208631.00    938964.90
  213.87        2965.50           2363      218966.00    987092.60
  213.91        2965.75           2367      235366.00   1063794.00
  213.94        2966.00           2370      247362.00   1120158.00
  213.97        2966.25           2374      261717.00   1187896.00
  214.00        2966.50           2378      272536.00   1239160.00
  214.03        2966.75           2381      275731.00   1254334.00
  214.06        2967.00           2385      277345.00   1262005.00
  214.09        2967.25           2388      277321.00   1261891.00
  214.12        2967.50           2392      277350.00   1262029.00
  214.15        2967.75           2395      276363.00   1257337.00
  214.18        2968.00           2399      271497.00   1234229.00
  214.21        2968.25           2402      263314.00   1195452.00
  214.24        2968.50           2406      249237.00   1128987.00
  214.27        2968.75           2409      238454.00   1078282.00
  214.30        2969.00           2413      224546.00   1013144.00
  214.33        2969.25           2417      210796.00    949033.60
  214.36        2969.50           2420      198553.00    892187.60
  214.39        2969.75           2424      181897.00    815208.20
  214.42        2970.00           2427      168540.00    753769.80
  214.46        2970.25           2431      150674.00    671995.60
  214.49        2970.50           2434      138657.00    617250.50
  214.52        2970.75           2438      122673.00    544751.00
  214.55        2971.00           2441      109799.00    486618.70
  214.58        2971.25           2445       92544.00    409065.90
  214.61        2971.50           2449       76282.00    336351.20
  214.64        2971.75           2452       64621.00    284431.40
  214.67        2972.00           2456       48926.00    214840.00
  214.70        2972.25           2459       36679.00    160765.60
  214.73        2972.50           2463       22252.00     97320.62
  214.76        2972.75           2466       12434.00     54300.69
  214.79        2973.00           2470        3782.00     16493.99
  214.82        2973.25           2473        1849.00      8060.62
  214.85        2973.50           2477        1412.00      6154.73
  214.88        2973.75           2481        1382.00      6023.90
  214.91        2974.00           2484        1363.00      5941.04
  214.95        2974.25           2488        1335.00      5818.94
  214.98        2974.50           2491        1288.00      5613.97
  215.01        2974.75           2495        1312.00      5718.64
  215.04        2975.00           2498        1244.00      5422.10
  215.07        2975.25           2502        1268.00      5526.76
  215.10        2975.50           2505        1191.00      5190.98
  215.13        2975.75           2509        1209.00      5269.47
  215.16        2976.00           2512        1189.00      5182.26
  215.19        2976.25           2516        1146.00      4994.75
  215.22        2976.50           2520        1178.00      5134.29
  215.25        2976.75           2523        1139.00      4964.22
  215.28        2977.00           2527        1131.00      4929.34
  215.31        2977.25           2530        1132.00      4933.70
  215.34        2977.50           2534        1079.00      4702.58
  215.37        2977.75           2537        1108.00      4829.04
  215.40        2978.00           2541        1076.00      4689.50
  215.43        2978.25           2544        1093.00      4763.63
  215.46        2978.50           2548        1075.00      4685.14
  215.50        2978.75           2552        1078.00      4698.22
  215.53        2979.00           2555        1073.00      4676.42
  215.56        2979.25           2559        1078.00      4698.22
  215.59        2979.50           2562        1046.00      4558.68
  215.62        2979.75           2566        1043.00      4545.60
  215.65        2980.00           2569        1031.00      4493.28
  215.68        2980.25           2573        1010.00      4401.71
  215.71        2980.50           2577        1011.00      4406.07
  215.74        2980.75           2580        1010.00      4401.71
  215.77        2981.00           2584        1034.00      4506.36
  215.80        2981.25           2587        1009.00      4397.34
  215.83        2981.50           2591         962.00      4192.40
  215.86        2981.75           2594         984.00      4288.33
  215.89        2982.00           2598         983.00      4283.97
  215.92        2982.25           2601         986.00      4297.05
  215.95        2982.50           2605         975.00      4249.09
  215.98        2982.75           2609         976.00      4253.45
  216.02        2983.00           2612         944.00      4113.91
  216.05        2983.25           2616         996.00      4340.66
  216.08        2983.50           2619         978.00      4262.17
  216.11        2983.75           2623         964.00      4201.12
  216.14        2984.00           2626         968.00      4218.57
HS scan finished at 03:36:22
end
************************************************************
  HS Scan of 
************************************************************
Integration time is 0.2294 seconds per sample
dh130317Reading 51.44 .94 3.39pr1000
************************************************************
Dead Time -------------------------  3.4E-08 
Number of Cycles Used -------------  4 
Starting Wavelength (Angstroms) ---  2950 
Final Wavelength (Angstoms) -------  2984 
Wavelength Increment (Angstroms) --  .25 
Filter Wheel #1 Position ---------- (1) Ground quartz diffuser (ND=2.32)
Filter Wheel #2 Position ---------- (1) Neutral Density 0.494



************************************************************
HS scan start time = 19:07:24
Dark Count =  2.5 


Time (GMT)  Wavelength (Ang)  Step Number  Raw Counts  Counts/Second

 1148.29        2950.00           2144         857.00      3725.41
 1148.49        2950.25           2147         848.00      3686.16
 1148.52        2950.50           2151         878.00      3816.97
 1148.55        2950.75           2155         854.00      3712.33
 1148.58        2951.00           2158         858.00      3729.77
 1148.61        2951.25           2162         866.00      3764.65
 1148.64        2951.50           2165         867.00      3769.01
 1148.67        2951.75           2169         890.00      3869.30
 1148.70        2952.00           2172         886.00      3851.86
 1148.73        2952.25           2176         885.00      3847.50
 1148.76        2952.50           2179         908.00      3947.78
 1148.79        2952.75           2183         900.00      3912.90
 1148.82        2953.00           2186         890.00      3869.30
 1148.85        2953.25           2190         920.00      4000.11
 1148.89        2953.50           2193         914.00      3973.95
 1148.92        2953.75           2197         907.00      3943.42
 1148.95        2954.00           2200         903.00      3925.98
 1148.98        2954.25           2204         907.00      3943.42
 1149.01        2954.50           2208         908.00      3947.78
 1149.04        2954.75           2211         956.00      4157.08
 1149.07        2955.00           2215         921.00      4004.47
 1149.10        2955.25           2218         936.00      4069.87
 1149.13        2955.50           2222         953.00      4144.00
 1149.16        2955.75           2225         967.00      4205.05
 1149.19        2956.00           2229         947.00      4117.84
 1149.22        2956.25           2232         961.00      4178.89
 1149.25        2956.50           2236         979.00      4257.37
 1149.28        2956.75           2239         993.00      4318.42
 1149.31        2957.00           2243         989.00      4300.98
 1149.34        2957.25           2246        1000.00      4348.94
 1149.37        2957.50           2250        1008.00      4383.83
 1149.41        2957.75           2254        1006.00      4375.11
 1149.44        2958.00           2257         968.00      4209.41
 1149.47        2958.25           2261        1040.00      4523.36
 1149.50        2958.50           2264        1051.00      4571.33
 1149.53        2958.75           2268        1094.00      4758.83
 1149.56        2959.00           2271        1069.00      4649.82
 1149.59        2959.25           2275        1048.00      4558.25
 1149.62        2959.50           2278        1098.00      4776.28
 1149.66        2959.75           2282        1140.00      4959.42
 1149.70        2960.00           2285        1102.00      4793.72
 1149.73        2960.25           2289        1144.00      4976.87
 1149.76        2960.50           2293        1182.00      5142.57
 1149.79        2960.75           2296        1250.00      5439.11
 1149.82        2961.00           2300        1318.00      5735.64
 1149.85        2961.25           2303        1746.00      7602.23
 1149.88        2961.50           2307        6009.00     26206.87
 1149.91        2961.75           2310       13254.00     57879.71
 1149.94        2962.00           2314       25596.00    111992.80
 1149.97        2962.25           2317       37571.00    164688.10
 1150.00        2962.50           2321       54377.00    238962.90
 1150.03        2962.75           2324       66161.00    291268.20
 1150.06        2963.00           2328       80501.00    355172.10
 1150.09        2963.25           2331       91567.00    404677.60
 1150.12        2963.50           2335      106818.00    473181.70
 1150.15        2963.75           2339      123615.00    549004.10
 1150.19        2964.00           2342      136969.00    609567.60
 1150.22        2964.25           2346      153955.00    686969.00
 1150.25        2964.50           2349      165167.00    738286.40
 1150.28        2964.75           2353      179842.00    805729.20
 1150.31        2965.00           2356      189868.00    851987.20
 1150.34        2965.25           2360      204385.00    919228.90
 1150.37        2965.50           2363      215599.00    971385.80
 1150.40        2965.75           2367      230479.00   1040886.00
 1150.43        2966.00           2370      241162.00   1090989.00
 1150.46        2966.25           2374      254613.00   1154324.00
 1150.49        2966.50           2378      263494.00   1196293.00
 1150.52        2966.75           2381      265914.00   1207751.00
 1150.55        2967.00           2385      266335.00   1209745.00
 1150.58        2967.25           2388      266464.00   1210356.00
 1150.61        2967.50           2392      266244.00   1209314.00
 1150.64        2967.75           2395      266252.00   1209352.00
 1150.67        2968.00           2399      261483.00   1186779.00
 1150.71        2968.25           2402      253216.00   1147733.00
 1150.74        2968.50           2406      240929.00   1089895.00
 1150.77        2968.75           2409      231553.00   1045915.00
 1150.80        2969.00           2413      216606.00    976078.80
 1150.83        2969.25           2417      201383.00    905298.20
 1150.86        2969.50           2420      189686.00    851146.20
 1150.89        2969.75           2424      174516.00    781215.90
 1150.92        2970.00           2427      163090.00    728766.30
 1150.95        2970.25           2431      147692.00    658381.90
 1150.98        2970.50           2434      136605.00    607913.50
 1151.01        2970.75           2438      120492.00    534876.80
 1151.04        2971.00           2441      108048.00    478720.60
 1151.07        2971.25           2445       91162.00    402862.90
 1151.10        2971.50           2449       75135.00    331226.70
 1151.13        2971.75           2452       63962.00    281493.40
 1151.16        2972.00           2456       50133.00    220170.80
 1151.19        2972.25           2459       38740.00    169842.40
 1151.22        2972.50           2463       23289.00    101862.60
 1151.26        2972.75           2466       12881.00     56247.40
 1151.29        2973.00           2470        3576.00     15585.85
 1151.32        2973.25           2473        1626.00      7078.86
 1151.35        2973.50           2477        1276.00      5552.49
 1151.38        2973.75           2481        1188.00      5168.74
 1151.41        2974.00           2484        1234.00      5369.33
 1151.44        2974.25           2488        1224.00      5325.72
 1151.47        2974.50           2491        1197.00      5207.98
 1151.50        2974.75           2495        1158.00      5037.92
 1151.53        2975.00           2498        1145.00      4981.23
 1151.56        2975.25           2502        1100.00      4785.00
 1151.59        2975.50           2505        1129.00      4911.46
 1151.62        2975.75           2509        1069.00      4649.82
 1151.65        2976.00           2512        1042.00      4532.08
 1151.68        2976.25           2516        1065.00      4632.38
 1151.71        2976.50           2520        1018.00      4427.43
 1151.74        2976.75           2523        1013.00      4405.63
 1151.78        2977.00           2527         999.00      4344.58
 1151.81        2977.25           2530        1024.00      4453.60
 1151.84        2977.50           2534        1014.00      4409.99
 1151.87        2977.75           2537         940.00      4087.32
 1151.90        2978.00           2541         979.00      4257.37
 1151.93        2978.25           2544         961.00      4178.89
 1151.96        2978.50           2548         954.00      4148.36
 1151.99        2978.75           2552         954.00      4148.36
 1152.02        2979.00           2555         914.00      3973.95
 1152.05        2979.25           2559         942.00      4096.04
 1152.08        2979.50           2562         932.00      4052.43
 1152.11        2979.75           2566         919.00      3995.75
 1152.14        2980.00           2569         940.00      4087.32
 1152.17        2980.25           2573         907.00      3943.42
 1152.20        2980.50           2577         893.00      3882.38
 1152.23        2980.75           2580         914.00      3973.95
 1152.26        2981.00           2584         900.00      3912.90
 1152.30        2981.25           2587         881.00      3830.05
 1152.33        2981.50           2591         873.00      3795.17
 1152.36        2981.75           2594         887.00      3856.22
 1152.39        2982.00           2598         864.00      3755.93
 1152.42        2982.25           2601         866.00      3764.65
 1152.45        2982.50           2605         869.00      3777.73
 1152.48        2982.75           2609         859.00      3734.13
 1152.51        2983.00           2612         838.00      3642.56
 1152.54        2983.25           2616         875.00      3803.89
 1152.57        2983.50           2619         846.00      3677.44
 1152.60        2983.75           2623         843.00      3664.36
 1152.63        2984.00           2626         859.00      3734.13
HS scan finished at 19:12:51
end
