************************************************************
  HS Scan of 
************************************************************
Integration time is 0.2294 seconds per sample
dh170317Reading 51.44 .94 2.72pr1000
************************************************************
Dead Time -------------------------  3.4E-08 
Number of Cycles Used -------------  4 
Starting Wavelength (Angstroms) ---  2950 
Final Wavelength (Angstoms) -------  2984 
Wavelength Increment (Angstroms) --  .25 
Filter Wheel #1 Position ---------- (1) Ground quartz diffuser (ND=2.32)
Filter Wheel #2 Position ---------- (1) Neutral Density 0.494



************************************************************
HS scan start time = 03:17:56
Dark Count =  .5 


Time (GMT)  Wavelength (Ang)  Step Number  Raw Counts  Counts/Second

  198.84        2950.00           2144        1018.00      4436.15
  199.03        2950.25           2147        1023.00      4457.96
  199.06        2950.50           2151         993.00      4327.14
  199.09        2950.75           2155        1020.00      4444.87
  199.12        2951.00           2158        1022.00      4453.60
  199.15        2951.25           2162        1037.00      4519.00
  199.18        2951.50           2165        1010.00      4401.27
  199.21        2951.75           2169        1029.00      4484.12
  199.25        2952.00           2172        1050.00      4575.69
  199.28        2952.25           2176        1027.00      4475.40
  199.31        2952.50           2179        1018.00      4436.15
  199.34        2952.75           2183        1008.00      4392.55
  199.37        2953.00           2186        1057.00      4606.21
  199.40        2953.25           2190        1053.00      4588.77
  199.43        2953.50           2193        1039.00      4527.72
  199.46        2953.75           2197        1040.00      4532.08
  199.49        2954.00           2200        1061.00      4623.66
  199.52        2954.25           2204        1068.00      4654.18
  199.55        2954.50           2208        1050.00      4575.69
  199.58        2954.75           2211        1051.00      4580.05
  199.61        2955.00           2215        1062.00      4628.02
  199.64        2955.25           2218        1093.00      4763.20
  199.67        2955.50           2222        1093.00      4763.20
  199.70        2955.75           2225        1103.00      4806.80
  199.73        2956.00           2229        1103.00      4806.80
  199.76        2956.25           2232        1097.00      4780.64
  199.80        2956.50           2236        1112.00      4846.05
  199.83        2956.75           2239        1119.00      4876.57
  199.86        2957.00           2243        1099.00      4789.36
  199.89        2957.25           2246        1138.00      4959.42
  199.92        2957.50           2250        1152.00      5020.47
  199.95        2957.75           2254        1125.00      4902.74
  199.98        2958.00           2257        1165.00      5077.16
  200.01        2958.25           2261        1187.00      5173.10
  200.04        2958.50           2264        1194.00      5203.62
  200.07        2958.75           2268        1184.00      5160.02
  200.10        2959.00           2271        1195.00      5207.98
  200.13        2959.25           2275        1205.00      5251.59
  200.16        2959.50           2278        1213.00      5286.48
  200.19        2959.75           2282        1225.00      5338.81
  200.22        2960.00           2285        1286.00      5604.82
  200.25        2960.25           2289        1260.00      5491.43
  200.29        2960.50           2293        1280.00      5578.65
  200.32        2960.75           2296        1315.00      5731.28
  200.35        2961.00           2300        1406.00      6128.13
  200.38        2961.25           2303        1617.00      7048.33
  200.41        2961.50           2307        4166.00     18169.46
  200.44        2961.75           2310       10687.00     46658.53
  200.47        2962.00           2314       23694.00    103649.30
  200.50        2962.25           2317       34244.00    150037.60
  200.53        2962.50           2321       48892.00    214689.20
  200.56        2962.75           2324       60895.00    267880.00
  200.59        2963.00           2328       77482.00    341704.10
  200.62        2963.25           2331       90442.00    399646.10
  200.65        2963.50           2335      106422.00    471407.90
  200.68        2963.75           2339      120673.00    535704.30
  200.71        2964.00           2342      131712.00    585704.90
  200.74        2964.25           2346      148293.00    661131.80
  200.77        2964.50           2349      160855.00    718538.00
  200.81        2964.75           2353      176741.00    791460.80
  200.84        2965.00           2356      187751.00    842216.80
  200.87        2965.25           2360      202323.00    909668.10
  200.90        2965.50           2363      213095.00    959732.60
  200.93        2965.75           2367      226555.00   1022535.00
  200.96        2966.00           2370      237657.00   1074541.00
  200.99        2966.25           2374      252812.00   1145837.00
  201.02        2966.50           2378      263097.00   1194424.00
  201.05        2966.75           2381      266704.00   1211503.00
  201.08        2967.00           2385      268193.00   1218559.00
  201.11        2967.25           2388      268168.00   1218440.00
  201.14        2967.50           2392      268369.00   1219393.00
  201.17        2967.75           2395      267488.00   1215218.00
  201.20        2968.00           2399      265659.00   1206553.00
  201.23        2968.25           2402      258193.00   1171237.00
  201.26        2968.50           2406      244285.00   1105679.00
  201.29        2968.75           2409      233119.00   1053261.00
  201.32        2969.00           2413      219522.00    989685.90
  201.36        2969.25           2417      207286.00    932712.80
  201.39        2969.50           2420      196670.00    883464.00
  201.42        2969.75           2424      180565.00    809069.30
  201.45        2970.00           2427      167130.00    747298.90
  201.48        2970.25           2431      150080.00    669284.30
  201.52        2970.50           2434      138174.00    615054.00
  201.55        2970.75           2438      122770.00    545189.30
  201.58        2971.00           2441      110187.00    488366.90
  201.61        2971.25           2445       93378.00    412804.40
  201.64        2971.50           2449       76249.00    336203.60
  201.67        2971.75           2452       64163.00    282395.50
  201.70        2972.00           2456       48215.00    211694.80
  201.73        2972.25           2459       36765.00    161144.20
  201.76        2972.50           2463       23122.00    101138.40
  201.79        2972.75           2466       14379.00     62812.73
  201.82        2973.00           2470        4994.00     21783.78
  201.85        2973.25           2473        2259.00      9848.55
  201.88        2973.50           2477        1466.00      6389.79
  201.91        2973.75           2481        1383.00      6027.83
  201.94        2974.00           2484        1335.00      5818.50
  201.97        2974.25           2488        1317.00      5740.00
  202.00        2974.50           2491        1269.00      5530.68
  202.04        2974.75           2495        1255.00      5469.63
  202.07        2975.00           2498        1279.00      5574.29
  202.10        2975.25           2502        1238.00      5395.50
  202.13        2975.50           2505        1208.00      5264.67
  202.16        2975.75           2509        1165.00      5077.16
  202.19        2976.00           2512        1215.00      5295.20
  202.22        2976.25           2516        1166.00      5081.52
  202.25        2976.50           2520        1177.00      5129.49
  202.28        2976.75           2523        1156.00      5037.92
  202.31        2977.00           2527        1151.00      5016.11
  202.34        2977.25           2530        1133.00      4937.62
  202.37        2977.50           2534        1115.00      4859.13
  202.40        2977.75           2537        1115.00      4859.13
  202.43        2978.00           2541        1112.00      4846.05
  202.46        2978.25           2544        1127.00      4911.46
  202.49        2978.50           2548        1115.00      4859.13
  202.52        2978.75           2552        1110.00      4837.33
  202.56        2979.00           2555        1073.00      4675.98
  202.59        2979.25           2559        1063.00      4632.38
  202.62        2979.50           2562        1055.00      4597.49
  202.65        2979.75           2566        1015.00      4423.07
  202.68        2980.00           2569        1022.00      4453.60
  202.71        2980.25           2573        1047.00      4562.61
  202.74        2980.50           2577        1017.00      4431.79
  202.77        2980.75           2580        1021.00      4449.23
  202.80        2981.00           2584        1000.00      4357.66
  202.83        2981.25           2587         997.00      4344.58
  202.86        2981.50           2591        1024.00      4462.32
  202.89        2981.75           2594        1015.00      4423.07
  202.92        2982.00           2598         987.00      4300.98
  202.95        2982.25           2601         988.00      4305.34
  202.98        2982.50           2605         994.00      4331.50
  203.01        2982.75           2609         991.00      4318.42
  203.04        2983.00           2612         953.00      4152.72
  203.07        2983.25           2616         963.00      4196.33
  203.11        2983.50           2619         974.00      4244.29
  203.14        2983.75           2623         955.00      4161.44
  203.17        2984.00           2626         947.00      4126.56
HS scan finished at 03:23:23
end
