************************************************************
  HS Scan of (1) Internal mercury lamp
************************************************************
Integration time is 0.2294 seconds per sample
dh200319Reading 51.44 .94 3.03pr1000
************************************************************
Dead Time -------------------------  3.4E-08 
Number of Cycles Used -------------  4 
Starting Wavelength (Angstroms) ---  2950 
Final Wavelength (Angstoms) -------  2984 
Wavelength Increment (Angstroms) --  .25 
Filter Wheel #1 Position ---------- (1) Ground quartz diffuser (ND=2.32)
Filter Wheel #2 Position ---------- (1) Neutral Density 0.494



************************************************************
HS scan start time = 03:09:14
Dark Count =  .8 


Time (GMT)  Wavelength (Ang)  Step Number  Raw Counts  Counts/Second

  190.14        2950.00           2144        1647.00      7177.86
  190.33        2950.25           2147        1650.00      7190.95
  190.36        2950.50           2151        1625.00      7081.91
  190.39        2950.75           2155        1641.00      7151.70
  190.42        2951.00           2158        1631.00      7108.08
  190.45        2951.25           2162        1623.00      7073.19
  190.48        2951.50           2165        1678.00      7313.06
  190.51        2951.75           2169        1645.00      7169.14
  190.54        2952.00           2172        1685.00      7343.59
  190.58        2952.25           2176        1704.00      7426.46
  190.61        2952.50           2179        1649.00      7186.59
  190.64        2952.75           2183        1647.00      7177.86
  190.67        2953.00           2186        1636.00      7129.89
  190.70        2953.25           2190        1702.00      7417.74
  190.73        2953.50           2193        1691.00      7369.76
  190.76        2953.75           2197        1749.00      7622.73
  190.79        2954.00           2200        1710.00      7452.63
  190.82        2954.25           2204        1716.00      7478.80
  190.85        2954.50           2208        1786.00      7784.10
  190.88        2954.75           2211        1746.00      7609.64
  190.91        2955.00           2215        1743.00      7596.56
  190.94        2955.25           2218        1746.00      7609.64
  190.97        2955.50           2222        1777.00      7744.85
  191.00        2955.75           2225        1784.00      7775.38
  191.03        2956.00           2229        1744.00      7600.92
  191.06        2956.25           2232        1777.00      7744.85
  191.10        2956.50           2236        1814.00      7906.22
  191.13        2956.75           2239        1800.00      7845.16
  191.16        2957.00           2243        1804.00      7862.61
  191.19        2957.25           2246        1877.00      8181.00
  191.22        2957.50           2250        1845.00      8041.43
  191.25        2957.75           2254        1855.00      8085.05
  191.28        2958.00           2257        1871.00      8154.83
  191.31        2958.25           2261        1891.00      8242.07
  191.34        2958.50           2264        1926.00      8394.72
  191.37        2958.75           2268        1992.00      8682.60
  191.40        2959.00           2271        1993.00      8686.96
  191.43        2959.25           2275        1983.00      8643.34
  191.46        2959.50           2278        2043.00      8905.05
  191.49        2959.75           2282        2059.00      8974.84
  191.52        2960.00           2285        2064.00      8996.65
  191.55        2960.25           2289        2096.00      9136.23
  191.58        2960.50           2293        2152.00      9380.50
  191.62        2960.75           2296        2190.00      9546.25
  191.65        2961.00           2300        2337.00     10187.49
  191.68        2961.25           2303        2947.00     12848.68
  191.71        2961.50           2307        8436.00     36816.76
  191.74        2961.75           2310       19575.00     85576.44
  191.77        2962.00           2314       40776.00    178831.20
  191.80        2962.25           2317       59523.00    261788.90
  191.83        2962.50           2321       84552.00    373283.10
  191.86        2962.75           2324      103239.00    457084.30
  191.89        2963.00           2328      130431.00    579892.50
  191.92        2963.25           2331      150699.00    672108.00
  191.95        2963.50           2335      181270.00    812316.60
  191.98        2963.75           2339      208971.00    940543.80
  192.01        2964.00           2342      229659.00   1037055.00
  192.04        2964.25           2346      254167.00   1152227.00
  192.07        2964.50           2349      273597.00   1244195.00
  192.10        2964.75           2353      301147.00   1375613.00
  192.14        2965.00           2356      322236.00   1477030.00
  192.17        2965.25           2360      346416.00   1594203.00
  192.20        2965.50           2363      364755.00   1683715.00
  192.23        2965.75           2367      388118.00   1798569.00
  192.26        2966.00           2370      404311.00   1878722.00
  192.29        2966.25           2374      426765.00   1990619.00
  192.32        2966.50           2378      446844.00   2091433.00
  192.35        2966.75           2381      452559.00   2120259.00
  192.38        2967.00           2385      456445.00   2139893.00
  192.41        2967.25           2388      456920.00   2142294.00
  192.44        2967.50           2392      456526.00   2140302.00
  192.47        2967.75           2395      455560.00   2135419.00
  192.50        2968.00           2399      451626.00   2115548.00
  192.53        2968.25           2402      441569.00   2064878.00
  192.56        2968.50           2406      422575.00   1969671.00
  192.59        2968.75           2409      404222.00   1878280.00
  192.62        2969.00           2413      377663.00   1747057.00
  192.65        2969.25           2417      350015.00   1611725.00
  192.69        2969.50           2420      331472.00   1521673.00
  192.72        2969.75           2424      307763.00   1407352.00
  192.75        2970.00           2427      287452.00   1310135.00
  192.78        2970.25           2431      256422.00   1162871.00
  192.81        2970.50           2434      234853.00   1061387.00
  192.84        2970.75           2438      207433.00    933394.60
  192.87        2971.00           2441      186744.00    837565.80
  192.90        2971.25           2445      159568.00    712644.90
  192.93        2971.50           2449      132955.00    591344.40
  192.96        2971.75           2452      111360.00    493653.20
  192.99        2972.00           2456       83278.00    367587.30
  193.02        2972.25           2459       61723.00    271555.00
  193.05        2972.50           2463       37199.00    163055.80
  193.08        2972.75           2466       20561.00     89900.34
  193.11        2973.00           2470        7136.00     31136.69
  193.14        2973.25           2473        3593.00     15667.46
  193.18        2973.50           2477        2452.00     10689.15
  193.21        2973.75           2481        2245.00      9786.17
  193.24        2974.00           2484        2178.00      9493.91
  193.27        2974.25           2488        2156.00      9397.95
  193.30        2974.50           2491        2089.00      9105.70
  193.33        2974.75           2495        2071.00      9027.18
  193.36        2975.00           2498        2017.00      8791.64
  193.39        2975.25           2502        2030.00      8848.35
  193.42        2975.50           2505        1995.00      8695.68
  193.45        2975.75           2509        1957.00      8529.94
  193.48        2976.00           2512        1945.00      8477.60
  193.51        2976.25           2516        1901.00      8285.68
  193.54        2976.50           2520        1877.00      8181.00
  193.57        2976.75           2523        1842.00      8028.35
  193.60        2977.00           2527        1854.00      8080.69
  193.63        2977.25           2530        1800.00      7845.16
  193.66        2977.50           2534        1825.00      7954.20
  193.70        2977.75           2537        1784.00      7775.38
  193.73        2978.00           2541        1789.00      7797.18
  193.76        2978.25           2544        1828.00      7967.28
  193.79        2978.50           2548        1737.00      7570.39
  193.82        2978.75           2552        1793.00      7814.63
  193.85        2979.00           2555        1705.00      7430.82
  193.88        2979.25           2559        1731.00      7544.22
  193.91        2979.50           2562        1693.00      7378.49
  193.94        2979.75           2566        1651.00      7195.31
  193.97        2980.00           2569        1664.00      7252.01
  194.00        2980.25           2573        1682.00      7330.51
  194.03        2980.50           2577        1674.00      7295.62
  194.06        2980.75           2580        1611.00      7020.86
  194.09        2981.00           2584        1649.00      7186.59
  194.12        2981.25           2587        1615.00      7038.30
  194.15        2981.50           2591        1595.00      6951.08
  194.18        2981.75           2594        1600.00      6972.88
  194.21        2982.00           2598        1610.00      7016.49
  194.25        2982.25           2601        1603.00      6985.97
  194.28        2982.50           2605        1574.00      6859.49
  194.31        2982.75           2609        1565.00      6820.24
  194.34        2983.00           2612        1567.00      6828.96
  194.37        2983.25           2616        1600.00      6972.88
  194.40        2983.50           2619        1550.00      6754.82
  194.43        2983.75           2623        1578.00      6876.94
  194.46        2984.00           2626        1583.00      6898.74
HS scan finished at 03:14:41
end
************************************************************
  HS Scan of (1) Internal mercury lamp
************************************************************
Integration time is 0.2294 seconds per sample
dh200319Reading 51.44 .94 3.31pr1000
************************************************************
Dead Time -------------------------  3.4E-08 
Number of Cycles Used -------------  4 
Starting Wavelength (Angstroms) ---  2950 
Final Wavelength (Angstoms) -------  2984 
Wavelength Increment (Angstroms) --  .25 
Filter Wheel #1 Position ---------- (1) Ground quartz diffuser (ND=2.32)
Filter Wheel #2 Position ---------- (1) Neutral Density 0.494



************************************************************
HS scan start time = 19:07:27
Dark Count =  1.9 


Time (GMT)  Wavelength (Ang)  Step Number  Raw Counts  Counts/Second

 1148.35        2950.00           2144        1562.00      6802.36
 1148.54        2950.25           2147        1565.00      6815.44
 1148.58        2950.50           2151        1509.00      6571.22
 1148.61        2950.75           2155        1593.00      6937.56
 1148.64        2951.00           2158        1549.00      6745.66
 1148.67        2951.25           2162        1616.00      7037.87
 1148.70        2951.50           2165        1588.00      6915.75
 1148.73        2951.75           2169        1589.00      6920.11
 1148.76        2952.00           2172        1606.00      6994.25
 1148.79        2952.25           2176        1571.00      6841.61
 1148.82        2952.50           2179        1591.00      6928.83
 1148.85        2952.75           2183        1637.00      7129.45
 1148.88        2953.00           2186        1544.00      6723.86
 1148.91        2953.25           2190        1595.00      6946.28
 1148.94        2953.50           2193        1591.00      6928.83
 1148.97        2953.75           2197        1613.00      7024.78
 1149.00        2954.00           2200        1604.00      6985.53
 1149.03        2954.25           2204        1646.00      7168.70
 1149.06        2954.50           2208        1634.00      7116.37
 1149.10        2954.75           2211        1638.00      7133.81
 1149.13        2955.00           2215        1634.00      7116.37
 1149.16        2955.25           2218        1690.00      7360.60
 1149.19        2955.50           2222        1677.00      7303.91
 1149.22        2955.75           2225        1692.00      7369.33
 1149.25        2956.00           2229        1691.00      7364.97
 1149.28        2956.25           2232        1688.00      7351.88
 1149.31        2956.50           2236        1733.00      7548.14
 1149.34        2956.75           2239        1722.00      7500.17
 1149.37        2957.00           2243        1713.00      7460.92
 1149.40        2957.25           2246        1788.00      7788.03
 1149.43        2957.50           2250        1800.00      7840.36
 1149.46        2957.75           2254        1787.00      7783.66
 1149.49        2958.00           2257        1793.00      7809.83
 1149.52        2958.25           2261        1838.00      8006.10
 1149.55        2958.50           2264        1798.00      7831.64
 1149.58        2958.75           2268        1858.00      8093.33
 1149.62        2959.00           2271        1898.00      8267.80
 1149.65        2959.25           2275        1901.00      8280.88
 1149.68        2959.50           2278        1985.00      8647.27
 1149.71        2959.75           2282        1915.00      8341.95
 1149.74        2960.00           2285        1947.00      8481.52
 1149.77        2960.25           2289        2053.00      8943.87
 1149.80        2960.50           2293        2059.00      8970.04
 1149.83        2960.75           2296        2140.00      9323.36
 1149.86        2961.00           2300        2149.00      9362.62
 1149.89        2961.25           2303        2514.00     10954.82
 1149.92        2961.50           2307        5981.00     26087.21
 1149.95        2961.75           2310       15971.00     69777.81
 1149.98        2962.00           2314       37619.00    164902.40
 1150.01        2962.25           2317       56159.00    246863.30
 1150.04        2962.50           2321       82382.00    363578.00
 1150.07        2962.75           2324      102659.00    454471.20
 1150.10        2963.00           2328      128828.00    572619.00
 1150.13        2963.25           2331      149130.00    664943.30
 1150.17        2963.50           2335      175198.00    784355.30
 1150.20        2963.75           2339      203472.00    914993.40
 1150.23        2964.00           2342      225695.00   1018507.00
 1150.26        2964.25           2346      253133.00   1147345.00
 1150.29        2964.50           2349      271435.00   1233927.00
 1150.32        2964.75           2353      295526.00   1348697.00
 1150.35        2965.00           2356      314706.00   1440731.00
 1150.38        2965.25           2360      342271.00   1574043.00
 1150.41        2965.50           2363      363635.00   1678227.00
 1150.45        2965.75           2367      388839.00   1802123.00
 1150.48        2966.00           2370      405310.00   1883676.00
 1150.52        2966.25           2374      426991.00   1991744.00
 1150.55        2966.50           2378      447470.00   2094582.00
 1150.58        2966.75           2381      454766.00   2131401.00
 1150.61        2967.00           2385      458710.00   2151344.00
 1150.64        2967.25           2388      459637.00   2156035.00
 1150.67        2967.50           2392      458933.00   2152472.00
 1150.70        2967.75           2395      459155.00   2153595.00
 1150.73        2968.00           2399      454874.00   2131946.00
 1150.76        2968.25           2402      442793.00   2071030.00
 1150.79        2968.50           2406      422824.00   1970910.00
 1150.82        2968.75           2409      406379.00   1888985.00
 1150.85        2969.00           2413      379362.00   1755410.00
 1150.88        2969.25           2417      351281.00   1617889.00
 1150.91        2969.50           2420      331076.00   1519751.00
 1150.94        2969.75           2424      305101.00   1394568.00
 1150.97        2970.00           2427      286438.00   1305294.00
 1151.00        2970.25           2431      261656.00   1187600.00
 1151.04        2970.50           2434      240889.00   1089710.00
 1151.07        2970.75           2438      211089.00    950389.80
 1151.10        2971.00           2441      188671.00    846459.60
 1151.13        2971.25           2445      161925.00    723431.80
 1151.16        2971.50           2449      135245.00    601737.40
 1151.19        2971.75           2452      114801.00    509170.80
 1151.22        2972.00           2456       88162.00    389429.70
 1151.25        2972.25           2459       69245.00    304990.70
 1151.28        2972.50           2463       41228.00    180821.00
 1151.31        2972.75           2466       22616.00     98911.41
 1151.34        2973.00           2470        7537.00     32883.74
 1151.37        2973.25           2473        3604.00     15710.66
 1151.40        2973.50           2477        2368.00     10317.92
 1151.43        2973.75           2481        2238.00      9750.84
 1151.46        2974.00           2484        2128.00      9271.01
 1151.49        2974.25           2488        2103.00      9161.97
 1151.52        2974.50           2491        1998.00      8703.97
 1151.56        2974.75           2495        2005.00      8734.50
 1151.59        2975.00           2498        1982.00      8634.18
 1151.62        2975.25           2502        1950.00      8494.61
 1151.65        2975.50           2505        1931.00      8411.73
 1151.68        2975.75           2509        1880.00      8189.29
 1151.71        2976.00           2512        1829.00      7966.85
 1151.74        2976.25           2516        1825.00      7949.40
 1151.77        2976.50           2520        1807.00      7870.89
 1151.80        2976.75           2523        1835.00      7993.02
 1151.83        2977.00           2527        1792.00      7805.47
 1151.86        2977.25           2530        1771.00      7713.88
 1151.89        2977.50           2534        1745.00      7600.48
 1151.92        2977.75           2537        1732.00      7543.78
 1151.95        2978.00           2541        1707.00      7434.75
 1151.98        2978.25           2544        1667.00      7260.29
 1152.01        2978.50           2548        1681.00      7321.35
 1152.04        2978.75           2552        1660.00      7229.76
 1152.08        2979.00           2555        1662.00      7238.49
 1152.11        2979.25           2559        1588.00      6915.75
 1152.14        2979.50           2562        1636.00      7125.09
 1152.17        2979.75           2566        1598.00      6959.36
 1152.20        2980.00           2569        1601.00      6972.45
 1152.23        2980.25           2573        1600.00      6968.09
 1152.26        2980.50           2577        1607.00      6998.61
 1152.29        2980.75           2580        1586.00      6907.03
 1152.32        2981.00           2584        1551.00      6754.39
 1152.35        2981.25           2587        1514.00      6593.02
 1152.38        2981.50           2591        1524.00      6636.63
 1152.41        2981.75           2594        1602.00      6976.81
 1152.44        2982.00           2598        1553.00      6763.11
 1152.47        2982.25           2601        1504.00      6549.41
 1152.50        2982.50           2605        1570.00      6837.25
 1152.53        2982.75           2609        1511.00      6579.94
 1152.56        2983.00           2612        1488.00      6479.63
 1152.59        2983.25           2616        1560.00      6793.64
 1152.63        2983.50           2619        1503.00      6545.05
 1152.66        2983.75           2623        1524.00      6636.63
 1152.69        2984.00           2626        1505.00      6553.77
HS scan finished at 19:12:55
end
