************************************************************
  HS Scan of 
************************************************************
Integration time is 0.2294 seconds per sample
dh150317Reading 51.44 .94 3.01pr1000
************************************************************
Dead Time -------------------------  3.4E-08 
Number of Cycles Used -------------  4 
Starting Wavelength (Angstroms) ---  2950 
Final Wavelength (Angstoms) -------  2984 
Wavelength Increment (Angstroms) --  .25 
Filter Wheel #1 Position ---------- (1) Ground quartz diffuser (ND=2.32)
Filter Wheel #2 Position ---------- (1) Neutral Density 0.494



************************************************************
HS scan start time = 03:24:33
Dark Count =  .8 


Time (GMT)  Wavelength (Ang)  Step Number  Raw Counts  Counts/Second

  205.44        2950.00           2144         944.00      4112.17
  205.63        2950.25           2147         934.00      4068.57
  205.66        2950.50           2151         926.00      4033.68
  205.70        2950.75           2155         950.00      4138.33
  205.73        2951.00           2158         950.00      4138.33
  205.76        2951.25           2162         947.00      4125.25
  205.79        2951.50           2165         965.00      4203.74
  205.82        2951.75           2169         950.00      4138.33
  205.85        2952.00           2172         991.00      4317.11
  205.88        2952.25           2176         935.00      4072.93
  205.91        2952.50           2179         956.00      4164.50
  205.94        2952.75           2183         932.00      4059.85
  205.97        2953.00           2186        1002.00      4365.08
  206.00        2953.25           2190         981.00      4273.51
  206.03        2953.50           2193         989.00      4308.39
  206.06        2953.75           2197         975.00      4247.34
  206.09        2954.00           2200        1001.00      4360.72
  206.12        2954.25           2204         991.00      4317.11
  206.15        2954.50           2208        1015.00      4421.76
  206.18        2954.75           2211        1000.00      4356.36
  206.21        2955.00           2215        1020.00      4443.57
  206.25        2955.25           2218        1013.00      4413.04
  206.28        2955.50           2222        1019.00      4439.21
  206.31        2955.75           2225        1048.00      4565.66
  206.34        2956.00           2229        1074.00      4679.04
  206.37        2956.25           2232        1049.00      4570.02
  206.40        2956.50           2236        1031.00      4491.53
  206.43        2956.75           2239        1029.00      4482.81
  206.46        2957.00           2243        1089.00      4744.44
  206.49        2957.25           2246        1071.00      4665.95
  206.52        2957.50           2250        1068.00      4652.87
  206.55        2957.75           2254        1095.00      4770.61
  206.58        2958.00           2257        1116.00      4862.18
  206.61        2958.25           2261        1114.00      4853.46
  206.64        2958.50           2264        1142.00      4975.56
  206.67        2958.75           2268        1132.00      4931.95
  206.70        2959.00           2271        1186.00      5167.43
  206.73        2959.25           2275        1127.00      4910.15
  206.77        2959.50           2278        1192.00      5193.59
  206.80        2959.75           2282        1210.00      5272.09
  206.83        2960.00           2285        1228.00      5350.58
  206.86        2960.25           2289        1211.00      5276.45
  206.89        2960.50           2293        1313.00      5721.25
  206.92        2960.75           2296        1306.00      5690.73
  206.95        2961.00           2300        1367.00      5956.74
  206.98        2961.25           2303        1674.00      7295.62
  207.01        2961.50           2307        4793.00     20905.00
  207.04        2961.75           2310       12336.00     53870.17
  207.07        2962.00           2314       26431.00    115668.50
  207.10        2962.25           2317       37641.00    165004.20
  207.13        2962.50           2321       53005.00    232892.70
  207.16        2962.75           2324       65613.00    288839.30
  207.19        2963.00           2328       83058.00    366604.00
  207.22        2963.25           2331       97084.00    429429.30
  207.25        2963.50           2335      114114.00    506075.40
  207.29        2963.75           2339      130604.00    580677.10
  207.32        2964.00           2342      143070.00    637328.80
  207.35        2964.25           2346      159729.00    713381.80
  207.38        2964.50           2349      171591.00    767778.80
  207.41        2964.75           2353      189598.00    850747.40
  207.44        2965.00           2356      202096.00    908613.40
  207.47        2965.25           2360      217939.00    982301.20
  207.50        2965.50           2363      229222.00   1035010.00
  207.53        2965.75           2367      243844.00   1103604.00
  207.56        2966.00           2370      255613.00   1159052.00
  207.59        2966.25           2374      268100.00   1218117.00
  207.62        2966.50           2378      278328.00   1266677.00
  207.65        2966.75           2381      281412.00   1281352.00
  207.68        2967.00           2385      282920.00   1288533.00
  207.71        2967.25           2388      282815.00   1288033.00
  207.74        2967.50           2392      283270.00   1290200.00
  207.77        2967.75           2395      281810.00   1283247.00
  207.81        2968.00           2399      277383.00   1262184.00
  207.84        2968.25           2402      268595.00   1220463.00
  207.87        2968.50           2406      253603.00   1149567.00
  207.90        2968.75           2409      243137.00   1100279.00
  207.93        2969.00           2413      227972.00   1029161.00
  207.96        2969.25           2417      212228.00    955695.20
  207.99        2969.50           2420      201124.00    904104.80
  208.02        2969.75           2424      186790.00    837778.10
  208.05        2970.00           2427      174035.00    779012.00
  208.08        2970.25           2431      155910.00    695911.80
  208.11        2970.50           2434      142715.00    635712.50
  208.14        2970.75           2438      125925.00    559470.20
  208.17        2971.00           2441      113535.00    503462.90
  208.20        2971.25           2445       98903.00    437596.80
  208.23        2971.50           2449       82547.00    364320.20
  208.26        2971.75           2452       70657.00    311281.50
  208.29        2972.00           2456       54305.00    238651.40
  208.33        2972.25           2459       42113.00    184732.10
  208.36        2972.50           2463       26328.00    115215.90
  208.39        2972.75           2466       14554.00     63577.57
  208.42        2973.00           2470        4221.00     18408.21
  208.45        2973.25           2473        2079.00      9062.08
  208.48        2973.50           2477        1440.00      6275.10
  208.52        2973.75           2481        1338.00      5830.28
  208.55        2974.00           2484        1336.00      5821.55
  208.58        2974.25           2488        1255.00      5468.32
  208.61        2974.50           2491        1263.00      5503.21
  208.64        2974.75           2495        1217.00      5302.61
  208.67        2975.00           2498        1192.00      5193.59
  208.70        2975.25           2502        1195.00      5206.68
  208.73        2975.50           2505        1182.00      5149.99
  208.76        2975.75           2509        1136.00      4949.39
  208.79        2976.00           2512        1143.00      4979.92
  208.82        2976.25           2516        1107.00      4822.94
  208.85        2976.50           2520        1089.00      4744.44
  208.88        2976.75           2523        1081.00      4709.56
  208.91        2977.00           2527        1084.00      4722.64
  208.94        2977.25           2530        1066.00      4644.15
  208.97        2977.50           2534        1053.00      4587.46
  209.01        2977.75           2537        1080.00      4705.20
  209.04        2978.00           2541        1038.00      4522.06
  209.07        2978.25           2544        1051.00      4578.74
  209.10        2978.50           2548        1040.00      4530.78
  209.13        2978.75           2552        1038.00      4522.06
  209.16        2979.00           2555        1036.00      4513.33
  209.19        2979.25           2559        1040.00      4530.78
  209.22        2979.50           2562         989.00      4308.39
  209.25        2979.75           2566        1001.00      4360.72
  209.28        2980.00           2569         977.00      4256.07
  209.31        2980.25           2573         965.00      4203.74
  209.34        2980.50           2577         961.00      4186.30
  209.37        2980.75           2580         981.00      4273.51
  209.40        2981.00           2584         948.00      4129.61
  209.43        2981.25           2587         970.00      4225.54
  209.46        2981.50           2591         941.00      4099.09
  209.49        2981.75           2594         983.00      4282.23
  209.52        2982.00           2598         952.00      4147.05
  209.56        2982.25           2601         911.00      3968.28
  209.59        2982.50           2605         948.00      4129.61
  209.62        2982.75           2609         923.00      4020.60
  209.65        2983.00           2612         938.00      4086.01
  209.68        2983.25           2616         922.00      4016.24
  209.71        2983.50           2619         921.00      4011.88
  209.74        2983.75           2623         953.00      4151.41
  209.77        2984.00           2626         882.00      3841.83
HS scan finished at 03:29:59
end
************************************************************
  HS Scan of 
************************************************************
Integration time is 0.2294 seconds per sample
dh150317Reading 51.44 .94 3.43pr1000
************************************************************
Dead Time -------------------------  3.4E-08 
Number of Cycles Used -------------  4 
Starting Wavelength (Angstroms) ---  2950 
Final Wavelength (Angstoms) -------  2984 
Wavelength Increment (Angstroms) --  .25 
Filter Wheel #1 Position ---------- (1) Ground quartz diffuser (ND=2.32)
Filter Wheel #2 Position ---------- (1) Neutral Density 0.494



************************************************************
HS scan start time = 19:07:25
Dark Count =  2.6 


Time (GMT)  Wavelength (Ang)  Step Number  Raw Counts  Counts/Second

 1148.31        2950.00           2144         857.00      3724.97
 1148.50        2950.25           2147         850.00      3694.45
 1148.53        2950.50           2151         885.00      3847.06
 1148.56        2950.75           2155         880.00      3825.26
 1148.60        2951.00           2158         834.00      3624.68
 1148.63        2951.25           2162         862.00      3746.77
 1148.66        2951.50           2165         900.00      3912.46
 1148.69        2951.75           2169         880.00      3825.26
 1148.72        2952.00           2172         859.00      3733.69
 1148.75        2952.25           2176         895.00      3890.66
 1148.78        2952.50           2179         902.00      3921.19
 1148.81        2952.75           2183         893.00      3881.94
 1148.84        2953.00           2186         870.00      3781.65
 1148.87        2953.25           2190         901.00      3916.83
 1148.90        2953.50           2193         935.00      4065.08
 1148.93        2953.75           2197         893.00      3881.94
 1148.96        2954.00           2200         904.00      3929.91
 1148.99        2954.25           2204         908.00      3947.35
 1149.02        2954.50           2208         917.00      3986.59
 1149.05        2954.75           2211         884.00      3842.70
 1149.08        2955.00           2215         916.00      3982.23
 1149.11        2955.25           2218         913.00      3969.15
 1149.15        2955.50           2222         972.00      4226.41
 1149.18        2955.75           2225         939.00      4082.52
 1149.21        2956.00           2229         927.00      4030.20
 1149.24        2956.25           2232         935.00      4065.08
 1149.27        2956.50           2236         991.00      4309.26
 1149.30        2956.75           2239         980.00      4261.30
 1149.33        2957.00           2243         970.00      4217.69
 1149.36        2957.25           2246         967.00      4204.61
 1149.39        2957.50           2250        1018.00      4427.00
 1149.42        2957.75           2254        1016.00      4418.28
 1149.45        2958.00           2257        1062.00      4618.86
 1149.48        2958.25           2261        1022.00      4444.44
 1149.51        2958.50           2264        1065.00      4631.94
 1149.54        2958.75           2268        1073.00      4666.83
 1149.57        2959.00           2271        1081.00      4701.71
 1149.60        2959.25           2275        1075.00      4675.55
 1149.63        2959.50           2278        1081.00      4701.71
 1149.67        2959.75           2282        1079.00      4692.99
 1149.70        2960.00           2285        1140.00      4958.99
 1149.73        2960.25           2289        1118.00      4863.05
 1149.76        2960.50           2293        1158.00      5037.48
 1149.79        2960.75           2296        1192.00      5185.74
 1149.82        2961.00           2300        1298.00      5647.99
 1149.85        2961.25           2303        1709.00      7440.42
 1149.88        2961.50           2307        5611.00     24468.47
 1149.91        2961.75           2310       13486.00     58894.63
 1149.94        2962.00           2314       26751.00    117066.60
 1149.97        2962.25           2317       37787.00    165639.90
 1150.00        2962.50           2321       53269.00    234054.00
 1150.03        2962.75           2324       65508.00    288364.50
 1150.06        2963.00           2328       80688.00    356006.90
 1150.09        2963.25           2331       91775.00    405609.30
 1150.12        2963.50           2335      107196.00    474883.20
 1150.15        2963.75           2339      122346.00    543261.60
 1150.19        2964.00           2342      134396.00    597878.40
 1150.22        2964.25           2346      149339.00    665893.70
 1150.25        2964.50           2349      160188.00    715474.60
 1150.28        2964.75           2353      174929.00    783114.80
 1150.31        2965.00           2356      185139.00    830149.70
 1150.34        2965.25           2360      198726.00    892979.20
 1150.37        2965.50           2363      210077.00    945678.80
 1150.40        2965.75           2367      225387.00   1017064.00
 1150.43        2966.00           2370      235241.00   1063198.00
 1150.46        2966.25           2374      246907.00   1118006.00
 1150.49        2966.50           2378      255474.00   1158387.00
 1150.52        2966.75           2381      257712.00   1168955.00
 1150.55        2967.00           2385      258217.00   1171340.00
 1150.58        2967.25           2388      262772.00   1192876.00
 1150.61        2967.50           2392      258418.00   1172290.00
 1150.64        2967.75           2395      257759.00   1169177.00
 1150.67        2968.00           2399      252837.00   1145945.00
 1150.71        2968.25           2402      245261.00   1110260.00
 1150.74        2968.50           2406      233238.00   1053808.00
 1150.77        2968.75           2409      223527.00   1008373.00
 1150.80        2969.00           2413      210025.00    945436.90
 1150.83        2969.25           2417      194661.00    874153.20
 1150.86        2969.50           2420      184106.00    825384.00
 1150.89        2969.75           2424      169428.00    757836.20
 1150.92        2970.00           2427      158240.00    706559.60
 1150.95        2970.25           2431      143383.00    638745.90
 1150.98        2970.50           2434      133121.00    592089.80
 1151.01        2970.75           2438      117032.00    519240.70
 1151.04        2971.00           2441      104339.00    462024.20
 1151.07        2971.25           2445       87742.00    387546.50
 1151.10        2971.50           2449       71755.00    316163.30
 1151.13        2971.75           2452       60599.00    266556.60
 1151.16        2972.00           2456       45372.00    199117.70
 1151.19        2972.25           2459       34678.00    151939.80
 1151.22        2972.50           2463       20980.00     91730.28
 1151.26        2972.75           2466       12057.00     52641.66
 1151.29        2973.00           2470        3819.00     16645.86
 1151.32        2973.25           2473        1696.00      7383.72
 1151.35        2973.50           2477        1261.00      5486.64
 1151.38        2973.75           2481        1216.00      5290.40
 1151.41        2974.00           2484        1179.00      5129.06
 1151.44        2974.25           2488        1158.00      5037.48
 1151.47        2974.50           2491        1115.00      4849.97
 1151.50        2974.75           2495        1115.00      4849.97
 1151.53        2975.00           2498        1108.00      4819.45
 1151.56        2975.25           2502        1079.00      4692.99
 1151.59        2975.50           2505        1072.00      4662.47
 1151.62        2975.75           2509        1056.00      4592.70
 1151.65        2976.00           2512        1048.00      4557.81
 1151.68        2976.25           2516        1082.00      4706.07
 1151.71        2976.50           2520        1010.00      4392.11
 1151.75        2976.75           2523        1020.00      4435.72
 1151.78        2977.00           2527        1020.00      4435.72
 1151.81        2977.25           2530        1008.00      4383.39
 1151.84        2977.50           2534         981.00      4265.66
 1151.87        2977.75           2537         956.00      4156.65
 1151.90        2978.00           2541         941.00      4091.24
 1151.93        2978.25           2544         933.00      4056.36
 1151.96        2978.50           2548         960.00      4174.09
 1151.99        2978.75           2552         940.00      4086.88
 1152.02        2979.00           2555         912.00      3964.79
 1152.05        2979.25           2559         937.00      4073.80
 1152.08        2979.50           2562         921.00      4004.03
 1152.11        2979.75           2566         907.00      3942.99
 1152.14        2980.00           2569         902.00      3921.19
 1152.17        2980.25           2573         899.00      3908.10
 1152.20        2980.50           2577         887.00      3855.78
 1152.23        2980.75           2580         905.00      3934.27
 1152.27        2981.00           2584         874.00      3799.10
 1152.30        2981.25           2587         889.00      3864.50
 1152.33        2981.50           2591         842.00      3659.57
 1152.36        2981.75           2594         866.00      3764.21
 1152.39        2982.00           2598         851.00      3698.81
 1152.42        2982.25           2601         860.00      3738.05
 1152.45        2982.50           2605         864.00      3755.49
 1152.48        2982.75           2609         828.00      3598.52
 1152.51        2983.00           2612         819.00      3559.28
 1152.54        2983.25           2616         827.00      3594.16
 1152.57        2983.50           2619         831.00      3611.60
 1152.60        2983.75           2623         834.00      3624.68
 1152.63        2984.00           2626         834.00      3624.68
HS scan finished at 19:12:51
end
