************************************************************
  HS Scan of (1) Internal mercury lamp
************************************************************
Integration time is 0.2294 seconds per sample
dh140319Reading 51.44 .94 2.9pr1000
************************************************************
Dead Time -------------------------  3.4E-08 
Number of Cycles Used -------------  4 
Starting Wavelength (Angstroms) ---  2950 
Final Wavelength (Angstoms) -------  2984 
Wavelength Increment (Angstroms) --  .25 
Filter Wheel #1 Position ---------- (1) Ground quartz diffuser (ND=2.32)
Filter Wheel #2 Position ---------- (1) Neutral Density 0.494



************************************************************
HS scan start time = 03:29:17
Dark Count =  .7 


Time (GMT)  Wavelength (Ang)  Step Number  Raw Counts  Counts/Second

  210.18        2950.00           2144        1603.00      6986.40
  210.38        2950.25           2147        1590.00      6929.71
  210.41        2950.50           2151        1555.00      6777.06
  210.44        2950.75           2155        1597.00      6960.23
  210.47        2951.00           2158        1642.00      7156.49
  210.50        2951.25           2162        1593.00      6942.79
  210.53        2951.50           2165        1588.00      6920.98
  210.56        2951.75           2169        1617.00      7047.46
  210.59        2952.00           2172        1635.00      7125.96
  210.62        2952.25           2176        1645.00      7169.58
  210.65        2952.50           2179        1641.00      7152.13
  210.68        2952.75           2183        1609.00      7012.57
  210.71        2953.00           2186        1644.00      7165.22
  210.74        2953.25           2190        1665.00      7256.80
  210.77        2953.50           2193        1687.00      7352.75
  210.80        2953.75           2197        1675.00      7300.42
  210.84        2954.00           2200        1665.00      7256.80
  210.87        2954.25           2204        1681.00      7326.59
  210.90        2954.50           2208        1691.00      7370.20
  210.93        2954.75           2211        1687.00      7352.75
  210.96        2955.00           2215        1703.00      7422.54
  210.99        2955.25           2218        1683.00      7335.31
  211.02        2955.50           2222        1707.00      7439.98
  211.05        2955.75           2225        1766.00      7697.31
  211.08        2956.00           2229        1735.00      7562.10
  211.11        2956.25           2232        1772.00      7723.48
  211.14        2956.50           2236        1741.00      7588.27
  211.17        2956.75           2239        1808.00      7880.49
  211.20        2957.00           2243        1827.00      7963.36
  211.23        2957.25           2246        1830.00      7976.44
  211.26        2957.50           2250        1854.00      8081.12
  211.29        2957.75           2254        1880.00      8194.52
  211.32        2958.00           2257        1823.00      7945.91
  211.36        2958.25           2261        1905.00      8303.56
  211.39        2958.50           2264        1931.00      8416.97
  211.42        2958.75           2268        1975.00      8608.89
  211.45        2959.00           2271        1992.00      8683.04
  211.48        2959.25           2275        2014.00      8778.99
  211.51        2959.50           2278        2003.00      8731.01
  211.55        2959.75           2282        2067.00      9010.17
  211.58        2960.00           2285        2055.00      8957.83
  211.61        2960.25           2289        2124.00      9258.80
  211.64        2960.50           2293        2180.00      9503.07
  211.67        2960.75           2296        2267.00      9882.57
  211.70        2961.00           2300        2408.00     10497.65
  211.73        2961.25           2303        2893.00     12613.52
  211.76        2961.50           2307        8051.00     35134.80
  211.79        2961.75           2310       19542.00     85432.19
  211.82        2962.00           2314       41721.00    183002.20
  211.85        2962.25           2317       60323.00    265339.90
  211.88        2962.50           2321       89750.00    396545.60
  211.91        2962.75           2324      113519.00    503391.20
  211.94        2963.00           2328      144608.00    644334.00
  211.97        2963.25           2331      165848.00    741417.30
  212.00        2963.50           2335      194681.00    874254.40
  212.03        2963.75           2339      223837.00   1009830.00
  212.07        2964.00           2342      247918.00   1122774.00
  212.10        2964.25           2346      278300.00   1266545.00
  212.13        2964.50           2349      301081.00   1375298.00
  212.16        2964.75           2353      327804.00   1503928.00
  212.19        2965.00           2356      349264.00   1608068.00
  212.22        2965.25           2360      376229.00   1740007.00
  212.25        2965.50           2363      395385.00   1834485.00
  212.28        2965.75           2367      420897.00   1961292.00
  212.31        2966.00           2370      441342.00   2063737.00
  212.34        2966.25           2374      465527.00   2185887.00
  212.37        2966.50           2378      483569.00   2277703.00
  212.40        2966.75           2381      488055.00   2300625.00
  212.43        2967.00           2385      490811.00   2314726.00
  212.46        2967.25           2388      491043.00   2315914.00
  212.49        2967.50           2392      491417.00   2317828.00
  212.52        2967.75           2395      490953.00   2315453.00
  212.55        2968.00           2399      485695.00   2288561.00
  212.58        2968.25           2402      473942.00   2228636.00
  212.62        2968.50           2406      451445.00   2114635.00
  212.65        2968.75           2409      433039.00   2022043.00
  212.68        2969.00           2413      406735.00   1890760.00
  212.71        2969.25           2417      379589.00   1756534.00
  212.74        2969.50           2420      358555.00   1653391.00
  212.77        2969.75           2424      330555.00   1517235.00
  212.80        2970.00           2427      310166.00   1418898.00
  212.83        2970.25           2431      279351.00   1271544.00
  212.86        2970.50           2434      257441.00   1167684.00
  212.89        2970.75           2438      229670.00   1037107.00
  212.92        2971.00           2441      208585.00    938749.70
  212.95        2971.25           2445      176329.00    789564.00
  212.98        2971.50           2449      145775.00    649651.30
  213.01        2971.75           2452      122747.00    545084.40
  213.04        2972.00           2456       92976.00    411001.10
  213.07        2972.25           2459       71044.00    313005.20
  213.10        2972.50           2463       43887.00    192565.70
  213.14        2972.75           2466       24064.00    105272.80
  213.17        2973.00           2470        7693.00     33570.55
  213.20        2973.25           2473        3686.00     16073.74
  213.23        2973.50           2477        2487.00     10842.27
  213.26        2973.75           2481        2297.00     10013.43
  213.29        2974.00           2484        2244.00      9782.24
  213.32        2974.25           2488        2186.00      9529.24
  213.35        2974.50           2491        2167.00      9446.37
  213.38        2974.75           2495        2087.00      9097.41
  213.41        2975.00           2498        2081.00      9071.24
  213.44        2975.25           2502        2020.00      8805.16
  213.47        2975.50           2505        2046.00      8918.57
  213.50        2975.75           2509        1947.00      8486.76
  213.53        2976.00           2512        1971.00      8591.44
  213.56        2976.25           2516        1925.00      8390.80
  213.59        2976.50           2520        1871.00      8155.27
  213.62        2976.75           2523        1840.00      8020.06
  213.66        2977.00           2527        1811.00      7893.58
  213.69        2977.25           2530        1799.00      7841.24
  213.72        2977.50           2534        1779.00      7754.01
  213.75        2977.75           2537        1763.00      7684.22
  213.78        2978.00           2541        1763.00      7684.22
  213.81        2978.25           2544        1684.00      7339.67
  213.84        2978.50           2548        1749.00      7623.16
  213.87        2978.75           2552        1717.00      7483.60
  213.90        2979.00           2555        1693.00      7378.92
  213.93        2979.25           2559        1674.00      7296.06
  213.96        2979.50           2562        1672.00      7287.33
  213.99        2979.75           2566        1654.00      7208.83
  214.02        2980.00           2569        1682.00      7330.95
  214.05        2980.25           2573        1611.00      7021.29
  214.08        2980.50           2577        1606.00      6999.49
  214.11        2980.75           2580        1611.00      7021.29
  214.14        2981.00           2584        1581.00      6890.45
  214.18        2981.25           2587        1620.00      7060.54
  214.21        2981.50           2591        1615.00      7038.74
  214.24        2981.75           2594        1607.00      7003.85
  214.27        2982.00           2598        1604.00      6990.76
  214.30        2982.25           2601        1603.00      6986.40
  214.33        2982.50           2605        1580.00      6886.09
  214.36        2982.75           2609        1592.00      6938.43
  214.39        2983.00           2612        1578.00      6877.37
  214.42        2983.25           2616        1551.00      6759.62
  214.45        2983.50           2619        1529.00      6663.67
  214.48        2983.75           2623        1566.00      6825.04
  214.51        2984.00           2626        1539.00      6707.28
HS scan finished at 03:34:44
end
************************************************************
  HS Scan of (1) Internal mercury lamp
************************************************************
Integration time is 0.2294 seconds per sample
dh140319Reading 51.44 .94 3.09pr1000
************************************************************
Dead Time -------------------------  3.4E-08 
Number of Cycles Used -------------  4 
Starting Wavelength (Angstroms) ---  2950 
Final Wavelength (Angstoms) -------  2984 
Wavelength Increment (Angstroms) --  .25 
Filter Wheel #1 Position ---------- (1) Ground quartz diffuser (ND=2.32)
Filter Wheel #2 Position ---------- (1) Neutral Density 0.494



************************************************************
HS scan start time = 19:07:22
Dark Count =  1.1 


Time (GMT)  Wavelength (Ang)  Step Number  Raw Counts  Counts/Second

 1148.27        2950.00           2144        1579.00      6879.99
 1148.46        2950.25           2147        1598.00      6962.85
 1148.49        2950.50           2151        1573.00      6853.82
 1148.52        2950.75           2155        1585.00      6906.16
 1148.55        2951.00           2158        1649.00      7185.28
 1148.58        2951.25           2162        1628.00      7093.69
 1148.61        2951.50           2165        1619.00      7054.44
 1148.64        2951.75           2169        1590.00      6927.96
 1148.67        2952.00           2172        1604.00      6989.02
 1148.70        2952.25           2176        1586.00      6910.52
 1148.73        2952.50           2179        1602.00      6980.30
 1148.77        2952.75           2183        1629.00      7098.05
 1148.80        2953.00           2186        1617.00      7045.72
 1148.83        2953.25           2190        1661.00      7237.61
 1148.86        2953.50           2193        1613.00      7028.27
 1148.89        2953.75           2197        1665.00      7255.06
 1148.92        2954.00           2200        1661.00      7237.61
 1148.95        2954.25           2204        1671.00      7281.23
 1148.98        2954.50           2208        1664.00      7250.70
 1149.01        2954.75           2211        1687.00      7351.01
 1149.04        2955.00           2215        1672.00      7285.59
 1149.07        2955.25           2218        1724.00      7512.38
 1149.10        2955.50           2222        1725.00      7516.74
 1149.13        2955.75           2225        1710.00      7451.32
 1149.16        2956.00           2229        1748.00      7617.06
 1149.19        2956.25           2232        1728.00      7529.83
 1149.22        2956.50           2236        1728.00      7529.83
 1149.25        2956.75           2239        1763.00      7682.48
 1149.28        2957.00           2243        1807.00      7874.38
 1149.32        2957.25           2246        1767.00      7699.92
 1149.35        2957.50           2250        1831.00      7979.06
 1149.38        2957.75           2254        1835.00      7996.51
 1149.41        2958.00           2257        1824.00      7948.53
 1149.44        2958.25           2261        1871.00      8153.53
 1149.47        2958.50           2264        1838.00      8009.59
 1149.50        2958.75           2268        1908.00      8314.91
 1149.53        2959.00           2271        1892.00      8245.12
 1149.56        2959.25           2275        1926.00      8393.42
 1149.59        2959.50           2278        1976.00      8611.50
 1149.62        2959.75           2282        1948.00      8489.37
 1149.65        2960.00           2285        2040.00      8890.66
 1149.68        2960.25           2289        2031.00      8851.40
 1149.71        2960.50           2293        2095.00      9130.56
 1149.74        2960.75           2296        2147.00      9357.38
 1149.77        2961.00           2300        2262.00      9859.01
 1149.80        2961.25           2303        2767.00     12062.05
 1149.84        2961.50           2307        7630.00     33293.55
 1149.87        2961.75           2310       17326.00     75717.35
 1149.90        2962.00           2314       35049.00    153580.60
 1149.93        2962.25           2317       52436.00    230371.50
 1149.96        2962.50           2321       78803.00    347596.90
 1149.99        2962.75           2324       98643.00    436427.70
 1150.02        2963.00           2328      123733.00    549544.50
 1150.05        2963.25           2331      142658.00    635451.60
 1150.08        2963.50           2335      167968.00    751141.40
 1150.11        2963.75           2339      195550.00    878275.20
 1150.14        2964.00           2342      216131.00    973871.50
 1150.17        2964.25           2346      243088.00   1100048.00
 1150.20        2964.50           2349      261791.00   1188243.00
 1150.23        2964.75           2353      286573.00   1305942.00
 1150.26        2965.00           2356      307422.00   1405713.00
 1150.29        2965.25           2360      332704.00   1527638.00
 1150.32        2965.50           2363      350342.00   1613317.00
 1150.36        2965.75           2367      375027.00   1734098.00
 1150.39        2966.00           2370      392561.00   1820515.00
 1150.42        2966.25           2374      414393.00   1928854.00
 1150.45        2966.50           2378      428572.00   1999661.00
 1150.48        2966.75           2381      433897.00   2026344.00
 1150.51        2967.00           2385      436776.00   2040791.00
 1150.54        2967.25           2388      436976.00   2041796.00
 1150.57        2967.50           2392      437300.00   2043423.00
 1150.60        2967.75           2395      436669.00   2040254.00
 1150.63        2968.00           2399      431063.00   2012137.00
 1150.66        2968.25           2402      420702.00   1960316.00
 1150.69        2968.50           2406      401805.00   1866287.00
 1150.72        2968.75           2409      386351.00   1789849.00
 1150.75        2969.00           2413      364113.00   1680571.00
 1150.78        2969.25           2417      338422.00   1555358.00
 1150.81        2969.50           2420      320215.00   1467279.00
 1150.84        2969.75           2424      295982.00   1350882.00
 1150.88        2970.00           2427      278057.00   1265387.00
 1150.91        2970.25           2431      252089.00   1142425.00
 1150.94        2970.50           2434      232372.00   1049758.00
 1150.97        2970.75           2438      207618.00    934253.00
 1151.00        2971.00           2441      187545.00    841262.70
 1151.03        2971.25           2445      159775.00    713591.00
 1151.06        2971.50           2449      132734.00    590340.00
 1151.09        2971.75           2452      113429.00    502983.30
 1151.12        2972.00           2456       87108.00    384715.70
 1151.15        2972.25           2459       68850.00    303236.30
 1151.18        2972.50           2463       44061.00    193332.50
 1151.21        2972.75           2466       25952.00    113562.80
 1151.24        2973.00           2470        8534.00     37243.74
 1151.27        2973.25           2473        3599.00     15692.33
 1151.30        2973.50           2477        2367.00     10317.04
 1151.33        2973.75           2481        2214.00      9649.64
 1151.37        2974.00           2484        2146.00      9353.02
 1151.40        2974.25           2488        2090.00      9108.75
 1151.43        2974.50           2491        2063.00      8990.98
 1151.46        2974.75           2495        1970.00      8585.33
 1151.49        2975.00           2498        1983.00      8642.03
 1151.52        2975.25           2502        1962.00      8550.44
 1151.55        2975.50           2505        1948.00      8489.37
 1151.58        2975.75           2509        1903.00      8293.10
 1151.61        2976.00           2512        1911.00      8327.99
 1151.64        2976.25           2516        1858.00      8096.82
 1151.67        2976.50           2520        1843.00      8031.40
 1151.70        2976.75           2523        1813.00      7900.55
 1151.73        2977.00           2527        1822.00      7939.81
 1151.76        2977.25           2530        1769.00      7708.65
 1151.79        2977.50           2534        1728.00      7529.83
 1151.82        2977.75           2537        1734.00      7555.99
 1151.85        2978.00           2541        1771.00      7717.37
 1151.89        2978.25           2544        1745.00      7603.97
 1151.92        2978.50           2548        1780.00      7756.62
 1151.95        2978.75           2552        1681.00      7324.84
 1151.98        2979.00           2555        1701.00      7412.07
 1152.01        2979.25           2559        1647.00      7176.56
 1152.04        2979.50           2562        1650.00      7189.64
 1152.07        2979.75           2566        1661.00      7237.61
 1152.10        2980.00           2569        1636.00      7128.58
 1152.13        2980.25           2573        1646.00      7172.19
 1152.16        2980.50           2577        1602.00      6980.30
 1152.19        2980.75           2580        1584.00      6901.79
 1152.22        2981.00           2584        1598.00      6962.85
 1152.25        2981.25           2587        1588.00      6919.24
 1152.28        2981.50           2591        1546.00      6736.07
 1152.31        2981.75           2594        1604.00      6989.02
 1152.34        2982.00           2598        1556.00      6779.68
 1152.37        2982.25           2601        1544.00      6727.35
 1152.40        2982.50           2605        1567.00      6827.65
 1152.44        2982.75           2609        1567.00      6827.65
 1152.47        2983.00           2612        1517.00      6609.59
 1152.50        2983.25           2616        1518.00      6613.96
 1152.53        2983.50           2619        1533.00      6679.37
 1152.56        2983.75           2623        1526.00      6648.84
 1152.59        2984.00           2626        1503.00      6548.54
HS scan finished at 19:12:49
end
