************************************************************
  HS Scan of (1) Internal mercury lamp
************************************************************
Integration time is 0.2294 seconds per sample
dh200318Reading 51.44 .94 2.39pr1000
************************************************************
Dead Time -------------------------  3.4E-08 
Number of Cycles Used -------------  4 
Starting Wavelength (Angstroms) ---  2950 
Final Wavelength (Angstoms) -------  2984 
Wavelength Increment (Angstroms) --  .25 
Filter Wheel #1 Position ---------- (1) Ground quartz diffuser (ND=2.32)
Filter Wheel #2 Position ---------- (1) Neutral Density 0.494



************************************************************
HS scan start time = 03:11:23
Dark Count =  .3 


Time (GMT)  Wavelength (Ang)  Step Number  Raw Counts  Counts/Second

  192.29        2950.00           2144         162.00       704.90
  192.48        2950.25           2147         172.00       748.49
  192.51        2950.50           2151         173.00       752.85
  192.54        2950.75           2155         175.00       761.57
  192.57        2951.00           2158         169.00       735.42
  192.60        2951.25           2162         175.00       761.57
  192.63        2951.50           2165         176.00       765.93
  192.67        2951.75           2169         161.00       700.54
  192.70        2952.00           2172         178.00       774.65
  192.73        2952.25           2176         177.00       770.29
  192.76        2952.50           2179         187.00       813.88
  192.79        2952.75           2183         177.00       770.29
  192.82        2953.00           2186         189.00       822.60
  192.85        2953.25           2190         181.00       787.73
  192.88        2953.50           2193         190.00       826.96
  192.91        2953.75           2197         182.00       792.09
  192.94        2954.00           2200         194.00       844.40
  192.97        2954.25           2204         184.00       800.81
  193.00        2954.50           2208         196.00       853.12
  193.03        2954.75           2211         185.00       805.17
  193.06        2955.00           2215         186.00       809.53
  193.09        2955.25           2218         185.00       805.17
  193.12        2955.50           2222         204.00       888.00
  193.15        2955.75           2225         195.00       848.76
  193.18        2956.00           2229         198.00       861.84
  193.22        2956.25           2232         202.00       879.28
  193.25        2956.50           2236         204.00       888.00
  193.28        2956.75           2239         205.00       892.35
  193.31        2957.00           2243         200.00       870.56
  193.34        2957.25           2246         208.00       905.43
  193.37        2957.50           2250         227.00       988.26
  193.40        2957.75           2254         225.00       979.54
  193.43        2958.00           2257         221.00       962.11
  193.46        2958.25           2261         231.00      1005.70
  193.49        2958.50           2264         219.00       953.39
  193.52        2958.75           2268         216.00       940.31
  193.55        2959.00           2271         251.00      1092.89
  193.58        2959.25           2275         226.00       983.90
  193.61        2959.50           2278         241.00      1049.30
  193.64        2959.75           2282         252.00      1097.25
  193.67        2960.00           2285         286.00      1245.48
  193.70        2960.25           2289         262.00      1140.85
  193.74        2960.50           2293         277.00      1206.24
  193.77        2960.75           2296         280.00      1219.32
  193.80        2961.00           2300         316.00      1376.26
  193.83        2961.25           2303         592.00      2579.56
  193.86        2961.50           2307        2114.00      9216.93
  193.89        2961.75           2310        4268.00     18615.53
  193.92        2962.00           2314        7711.00     33650.95
  193.95        2962.25           2317       10342.00     45150.78
  193.98        2962.50           2321       13995.00     61132.60
  194.01        2962.75           2324       17201.00     75173.15
  194.04        2963.00           2328       21581.00     94376.89
  194.07        2963.25           2331       24674.00    107953.00
  194.10        2963.50           2335       28446.00    124526.60
  194.13        2963.75           2339       32593.00    142769.40
  194.16        2964.00           2342       35397.00    155117.10
  194.19        2964.25           2346       39987.00    175352.30
  194.22        2964.50           2349       43069.00    188955.00
  194.26        2964.75           2353       46369.00    203534.00
  194.29        2965.00           2356       49369.00    216800.20
  194.32        2965.25           2360       53438.00    234812.70
  194.35        2965.50           2363       55898.00    245713.40
  194.38        2965.75           2367       59527.00    261808.90
  194.41        2966.00           2370       62547.00    275216.80
  194.44        2966.25           2374       65735.00    289383.90
  194.47        2966.50           2378       68059.00    299720.20
  194.50        2966.75           2381       68424.00    301344.20
  194.53        2967.00           2385       68669.00    302434.40
  194.56        2967.25           2388       68635.00    302283.10
  194.59        2967.50           2392       68922.00    303560.30
  194.62        2967.75           2395       68256.00    300596.70
  194.65        2968.00           2399       66991.00    294969.20
  194.68        2968.25           2402       64648.00    284551.90
  194.71        2968.50           2406       60772.00    267334.80
  194.74        2968.75           2409       58098.00    255468.80
  194.78        2969.00           2413       54020.00    237390.90
  194.81        2969.25           2417       50440.00    221539.10
  194.84        2969.50           2420       47739.00    209590.70
  194.87        2969.75           2424       43568.00    191158.60
  194.90        2970.00           2427       40204.00    176309.60
  194.93        2970.25           2431       35889.00    157284.80
  194.96        2970.50           2434       32987.00    144503.80
  194.99        2970.75           2438       28792.00    126047.80
  195.02        2971.00           2441       25737.00    112621.80
  195.05        2971.25           2445       21382.00     93503.85
  195.08        2971.50           2449       17045.00     74489.63
  195.11        2971.75           2452       13994.00     61128.23
  195.14        2972.00           2456       10113.00     44149.48
  195.17        2972.25           2459        7332.00     31995.12
  195.20        2972.50           2463        3801.00     16577.34
  195.23        2972.75           2466        1912.00      8335.84
  195.26        2973.00           2470         635.00      2767.04
  195.30        2973.25           2473         377.00      1642.20
  195.33        2973.50           2477         291.00      1267.27
  195.36        2973.75           2481         258.00      1123.41
  195.39        2974.00           2484         267.00      1162.64
  195.42        2974.25           2488         265.00      1153.93
  195.45        2974.50           2491         247.00      1075.45
  195.48        2974.75           2495         243.00      1058.02
  195.51        2975.00           2498         232.00      1010.06
  195.54        2975.25           2502         225.00       979.54
  195.57        2975.50           2505         227.00       988.26
  195.60        2975.75           2509         217.00       944.67
  195.63        2976.00           2512         215.00       935.95
  195.66        2976.25           2516         239.00      1040.58
  195.69        2976.50           2520         190.00       826.96
  195.72        2976.75           2523         198.00       861.84
  195.75        2977.00           2527         199.00       866.20
  195.79        2977.25           2530         185.00       805.17
  195.82        2977.50           2534         183.00       796.45
  195.85        2977.75           2537         184.00       800.81
  195.88        2978.00           2541         185.00       805.17
  195.91        2978.25           2544         184.00       800.81
  195.94        2978.50           2548         170.00       739.77
  195.97        2978.75           2552         177.00       770.29
  196.00        2979.00           2555         169.00       735.42
  196.03        2979.25           2559         183.00       796.45
  196.06        2979.50           2562         170.00       739.77
  196.09        2979.75           2566         189.00       822.60
  196.12        2980.00           2569         161.00       700.54
  196.15        2980.25           2573         170.00       739.77
  196.18        2980.50           2577         158.00       687.46
  196.21        2980.75           2580         168.00       731.06
  196.24        2981.00           2584         160.00       696.18
  196.27        2981.25           2587         162.00       704.90
  196.30        2981.50           2591         167.00       726.70
  196.34        2981.75           2594         156.00       678.74
  196.37        2982.00           2598         151.00       656.95
  196.40        2982.25           2601         163.00       709.26
  196.43        2982.50           2605         155.00       674.38
  196.46        2982.75           2609         162.00       704.90
  196.49        2983.00           2612         156.00       678.74
  196.52        2983.25           2616         149.00       648.23
  196.55        2983.50           2619         154.00       670.02
  196.58        2983.75           2623         157.00       683.10
  196.61        2984.00           2626         160.00       696.18
HS scan finished at 03:16:50
end
************************************************************
  HS Scan of (1) Internal mercury lamp
************************************************************
Integration time is 0.2294 seconds per sample
dh200318Reading 51.44 .94 2.92pr1000
************************************************************
Dead Time -------------------------  3.4E-08 
Number of Cycles Used -------------  4 
Starting Wavelength (Angstroms) ---  2950 
Final Wavelength (Angstoms) -------  2984 
Wavelength Increment (Angstroms) --  .25 
Filter Wheel #1 Position ---------- (1) Ground quartz diffuser (ND=2.32)
Filter Wheel #2 Position ---------- (1) Neutral Density 0.494



************************************************************
HS scan start time = 19:07:29
Dark Count =  1.1 


Time (GMT)  Wavelength (Ang)  Step Number  Raw Counts  Counts/Second

 1148.38        2950.00           2144         130.00       561.91
 1148.58        2950.25           2147         158.00       683.97
 1148.61        2950.50           2151         152.00       657.82
 1148.64        2950.75           2155         130.00       561.91
 1148.67        2951.00           2158         160.00       692.69
 1148.70        2951.25           2162         149.00       644.74
 1148.73        2951.50           2165         161.00       697.05
 1148.76        2951.75           2169         156.00       675.26
 1148.79        2952.00           2172         158.00       683.97
 1148.82        2952.25           2176         146.00       631.66
 1148.85        2952.50           2179         166.00       718.85
 1148.88        2952.75           2183         144.00       622.94
 1148.91        2953.00           2186         133.00       574.99
 1148.95        2953.25           2190         148.00       640.38
 1148.98        2953.50           2193         142.00       614.22
 1149.01        2953.75           2197         134.00       579.35
 1149.04        2954.00           2200         140.00       605.51
 1149.07        2954.25           2204         163.00       705.77
 1149.10        2954.50           2208         157.00       679.61
 1149.13        2954.75           2211         149.00       644.74
 1149.16        2955.00           2215         144.00       622.94
 1149.19        2955.25           2218         147.00       636.02
 1149.22        2955.50           2222         159.00       688.33
 1149.25        2955.75           2225         145.00       627.30
 1149.28        2956.00           2229         153.00       662.18
 1149.31        2956.25           2232         166.00       718.85
 1149.34        2956.50           2236         155.00       670.90
 1149.37        2956.75           2239         172.00       745.01
 1149.40        2957.00           2243         163.00       705.77
 1149.43        2957.25           2246         177.00       766.80
 1149.47        2957.50           2250         155.00       670.90
 1149.50        2957.75           2254         158.00       683.97
 1149.53        2958.00           2257         158.00       683.97
 1149.56        2958.25           2261         170.00       736.29
 1149.59        2958.50           2264         168.00       727.57
 1149.62        2958.75           2268         176.00       762.44
 1149.65        2959.00           2271         178.00       771.16
 1149.68        2959.25           2275         175.00       758.08
 1149.71        2959.50           2278         186.00       806.04
 1149.74        2959.75           2282         184.00       797.32
 1149.77        2960.00           2285         183.00       792.96
 1149.80        2960.25           2289         204.00       884.51
 1149.83        2960.50           2293         209.00       906.31
 1149.86        2960.75           2296         212.00       919.38
 1149.89        2961.00           2300         276.00      1198.39
 1149.92        2961.25           2303         567.00      2467.08
 1149.95        2961.50           2307        2013.00      8772.89
 1149.99        2961.75           2310        3910.00     17049.55
 1150.02        2962.00           2314        6874.00     29990.90
 1150.05        2962.25           2317        9385.00     40963.29
 1150.08        2962.50           2321       12764.00     55741.55
 1150.11        2962.75           2324       15403.00     67293.73
 1150.14        2963.00           2328       18765.00     82023.99
 1150.17        2963.25           2331       21048.00     92035.16
 1150.20        2963.50           2335       24421.00    106838.60
 1150.23        2963.75           2339       27937.00    122285.50
 1150.26        2964.00           2342       30619.00    134079.30
 1150.29        2964.25           2346       34307.00    150312.40
 1150.32        2964.50           2349       36626.00    160529.00
 1150.35        2964.75           2353       39831.00    174660.60
 1150.38        2965.00           2356       42420.00    186086.00
 1150.41        2965.25           2360       45402.00    199256.90
 1150.44        2965.50           2363       47709.00    209454.50
 1150.47        2965.75           2367       50603.00    222256.90
 1150.51        2966.00           2370       53310.00    234242.20
 1150.54        2966.25           2374       55838.00    245443.80
 1150.57        2966.50           2378       57061.00    250866.00
 1150.60        2966.75           2381       57550.00    253034.60
 1150.63        2967.00           2385       57801.00    254147.80
 1150.66        2967.25           2388       57452.00    252600.00
 1150.69        2967.50           2392       57394.00    252342.80
 1150.72        2967.75           2395       57184.00    251411.50
 1150.75        2968.00           2399       55882.00    245638.90
 1150.78        2968.25           2402       53469.00    234946.50
 1150.81        2968.50           2406       51011.00    224062.70
 1150.84        2968.75           2409       47897.00    210285.80
 1150.87        2969.00           2413       45000.00    197480.60
 1150.90        2969.25           2417       41583.00    182391.30
 1150.93        2969.50           2420       39292.00    172283.00
 1150.96        2969.75           2424       36098.00    158202.20
 1150.99        2970.00           2427       33400.00    146318.50
 1151.03        2970.25           2431       29704.00    130054.60
 1151.06        2970.50           2434       27414.00    119986.80
 1151.09        2970.75           2438       24107.00    105459.90
 1151.12        2971.00           2441       21548.00     94228.60
 1151.15        2971.25           2445       17752.00     77584.07
 1151.18        2971.50           2449       14334.00     62613.10
 1151.21        2971.75           2452       11873.00     51843.27
 1151.24        2972.00           2456        8484.00     37025.23
 1151.27        2972.25           2459        6237.00     27208.68
 1151.30        2972.50           2463        3248.00     14160.70
 1151.33        2972.75           2466        1478.00      6439.51
 1151.36        2973.00           2470         472.00      2052.89
 1151.39        2973.25           2473         292.00      1268.15
 1151.42        2973.50           2477         238.00      1032.73
 1151.45        2973.75           2481         223.00       967.34
 1151.48        2974.00           2484         204.00       884.51
 1151.51        2974.25           2488         194.00       840.91
 1151.54        2974.50           2491         194.00       840.91
 1151.58        2974.75           2495         183.00       792.96
 1151.61        2975.00           2498         195.00       845.27
 1151.64        2975.25           2502         182.00       788.60
 1151.67        2975.50           2505         184.00       797.32
 1151.70        2975.75           2509         178.00       771.16
 1151.73        2976.00           2512         177.00       766.80
 1151.76        2976.25           2516         187.00       810.40
 1151.79        2976.50           2520         172.00       745.01
 1151.82        2976.75           2523         161.00       697.05
 1151.85        2977.00           2527         163.00       705.77
 1151.88        2977.25           2530         154.00       666.54
 1151.91        2977.50           2534         156.00       675.26
 1151.94        2977.75           2537         165.00       714.49
 1151.97        2978.00           2541         151.00       653.46
 1152.00        2978.25           2544         152.00       657.82
 1152.03        2978.50           2548         167.00       723.21
 1152.06        2978.75           2552         151.00       653.46
 1152.10        2979.00           2555         165.00       714.49
 1152.13        2979.25           2559         145.00       627.30
 1152.16        2979.50           2562         148.00       640.38
 1152.19        2979.75           2566         155.00       670.90
 1152.22        2980.00           2569         152.00       657.82
 1152.25        2980.25           2573         148.00       640.38
 1152.28        2980.50           2577         148.00       640.38
 1152.31        2980.75           2580         158.00       683.97
 1152.34        2981.00           2584         160.00       692.69
 1152.37        2981.25           2587         134.00       579.35
 1152.40        2981.50           2591         144.00       622.94
 1152.43        2981.75           2594         131.00       566.27
 1152.46        2982.00           2598         132.00       570.63
 1152.49        2982.25           2601         146.00       631.66
 1152.52        2982.50           2605         147.00       636.02
 1152.55        2982.75           2609         135.00       583.71
 1152.59        2983.00           2612         148.00       640.38
 1152.62        2983.25           2616         129.00       557.55
 1152.65        2983.50           2619         126.00       544.47
 1152.68        2983.75           2623         161.00       697.05
 1152.71        2984.00           2626         131.00       566.27
HS scan finished at 19:12:56
end
