************************************************************
  HS Scan of (1) Internal mercury lamp
************************************************************
Integration time is 0.2294 seconds per sample
dh120319Reading 51.44 .94 2.76pr1000
************************************************************
Dead Time -------------------------  3.4E-08 
Number of Cycles Used -------------  4 
Starting Wavelength (Angstroms) ---  2950 
Final Wavelength (Angstoms) -------  2984 
Wavelength Increment (Angstroms) --  .25 
Filter Wheel #1 Position ---------- (1) Ground quartz diffuser (ND=2.32)
Filter Wheel #2 Position ---------- (1) Neutral Density 0.494



************************************************************
HS scan start time = 03:35:28
Dark Count =  .5 


Time (GMT)  Wavelength (Ang)  Step Number  Raw Counts  Counts/Second

  216.36        2950.00           2144        1656.00      7218.42
  216.55        2950.25           2147        1656.00      7218.42
  216.58        2950.50           2151        1673.00      7292.57
  216.61        2950.75           2155        1680.00      7323.10
  216.64        2951.00           2158        1637.00      7135.56
  216.67        2951.25           2162        1692.00      7375.43
  216.70        2951.50           2165        1664.00      7253.31
  216.74        2951.75           2169        1703.00      7423.41
  216.77        2952.00           2172        1664.00      7253.31
  216.80        2952.25           2176        1706.00      7436.49
  216.83        2952.50           2179        1664.00      7253.31
  216.86        2952.75           2183        1669.00      7275.12
  216.89        2953.00           2186        1708.00      7445.22
  216.92        2953.25           2190        1728.00      7532.44
  216.95        2953.50           2193        1694.00      7384.16
  216.98        2953.75           2197        1776.00      7741.79
  217.01        2954.00           2200        1734.00      7558.61
  217.04        2954.25           2204        1730.00      7541.17
  217.07        2954.50           2208        1779.00      7754.88
  217.10        2954.75           2211        1727.00      7528.08
  217.13        2955.00           2215        1808.00      7881.36
  217.17        2955.25           2218        1766.00      7698.18
  217.20        2955.50           2222        1741.00      7589.14
  217.24        2955.75           2225        1784.00      7776.69
  217.27        2956.00           2229        1808.00      7881.36
  217.30        2956.25           2232        1755.00      7650.20
  217.33        2956.50           2236        1834.00      7994.76
  217.36        2956.75           2239        1874.00      8169.23
  217.39        2957.00           2243        1842.00      8029.66
  217.42        2957.25           2246        1896.00      8265.18
  217.45        2957.50           2250        1847.00      8051.46
  217.48        2957.75           2254        1875.00      8173.59
  217.51        2958.00           2257        1855.00      8086.36
  217.54        2958.25           2261        1916.00      8352.42
  217.57        2958.50           2264        1906.00      8308.80
  217.60        2958.75           2268        1962.00      8553.06
  217.63        2959.00           2271        1925.00      8391.67
  217.66        2959.25           2275        1996.00      8701.35
  217.69        2959.50           2278        2036.00      8875.83
  217.72        2959.75           2282        2002.00      8727.52
  217.76        2960.00           2285        2030.00      8849.65
  217.79        2960.25           2289        2105.00      9176.80
  217.82        2960.50           2293        2134.00      9303.29
  217.85        2960.75           2296        2138.00      9320.74
  217.88        2961.00           2300        2381.00     10380.73
  217.91        2961.25           2303        3462.00     15097.11
  217.94        2961.50           2307       10166.00     44380.34
  217.97        2961.75           2310       20608.00     90107.81
  218.00        2962.00           2314       40513.00    177672.10
  218.04        2962.25           2317       58209.00    255960.30
  218.07        2962.50           2321       81842.00    361171.30
  218.10        2962.75           2324       99299.00    439376.80
  218.13        2963.00           2328      122229.00    542741.80
  218.16        2963.25           2331      140987.00    627848.60
  218.19        2963.50           2335      167516.00    749070.00
  218.22        2963.75           2339      192806.00    865579.90
  218.25        2964.00           2342      211910.00    954216.80
  218.28        2964.25           2346      234908.00   1061646.00
  218.31        2964.50           2349      252526.00   1144488.00
  218.34        2964.75           2353      276699.00   1258934.00
  218.37        2965.00           2356      294638.00   1344457.00
  218.40        2965.25           2360      319561.00   1464128.00
  218.43        2965.50           2363      335449.00   1540941.00
  218.47        2965.75           2367      355621.00   1639064.00
  218.50        2966.00           2370      372753.00   1722931.00
  218.53        2966.25           2374      394592.00   1830562.00
  218.56        2966.50           2378      409824.00   1906115.00
  218.59        2966.75           2381      413310.00   1923463.00
  218.62        2967.00           2385      416101.00   1937368.00
  218.65        2967.25           2388      416675.00   1940229.00
  218.68        2967.50           2392      416213.00   1937926.00
  218.71        2967.75           2395      414463.00   1929206.00
  218.74        2968.00           2399      409704.00   1905519.00
  218.77        2968.25           2402      400222.00   1858441.00
  218.80        2968.50           2406      380883.00   1762904.00
  218.83        2968.75           2409      363316.00   1676673.00
  218.86        2969.00           2413      337747.00   1552085.00
  218.89        2969.25           2417      313247.00   1433716.00
  218.92        2969.50           2420      297087.00   1356172.00
  218.95        2969.75           2424      274227.00   1247188.00
  218.99        2970.00           2427      255106.00   1156660.00
  219.02        2970.25           2431      226956.00   1024410.00
  219.05        2970.50           2434      208654.00    939071.40
  219.08        2970.75           2438      184806.00    828622.90
  219.11        2971.00           2441      166826.00    745904.20
  219.14        2971.25           2445      141562.00    630465.40
  219.17        2971.50           2449      114726.00    508838.70
  219.20        2971.75           2452       96032.00    424709.10
  219.23        2972.00           2456       70529.00    310712.90
  219.26        2972.25           2459       51835.00    227713.10
  219.29        2972.50           2463       28674.00    125528.10
  219.32        2972.75           2466       14710.00     64261.88
  219.35        2973.00           2470        5247.00     22888.34
  219.38        2973.25           2473        3016.00     13151.04
  219.41        2973.50           2477        2325.00     10136.45
  219.44        2973.75           2481        2200.00      9591.18
  219.47        2974.00           2484        2152.00      9381.81
  219.51        2974.25           2488        2089.00      9107.01
  219.54        2974.50           2491        2041.00      8897.64
  219.57        2974.75           2495        2023.00      8819.12
  219.60        2975.00           2498        2003.00      8731.89
  219.63        2975.25           2502        1996.00      8701.35
  219.66        2975.50           2505        1954.00      8518.16
  219.69        2975.75           2509        1918.00      8361.14
  219.72        2976.00           2512        1939.00      8452.73
  219.75        2976.25           2516        1922.00      8378.59
  219.78        2976.50           2520        1843.00      8034.02
  219.81        2976.75           2523        1838.00      8012.21
  219.84        2977.00           2527        1826.00      7959.87
  219.87        2977.25           2530        1802.00      7855.19
  219.90        2977.50           2534        1797.00      7833.39
  219.93        2977.75           2537        1731.00      7545.53
  219.96        2978.00           2541        1732.00      7549.89
  219.99        2978.25           2544        1739.00      7580.42
  220.03        2978.50           2548        1744.00      7602.23
  220.06        2978.75           2552        1725.00      7519.36
  220.09        2979.00           2555        1711.00      7458.30
  220.12        2979.25           2559        1664.00      7253.31
  220.15        2979.50           2562        1706.00      7436.49
  220.18        2979.75           2566        1721.00      7501.91
  220.21        2980.00           2569        1662.00      7244.59
  220.24        2980.25           2573        1665.00      7257.68
  220.27        2980.50           2577        1601.00      6978.55
  220.30        2980.75           2580        1618.00      7052.69
  220.33        2981.00           2584        1622.00      7070.14
  220.36        2981.25           2587        1576.00      6869.52
  220.39        2981.50           2591        1600.00      6974.19
  220.42        2981.75           2594        1626.00      7087.58
  220.45        2982.00           2598        1589.00      6926.22
  220.48        2982.25           2601        1583.00      6900.05
  220.51        2982.50           2605        1584.00      6904.41
  220.54        2982.75           2609        1623.00      7074.50
  220.58        2983.00           2612        1590.00      6930.58
  220.61        2983.25           2616        1601.00      6978.55
  220.64        2983.50           2619        1554.00      6773.57
  220.67        2983.75           2623        1546.00      6738.68
  220.70        2984.00           2626        1588.00      6921.86
HS scan finished at 03:40:55
end
************************************************************
  HS Scan of (1) Internal mercury lamp
************************************************************
Integration time is 0.2294 seconds per sample
dh120319Reading 51.44 .94 2.7pr1000
************************************************************
Dead Time -------------------------  3.4E-08 
Number of Cycles Used -------------  4 
Starting Wavelength (Angstroms) ---  2950 
Final Wavelength (Angstoms) -------  2984 
Wavelength Increment (Angstroms) --  .25 
Filter Wheel #1 Position ---------- (1) Ground quartz diffuser (ND=2.32)
Filter Wheel #2 Position ---------- (1) Neutral Density 0.494



************************************************************
HS scan start time = 19:07:25
Dark Count =  .3 


Time (GMT)  Wavelength (Ang)  Step Number  Raw Counts  Counts/Second

 1148.32        2950.00           2144        1643.00      7162.60
 1148.51        2950.25           2147        1644.00      7166.96
 1148.54        2950.50           2151        1618.00      7053.57
 1148.57        2950.75           2155        1636.00      7132.07
 1148.60        2951.00           2158        1601.00      6979.42
 1148.63        2951.25           2162        1652.00      7201.85
 1148.66        2951.50           2165        1659.00      7232.38
 1148.69        2951.75           2169        1639.00      7145.15
 1148.72        2952.00           2172        1698.00      7402.47
 1148.75        2952.25           2176        1658.00      7228.02
 1148.78        2952.50           2179        1704.00      7428.64
 1148.82        2952.75           2183        1658.00      7228.02
 1148.85        2953.00           2186        1685.00      7345.78
 1148.88        2953.25           2190        1668.00      7271.63
 1148.91        2953.50           2193        1668.00      7271.63
 1148.94        2953.75           2197        1712.00      7463.53
 1148.97        2954.00           2200        1641.00      7153.88
 1149.00        2954.25           2204        1677.00      7310.88
 1149.03        2954.50           2208        1703.00      7424.28
 1149.06        2954.75           2211        1689.00      7363.22
 1149.09        2955.00           2215        1713.00      7467.89
 1149.12        2955.25           2218        1719.00      7494.06
 1149.15        2955.50           2222        1720.00      7498.42
 1149.18        2955.75           2225        1753.00      7642.35
 1149.21        2956.00           2229        1729.00      7537.68
 1149.24        2956.25           2232        1799.00      7842.98
 1149.27        2956.50           2236        1770.00      7716.50
 1149.30        2956.75           2239        1773.00      7729.58
 1149.34        2957.00           2243        1805.00      7869.15
 1149.37        2957.25           2246        1800.00      7847.34
 1149.40        2957.50           2250        1797.00      7834.26
 1149.43        2957.75           2254        1809.00      7886.60
 1149.46        2958.00           2257        1833.00      7991.27
 1149.49        2958.25           2261        1885.00      8218.08
 1149.52        2958.50           2264        1892.00      8248.61
 1149.55        2958.75           2268        1899.00      8279.14
 1149.58        2959.00           2271        1909.00      8322.76
 1149.61        2959.25           2275        1949.00      8497.22
 1149.64        2959.50           2278        1933.00      8427.44
 1149.67        2959.75           2282        1996.00      8702.23
 1149.70        2960.00           2285        2013.00      8776.38
 1149.73        2960.25           2289        1992.00      8684.78
 1149.76        2960.50           2293        2036.00      8876.70
 1149.79        2960.75           2296        2108.00      9190.75
 1149.82        2961.00           2300        2168.00      9452.47
 1149.86        2961.25           2303        2429.00     10591.00
 1149.89        2961.50           2307        5212.00     22736.40
 1149.92        2961.75           2310       13051.00     57000.95
 1149.95        2962.00           2314       29475.00    129051.10
 1149.98        2962.25           2317       43820.00    192271.60
 1150.01        2962.50           2321       65479.00    288245.80
 1150.04        2962.75           2324       83299.00    367683.40
 1150.07        2963.00           2328      108103.00    478978.20
 1150.10        2963.25           2331      125771.00    558775.00
 1150.13        2963.50           2335      147650.00    658200.50
 1150.16        2963.75           2339      168150.00    751980.30
 1150.19        2964.00           2342      186222.00    835158.40
 1150.22        2964.25           2346      210798.00    949043.40
 1150.25        2964.50           2349      229100.00   1034441.00
 1150.28        2964.75           2353      250783.00   1136272.00
 1150.31        2965.00           2356      266121.00   1208742.00
 1150.34        2965.25           2360      287979.00   1312652.00
 1150.38        2965.50           2363      303565.00   1387207.00
 1150.41        2965.75           2367      323021.00   1480822.00
 1150.44        2966.00           2370      337834.00   1552508.00
 1150.47        2966.25           2374      358785.00   1654517.00
 1150.50        2966.50           2378      376441.00   1741051.00
 1150.53        2966.75           2381      382831.00   1772499.00
 1150.56        2967.00           2385      385355.00   1784940.00
 1150.59        2967.25           2388      385808.00   1787174.00
 1150.62        2967.50           2392      386401.00   1790099.00
 1150.65        2967.75           2395      385767.00   1786972.00
 1150.68        2968.00           2399      383640.00   1776486.00
 1150.71        2968.25           2402      375867.00   1738230.00
 1150.74        2968.50           2406      359189.00   1656491.00
 1150.77        2968.75           2409      345027.00   1587448.00
 1150.80        2969.00           2413      324573.00   1488316.00
 1150.83        2969.25           2417      303566.00   1387212.00
 1150.86        2969.50           2420      286693.00   1306518.00
 1150.90        2969.75           2424      263158.00   1194714.00
 1150.93        2970.00           2427      246176.00   1114576.00
 1150.96        2970.25           2431      222570.00   1003914.00
 1150.99        2970.50           2434      205706.00    925373.40
 1151.02        2970.75           2438      182599.00    818444.90
 1151.05        2971.00           2441      166140.00    742758.50
 1151.08        2971.25           2445      142855.00    636352.10
 1151.11        2971.50           2449      116756.00    518004.50
 1151.14        2971.75           2452       96731.00    427847.10
 1151.17        2972.00           2456       73251.00    322838.60
 1151.20        2972.25           2459       56646.00    249029.50
 1151.23        2972.50           2463       36266.00    158946.00
 1151.26        2972.75           2466       21828.00     95460.59
 1151.29        2973.00           2470        7827.00     34157.79
 1151.32        2973.25           2473        3711.00     16184.58
 1151.35        2973.50           2477        2345.00     10224.57
 1151.38        2973.75           2481        2132.00      9295.44
 1151.41        2974.00           2484        2089.00      9107.88
 1151.45        2974.25           2488        2025.00      8828.72
 1151.48        2974.50           2491        2030.00      8850.53
 1151.51        2974.75           2495        1976.00      8614.99
 1151.54        2975.00           2498        1951.00      8505.95
 1151.57        2975.25           2502        1971.00      8593.18
 1151.60        2975.50           2505        1916.00      8353.29
 1151.63        2975.75           2509        1881.00      8200.63
 1151.66        2976.00           2512        1860.00      8109.04
 1151.69        2976.25           2516        1818.00      7925.85
 1151.72        2976.50           2520        1827.00      7965.10
 1151.75        2976.75           2523        1826.00      7960.74
 1151.78        2977.00           2527        1786.00      7786.28
 1151.81        2977.25           2530        1767.00      7703.41
 1151.84        2977.50           2534        1758.00      7664.16
 1151.87        2977.75           2537        1756.00      7655.44
 1151.90        2978.00           2541        1757.00      7659.80
 1151.93        2978.25           2544        1728.00      7533.32
 1151.97        2978.50           2548        1742.00      7594.38
 1152.00        2978.75           2552        1715.00      7476.62
 1152.03        2979.00           2555        1650.00      7193.13
 1152.06        2979.25           2559        1703.00      7424.28
 1152.09        2979.50           2562        1651.00      7197.49
 1152.12        2979.75           2566        1612.00      7027.40
 1152.15        2980.00           2569        1626.00      7088.46
 1152.18        2980.25           2573        1650.00      7193.13
 1152.21        2980.50           2577        1583.00      6900.92
 1152.24        2980.75           2580        1607.00      7005.59
 1152.27        2981.00           2584        1611.00      7023.04
 1152.30        2981.25           2587        1596.00      6957.62
 1152.33        2981.50           2591        1588.00      6922.73
 1152.36        2981.75           2594        1604.00      6992.51
 1152.39        2982.00           2598        1579.00      6883.48
 1152.42        2982.25           2601        1596.00      6957.62
 1152.45        2982.50           2605        1548.00      6748.28
 1152.49        2982.75           2609        1549.00      6752.64
 1152.52        2983.00           2612        1519.00      6621.80
 1152.55        2983.25           2616        1514.00      6600.00
 1152.58        2983.50           2619        1566.00      6826.78
 1152.61        2983.75           2623        1521.00      6630.53
 1152.64        2984.00           2626        1522.00      6634.89
HS scan finished at 19:12:52
end
