************************************************************
  HS Scan of 
************************************************************
Integration time is 0.2294 seconds per sample
dh120317Reading 51.44 .94 3.17pr1000
************************************************************
Dead Time -------------------------  3.4E-08 
Number of Cycles Used -------------  4 
Starting Wavelength (Angstroms) ---  2950 
Final Wavelength (Angstoms) -------  2984 
Wavelength Increment (Angstroms) --  .25 
Filter Wheel #1 Position ---------- (1) Ground quartz diffuser (ND=2.32)
Filter Wheel #2 Position ---------- (1) Neutral Density 0.494



************************************************************
HS scan start time = 19:07:26
Dark Count =  1.5 


Time (GMT)  Wavelength (Ang)  Step Number  Raw Counts  Counts/Second

 1148.33        2950.00           2144         736.00      3202.18
 1148.52        2950.25           2147         765.00      3328.62
 1148.55        2950.50           2151         744.00      3237.06
 1148.58        2950.75           2155         739.00      3215.26
 1148.61        2951.00           2158         748.00      3254.50
 1148.64        2951.25           2162         742.00      3228.34
 1148.67        2951.50           2165         749.00      3258.86
 1148.71        2951.75           2169         745.00      3241.42
 1148.74        2952.00           2172         743.00      3232.70
 1148.77        2952.25           2176         776.00      3376.59
 1148.80        2952.50           2179         744.00      3237.06
 1148.83        2952.75           2183         744.00      3237.06
 1148.86        2953.00           2186         772.00      3359.15
 1148.89        2953.25           2190         780.00      3394.03
 1148.92        2953.50           2193         779.00      3389.67
 1148.95        2953.75           2197         779.00      3389.67
 1148.98        2954.00           2200         763.00      3319.90
 1149.01        2954.25           2204         771.00      3354.79
 1149.04        2954.50           2208         765.00      3328.62
 1149.07        2954.75           2211         798.00      3472.51
 1149.10        2955.00           2215         797.00      3468.15
 1149.13        2955.25           2218         781.00      3398.39
 1149.16        2955.50           2222         801.00      3485.59
 1149.19        2955.75           2225         793.00      3450.71
 1149.22        2956.00           2229         833.00      3625.12
 1149.26        2956.25           2232         830.00      3612.04
 1149.29        2956.50           2236         851.00      3703.60
 1149.32        2956.75           2239         821.00      3572.80
 1149.35        2957.00           2243         845.00      3677.44
 1149.38        2957.25           2246         845.00      3677.44
 1149.41        2957.50           2250         856.00      3725.41
 1149.44        2957.75           2254         844.00      3673.08
 1149.47        2958.00           2257         869.00      3782.09
 1149.50        2958.25           2261         855.00      3721.05
 1149.53        2958.50           2264         871.00      3790.81
 1149.56        2958.75           2268         861.00      3747.21
 1149.60        2959.00           2271         875.00      3808.25
 1149.64        2959.25           2275         893.00      3886.74
 1149.67        2959.50           2278         918.00      3995.75
 1149.70        2959.75           2282         961.00      4183.25
 1149.73        2960.00           2285         915.00      3982.67
 1149.76        2960.25           2289         981.00      4270.45
 1149.79        2960.50           2293         964.00      4196.33
 1149.82        2960.75           2296         996.00      4335.86
 1149.85        2961.00           2300        1101.00      4793.72
 1149.88        2961.25           2303        1590.00      6926.22
 1149.91        2961.50           2307        5762.00     25132.63
 1149.94        2961.75           2310       12649.00     55236.60
 1149.97        2962.00           2314       23042.00    100782.90
 1150.00        2962.25           2317       30668.00    134293.10
 1150.04        2962.50           2321       41584.00    182394.00
 1150.07        2962.75           2324       50239.00    220644.30
 1150.10        2963.00           2328       62717.00    275966.50
 1150.13        2963.25           2331       72177.00    318048.00
 1150.16        2963.50           2335       83760.00    369738.80
 1150.19        2963.75           2339       94413.00    417441.30
 1150.22        2964.00           2342      103797.00    459591.00
 1150.25        2964.25           2346      116098.00    515027.80
 1150.28        2964.50           2349      125174.00    556066.10
 1150.31        2964.75           2353      136544.00    607640.70
 1150.34        2965.00           2356      145001.00    646120.90
 1150.37        2965.25           2360      155567.00    694340.60
 1150.40        2965.50           2363      163922.00    732583.60
 1150.43        2965.75           2367      175231.00    784509.00
 1150.46        2966.00           2370      182784.00    819292.40
 1150.49        2966.25           2374      193296.00    867841.90
 1150.53        2966.50           2378      199928.00    898555.80
 1150.56        2966.75           2381      201097.00    903976.40
 1150.59        2967.00           2385      201973.00    908039.70
 1150.62        2967.25           2388      201810.00    907283.40
 1150.65        2967.50           2392      201913.00    907761.30
 1150.68        2967.75           2395      201543.00    906045.00
 1150.71        2968.00           2399      198034.00    889777.80
 1150.74        2968.25           2402      191838.00    861098.60
 1150.77        2968.50           2406      181149.00    811755.70
 1150.80        2968.75           2409      173353.00    775873.10
 1150.83        2969.00           2413      162612.00    726580.80
 1150.86        2969.25           2417      151773.00    677007.60
 1150.89        2969.50           2420      143337.00    638541.40
 1150.92        2969.75           2424      130186.00    578778.10
 1150.95        2970.00           2427      121461.00    539263.30
 1150.98        2970.25           2431      109231.00    484054.40
 1151.01        2970.50           2434       99782.00    441542.10
 1151.05        2970.75           2438       87232.00    385268.80
 1151.08        2971.00           2441       78601.00    346693.50
 1151.11        2971.25           2445       66554.00    293020.30
 1151.14        2971.50           2449       53272.00    234072.10
 1151.17        2971.75           2452       43640.00    191471.30
 1151.20        2972.00           2456       31922.00    139810.80
 1151.23        2972.25           2459       23864.00    104391.20
 1151.26        2972.50           2463       13960.00     60974.15
 1151.29        2972.75           2466        7495.00     32701.99
 1151.32        2973.00           2470        2380.00     10372.01
 1151.35        2973.25           2473        1297.00      5648.43
 1151.38        2973.50           2477        1040.00      4527.72
 1151.41        2973.75           2481         997.00      4340.22
 1151.44        2974.00           2484         991.00      4314.06
 1151.47        2974.25           2488         972.00      4231.21
 1151.50        2974.50           2491         969.00      4218.13
 1151.53        2974.75           2495         924.00      4021.91
 1151.57        2975.00           2498         920.00      4004.47
 1151.60        2975.25           2502         905.00      3939.06
 1151.63        2975.50           2505         903.00      3930.34
 1151.66        2975.75           2509         892.00      3882.38
 1151.69        2976.00           2512         898.00      3908.54
 1151.72        2976.25           2516         862.00      3751.57
 1151.75        2976.50           2520         877.00      3816.97
 1151.78        2976.75           2523         840.00      3655.64
 1151.81        2977.00           2527         820.00      3568.44
 1151.84        2977.25           2530         837.00      3642.56
 1151.87        2977.50           2534         851.00      3703.60
 1151.90        2977.75           2537         818.00      3559.72
 1151.93        2978.00           2541         823.00      3581.52
 1151.96        2978.25           2544         791.00      3441.99
 1151.99        2978.50           2548         793.00      3450.71
 1152.02        2978.75           2552         808.00      3516.11
 1152.05        2979.00           2555         769.00      3346.07
 1152.08        2979.25           2559         775.00      3372.23
 1152.12        2979.50           2562         770.00      3350.43
 1152.15        2979.75           2566         785.00      3415.83
 1152.18        2980.00           2569         741.00      3223.98
 1152.21        2980.25           2573         774.00      3367.87
 1152.24        2980.50           2577         763.00      3319.90
 1152.27        2980.75           2580         746.00      3245.78
 1152.30        2981.00           2584         725.00      3154.22
 1152.33        2981.25           2587         758.00      3298.10
 1152.36        2981.50           2591         756.00      3289.38
 1152.39        2981.75           2594         746.00      3245.78
 1152.42        2982.00           2598         723.00      3145.50
 1152.45        2982.25           2601         740.00      3219.62
 1152.48        2982.50           2605         683.00      2971.09
 1152.51        2982.75           2609         719.00      3128.06
 1152.54        2983.00           2612         685.00      2979.81
 1152.57        2983.25           2616         701.00      3049.58
 1152.60        2983.50           2619         708.00      3080.10
 1152.64        2983.75           2623         720.00      3132.42
 1152.67        2984.00           2626         713.00      3101.90
HS scan finished at 19:12:53
end
