************************************************************
  HS Scan of (1) Internal mercury lamp
************************************************************
Integration time is 0.2294 seconds per sample
dh110318Reading 51.44 .94 2.88pr1000
************************************************************
Dead Time -------------------------  3.4E-08 
Number of Cycles Used -------------  4 
Starting Wavelength (Angstroms) ---  2950 
Final Wavelength (Angstoms) -------  2984 
Wavelength Increment (Angstroms) --  .25 
Filter Wheel #1 Position ---------- (1) Ground quartz diffuser (ND=2.32)
Filter Wheel #2 Position ---------- (1) Neutral Density 0.494



************************************************************
HS scan start time = 03:38:41
Dark Count =  .7 


Time (GMT)  Wavelength (Ang)  Step Number  Raw Counts  Counts/Second

  219.59        2950.00           2144          80.00       345.69
  219.78        2950.25           2147          82.00       354.41
  219.81        2950.50           2151          80.00       345.69
  219.84        2950.75           2155          80.00       345.69
  219.87        2951.00           2158          86.00       371.84
  219.90        2951.25           2162          84.00       363.13
  219.93        2951.50           2165          80.00       345.69
  219.96        2951.75           2169          87.00       376.20
  219.99        2952.00           2172          84.00       363.13
  220.02        2952.25           2176          80.00       345.69
  220.06        2952.50           2179          80.00       345.69
  220.09        2952.75           2183          79.00       341.33
  220.12        2953.00           2186          86.00       371.84
  220.15        2953.25           2190          83.00       358.77
  220.18        2953.50           2193          88.00       380.56
  220.21        2953.75           2197          89.00       384.92
  220.24        2954.00           2200          84.00       363.13
  220.27        2954.25           2204          96.00       415.44
  220.30        2954.50           2208          84.00       363.13
  220.33        2954.75           2211          91.00       393.64
  220.36        2955.00           2215          90.00       389.28
  220.39        2955.25           2218          77.00       332.61
  220.42        2955.50           2222          95.00       411.08
  220.45        2955.75           2225          82.00       354.41
  220.48        2956.00           2229          86.00       371.84
  220.51        2956.25           2232          91.00       393.64
  220.55        2956.50           2236          94.00       406.72
  220.58        2956.75           2239          90.00       389.28
  220.61        2957.00           2243         119.00       515.70
  220.64        2957.25           2246         103.00       445.95
  220.67        2957.50           2250          94.00       406.72
  220.70        2957.75           2254         101.00       437.23
  220.73        2958.00           2257         100.00       432.87
  220.76        2958.25           2261         103.00       445.95
  220.79        2958.50           2264         111.00       480.83
  220.82        2958.75           2268         123.00       533.14
  220.85        2959.00           2271         121.00       524.42
  220.88        2959.25           2275          90.00       389.28
  220.91        2959.50           2278         110.00       476.47
  220.94        2959.75           2282          95.00       411.08
  220.97        2960.00           2285         107.00       463.39
  221.00        2960.25           2289         130.00       563.66
  221.03        2960.50           2293         105.00       454.67
  221.07        2960.75           2296         138.00       598.53
  221.11        2961.00           2300         162.00       703.16
  221.14        2961.25           2303         299.00      1300.41
  221.17        2961.50           2307        1088.00      4740.52
  221.20        2961.75           2310        2030.00      8848.78
  221.23        2962.00           2314        3438.00     14991.51
  221.26        2962.25           2317        4479.00     19534.76
  221.29        2962.50           2321        5972.00     26053.15
  221.32        2962.75           2324        7017.00     30617.30
  221.35        2963.00           2328        8537.00     37258.59
  221.38        2963.25           2331        9669.00     42206.56
  221.41        2963.50           2335       11223.00     49001.80
  221.44        2963.75           2339       12857.00     56150.25
  221.48        2964.00           2342       14347.00     62671.77
  221.51        2964.25           2346       15946.00     69673.57
  221.54        2964.50           2349       17159.00     74987.38
  221.57        2964.75           2353       18615.00     81368.21
  221.60        2965.00           2356       19856.00     86809.03
  221.63        2965.25           2360       21315.00     93208.18
  221.66        2965.50           2363       22527.00     98526.11
  221.69        2965.75           2367       23991.00    104952.30
  221.72        2966.00           2370       25246.00    110463.40
  221.75        2966.25           2374       26611.00    116459.80
  221.78        2966.50           2378       27456.00    120173.10
  221.81        2966.75           2381       27524.00    120472.00
  221.84        2967.00           2385       27484.00    120296.20
  221.87        2967.25           2388       27586.00    120744.50
  221.90        2967.50           2392       27606.00    120832.40
  221.93        2967.75           2395       27347.00    119694.10
  221.96        2968.00           2399       26531.00    116108.30
  222.00        2968.25           2402       25647.00    112224.70
  222.03        2968.50           2406       24176.00    105764.60
  222.06        2968.75           2409       22888.00    100110.40
  222.09        2969.00           2413       21146.00     92466.80
  222.12        2969.25           2417       19440.00     84984.97
  222.15        2969.50           2420       18392.00     80390.75
  222.18        2969.75           2424       16673.00     72858.12
  222.21        2970.00           2427       15445.00     67479.40
  222.24        2970.25           2431       13744.00     60032.17
  222.27        2970.50           2434       12497.00     54575.02
  222.30        2970.75           2438       10802.00     47160.57
  222.33        2971.00           2441        9637.00     42066.67
  222.36        2971.25           2445        8040.00     35086.73
  222.39        2971.50           2449        6448.00     28131.95
  222.42        2971.75           2452        5335.00     23271.68
  222.45        2972.00           2456        4063.00     17719.04
  222.48        2972.25           2459        2847.00     12412.82
  222.52        2972.50           2463        1397.00      6088.01
  222.55        2972.75           2466         577.00      2512.42
  222.58        2973.00           2470         186.00       807.78
  222.61        2973.25           2473         147.00       637.76
  222.64        2973.50           2477         154.00       668.28
  222.67        2973.75           2481         138.00       598.53
  222.70        2974.00           2484         112.00       485.19
  222.73        2974.25           2488         111.00       480.83
  222.76        2974.50           2491         110.00       476.47
  222.79        2974.75           2495         127.00       550.58
  222.82        2975.00           2498         108.00       467.75
  222.85        2975.25           2502         107.00       463.39
  222.88        2975.50           2505         108.00       467.75
  222.91        2975.75           2509         100.00       432.87
  222.94        2976.00           2512         101.00       437.23
  222.97        2976.25           2516          97.00       419.80
  223.00        2976.50           2520         104.00       450.31
  223.04        2976.75           2523         116.00       502.62
  223.07        2977.00           2527          95.00       411.08
  223.10        2977.25           2530          94.00       406.72
  223.13        2977.50           2534          91.00       393.64
  223.16        2977.75           2537          99.00       428.52
  223.19        2978.00           2541          90.00       389.28
  223.22        2978.25           2544          97.00       419.80
  223.25        2978.50           2548          90.00       389.28
  223.28        2978.75           2552          96.00       415.44
  223.31        2979.00           2555          89.00       384.92
  223.34        2979.25           2559          76.00       328.25
  223.37        2979.50           2562          86.00       371.84
  223.40        2979.75           2566          86.00       371.84
  223.43        2980.00           2569          89.00       384.92
  223.46        2980.25           2573          90.00       389.28
  223.49        2980.50           2577          81.00       350.05
  223.52        2980.75           2580          86.00       371.84
  223.55        2981.00           2584          84.00       363.13
  223.59        2981.25           2587          89.00       384.92
  223.62        2981.50           2591          82.00       354.41
  223.65        2981.75           2594          79.00       341.33
  223.68        2982.00           2598          81.00       350.05
  223.71        2982.25           2601          82.00       354.41
  223.74        2982.50           2605          77.00       332.61
  223.77        2982.75           2609          76.00       328.25
  223.80        2983.00           2612          78.00       336.97
  223.83        2983.25           2616          86.00       371.84
  223.86        2983.50           2619         104.00       450.31
  223.89        2983.75           2623          74.00       319.53
  223.92        2984.00           2626          87.00       376.20
HS scan finished at 03:44:09
end
************************************************************
  HS Scan of (1) Internal mercury lamp
************************************************************
Integration time is 0.2294 seconds per sample
dh110318Reading 51.44 .94 3.11pr1000
************************************************************
Dead Time -------------------------  3.4E-08 
Number of Cycles Used -------------  4 
Starting Wavelength (Angstroms) ---  2950 
Final Wavelength (Angstoms) -------  2984 
Wavelength Increment (Angstroms) --  .25 
Filter Wheel #1 Position ---------- (1) Ground quartz diffuser (ND=2.32)
Filter Wheel #2 Position ---------- (1) Neutral Density 0.494



************************************************************
HS scan start time = 19:07:27
Dark Count =  1.3 


Time (GMT)  Wavelength (Ang)  Step Number  Raw Counts  Counts/Second

 1148.35        2950.00           2144          66.00       282.04
 1148.54        2950.25           2147          61.00       260.25
 1148.57        2950.50           2151          65.00       277.68
 1148.60        2950.75           2155          68.00       290.76
 1148.64        2951.00           2158          77.00       329.99
 1148.67        2951.25           2162          61.00       260.25
 1148.70        2951.50           2165          65.00       277.68
 1148.73        2951.75           2169          61.00       260.25
 1148.76        2952.00           2172          64.00       273.32
 1148.79        2952.25           2176          69.00       295.12
 1148.82        2952.50           2179          64.00       273.32
 1148.85        2952.75           2183          66.00       282.04
 1148.88        2953.00           2186          64.00       273.32
 1148.91        2953.25           2190          67.00       286.40
 1148.94        2953.50           2193          70.00       299.48
 1148.97        2953.75           2197          67.00       286.40
 1149.00        2954.00           2200          69.00       295.12
 1149.03        2954.25           2204          75.00       321.28
 1149.06        2954.50           2208          63.00       268.97
 1149.09        2954.75           2211          61.00       260.25
 1149.12        2955.00           2215          75.00       321.28
 1149.16        2955.25           2218          72.00       308.20
 1149.19        2955.50           2222          77.00       329.99
 1149.22        2955.75           2225          68.00       290.76
 1149.25        2956.00           2229          75.00       321.28
 1149.28        2956.25           2232          76.00       325.64
 1149.31        2956.50           2236          77.00       329.99
 1149.34        2956.75           2239          75.00       321.28
 1149.37        2957.00           2243          77.00       329.99
 1149.40        2957.25           2246          73.00       312.56
 1149.43        2957.50           2250          76.00       325.64
 1149.46        2957.75           2254          79.00       338.71
 1149.49        2958.00           2257          72.00       308.20
 1149.52        2958.25           2261          75.00       321.28
 1149.55        2958.50           2264          83.00       356.15
 1149.58        2958.75           2268          85.00       364.87
 1149.61        2959.00           2271          84.00       360.51
 1149.64        2959.25           2275          79.00       338.71
 1149.68        2959.50           2278          78.00       334.35
 1149.71        2959.75           2282          91.00       391.03
 1149.74        2960.00           2285          86.00       369.23
 1149.77        2960.25           2289          89.00       382.31
 1149.80        2960.50           2293          92.00       395.38
 1149.83        2960.75           2296         103.00       443.34
 1149.86        2961.00           2300         113.00       486.93
 1149.89        2961.25           2303         213.00       922.87
 1149.92        2961.50           2307         867.00      3774.24
 1149.95        2961.75           2310        1616.00      7040.48
 1149.98        2962.00           2314        2712.00     11821.23
 1150.01        2962.25           2317        3601.00     15700.18
 1150.04        2962.50           2321        4832.00     21073.07
 1150.07        2962.75           2324        5766.00     25150.97
 1150.10        2963.00           2328        7064.00     30819.99
 1150.13        2963.25           2331        8191.00     35743.94
 1150.16        2963.50           2335        9596.00     41884.81
 1150.20        2963.75           2339       10725.00     46821.21
 1150.23        2964.00           2342       11794.00     51496.80
 1150.26        2964.25           2346       13140.00     57386.05
 1150.29        2964.50           2349       14220.00     62113.17
 1150.32        2964.75           2353       15605.00     68177.48
 1150.35        2965.00           2356       16517.00     72172.09
 1150.38        2965.25           2360       17656.00     77162.50
 1150.41        2965.50           2363       18489.00     80813.28
 1150.44        2965.75           2367       19696.00     86104.80
 1150.47        2966.00           2370       20422.00     89288.53
 1150.50        2966.25           2374       21881.00     95688.75
 1150.53        2966.50           2378       22490.00     98361.09
 1150.56        2966.75           2381       22811.00     99769.86
 1150.59        2967.00           2385       22760.00     99546.03
 1150.62        2967.25           2388       22813.00     99778.62
 1150.65        2967.50           2392       22881.00    100077.10
 1150.68        2967.75           2395       22719.00     99366.09
 1150.72        2968.00           2399       22221.00     97180.64
 1150.75        2968.25           2402       21299.00     93135.34
 1150.78        2968.50           2406       20106.00     87902.69
 1150.81        2968.75           2409       19231.00     84066.01
 1150.84        2969.00           2413       17970.00     78538.56
 1150.87        2969.25           2417       16580.00     72448.08
 1150.90        2969.50           2420       15535.00     67870.91
 1150.93        2969.75           2424       14307.00     62494.03
 1150.96        2970.00           2427       13184.00     57578.61
 1150.99        2970.25           2431       11720.00     51173.09
 1151.02        2970.50           2434       10586.00     46213.36
 1151.05        2970.75           2438        9170.00     40022.61
 1151.08        2971.00           2441        8115.00     35411.84
 1151.11        2971.25           2445        6819.00     29749.78
 1151.14        2971.50           2449        5505.00     24011.31
 1151.17        2971.75           2452        4443.00     19375.01
 1151.20        2972.00           2456        3231.00     14085.65
 1151.24        2972.25           2459        2323.00     10124.23
 1151.27        2972.50           2463        1190.00      5182.69
 1151.30        2972.75           2466         561.00      2440.05
 1151.33        2973.00           2470         186.00       805.17
 1151.36        2973.25           2473         121.00       521.81
 1151.39        2973.50           2477          99.00       425.90
 1151.42        2973.75           2481          96.00       412.82
 1151.45        2974.00           2484          91.00       391.03
 1151.48        2974.25           2488          89.00       382.31
 1151.51        2974.50           2491          87.00       373.59
 1151.54        2974.75           2495          82.00       351.79
 1151.57        2975.00           2498          79.00       338.71
 1151.60        2975.25           2502          85.00       364.87
 1151.63        2975.50           2505          84.00       360.51
 1151.66        2975.75           2509          81.00       347.43
 1151.69        2976.00           2512          74.00       316.92
 1151.72        2976.25           2516          77.00       329.99
 1151.75        2976.50           2520          81.00       347.43
 1151.79        2976.75           2523          74.00       316.92
 1151.82        2977.00           2527          73.00       312.56
 1151.85        2977.25           2530          79.00       338.71
 1151.88        2977.50           2534          77.00       329.99
 1151.91        2977.75           2537          73.00       312.56
 1151.94        2978.00           2541          72.00       308.20
 1151.97        2978.25           2544          66.00       282.04
 1152.00        2978.50           2548          76.00       325.64
 1152.03        2978.75           2552          60.00       255.89
 1152.06        2979.00           2555          71.00       303.84
 1152.09        2979.25           2559          60.00       255.89
 1152.12        2979.50           2562          69.00       295.12
 1152.15        2979.75           2566          68.00       290.76
 1152.18        2980.00           2569          63.00       268.97
 1152.21        2980.25           2573          67.00       286.40
 1152.24        2980.50           2577          60.00       255.89
 1152.27        2980.75           2580          65.00       277.68
 1152.31        2981.00           2584          62.00       264.61
 1152.34        2981.25           2587          65.00       277.68
 1152.37        2981.50           2591          58.00       247.17
 1152.40        2981.75           2594          60.00       255.89
 1152.43        2982.00           2598          66.00       282.04
 1152.46        2982.25           2601          66.00       282.04
 1152.49        2982.50           2605          59.00       251.53
 1152.52        2982.75           2609          65.00       277.68
 1152.55        2983.00           2612          61.00       260.25
 1152.58        2983.25           2616          66.00       282.04
 1152.61        2983.50           2619          59.00       251.53
 1152.64        2983.75           2623          70.00       299.48
 1152.67        2984.00           2626          55.00       234.09
HS scan finished at 19:12:54
end
