************************************************************
  HS Scan of (1) Internal mercury lamp
************************************************************
Integration time is 0.2294 seconds per sample
dh160318Reading 51.44 .94 2.92pr1000
************************************************************
Dead Time -------------------------  3.4E-08 
Number of Cycles Used -------------  4 
Starting Wavelength (Angstroms) ---  2950 
Final Wavelength (Angstoms) -------  2984 
Wavelength Increment (Angstroms) --  .25 
Filter Wheel #1 Position ---------- (1) Ground quartz diffuser (ND=2.32)
Filter Wheel #2 Position ---------- (1) Neutral Density 0.494



************************************************************
HS scan start time = 03:22:05
Dark Count =  .9 


Time (GMT)  Wavelength (Ang)  Step Number  Raw Counts  Counts/Second

  202.98        2950.00           2144         153.00       663.05
  203.17        2950.25           2147         136.00       588.94
  203.20        2950.50           2151         151.00       654.33
  203.23        2950.75           2155         142.00       615.10
  203.26        2951.00           2158         146.00       632.53
  203.29        2951.25           2162         145.00       628.17
  203.32        2951.50           2165         142.00       615.10
  203.35        2951.75           2169         146.00       632.53
  203.38        2952.00           2172         144.00       623.81
  203.41        2952.25           2176         145.00       628.17
  203.44        2952.50           2179         146.00       632.53
  203.47        2952.75           2183         155.00       671.77
  203.51        2953.00           2186         166.00       719.72
  203.54        2953.25           2190         146.00       632.53
  203.57        2953.50           2193         159.00       689.21
  203.60        2953.75           2197         155.00       671.77
  203.63        2954.00           2200         153.00       663.05
  203.66        2954.25           2204         173.00       750.24
  203.69        2954.50           2208         150.00       649.97
  203.72        2954.75           2211         152.00       658.69
  203.75        2955.00           2215         164.00       711.00
  203.78        2955.25           2218         166.00       719.72
  203.81        2955.50           2222         161.00       697.92
  203.84        2955.75           2225         158.00       684.85
  203.87        2956.00           2229         168.00       728.44
  203.90        2956.25           2232         154.00       667.41
  203.93        2956.50           2236         165.00       715.36
  203.96        2956.75           2239         177.00       767.67
  203.99        2957.00           2243         159.00       689.21
  204.03        2957.25           2246         163.00       706.64
  204.06        2957.50           2250         163.00       706.64
  204.09        2957.75           2254         169.00       732.80
  204.12        2958.00           2257         170.00       737.16
  204.15        2958.25           2261         172.00       745.88
  204.18        2958.50           2264         183.00       793.83
  204.21        2958.75           2268         182.00       789.47
  204.24        2959.00           2271         182.00       789.47
  204.27        2959.25           2275         190.00       824.35
  204.30        2959.50           2278         192.00       833.07
  204.33        2959.75           2282         200.00       867.94
  204.36        2960.00           2285         195.00       846.14
  204.39        2960.25           2289         195.00       846.14
  204.42        2960.50           2293         210.00       911.54
  204.45        2960.75           2296         224.00       972.57
  204.48        2961.00           2300         271.00      1177.47
  204.51        2961.25           2303         442.00      1922.97
  204.54        2961.50           2307        1605.00      6994.25
  204.58        2961.75           2310        3611.00     15745.57
  204.61        2962.00           2314        6731.00     29367.15
  204.64        2962.25           2317        9194.00     40129.26
  204.67        2962.50           2321       12387.00     54092.85
  204.70        2962.75           2324       14864.00     64934.40
  204.73        2963.00           2328       18127.00     79228.40
  204.76        2963.25           2331       20665.00     90356.06
  204.79        2963.50           2335       24050.00    105210.50
  204.82        2963.75           2339       27772.00    121561.10
  204.85        2964.00           2342       30818.00    134955.70
  204.88        2964.25           2346       34566.00    151454.00
  204.91        2964.50           2349       37180.00    162971.60
  204.94        2964.75           2353       40522.00    177710.00
  204.97        2965.00           2356       43171.00    189402.80
  205.00        2965.25           2360       46422.00    203765.60
  205.03        2965.50           2363       48702.00    213847.00
  205.06        2965.75           2367       52492.00    230620.40
  205.10        2966.00           2370       55102.00    242182.60
  205.13        2966.25           2374       58138.00    255643.60
  205.16        2966.50           2378       59882.00    263381.60
  205.19        2966.75           2381       60115.00    264415.80
  205.22        2967.00           2385       60352.00    265467.70
  205.25        2967.25           2388       60366.00    265529.90
  205.28        2967.50           2392       60184.00    264722.00
  205.31        2967.75           2395       59776.00    262911.20
  205.34        2968.00           2399       57803.00    254157.60
  205.37        2968.25           2402       55758.00    245090.10
  205.40        2968.50           2406       52586.00    231036.60
  205.43        2968.75           2409       50278.00    220819.50
  205.46        2969.00           2413       46653.00    204786.70
  205.49        2969.25           2417       42881.00    188122.30
  205.52        2969.50           2420       39971.00    175279.10
  205.55        2969.75           2424       36710.00    160900.10
  205.58        2970.00           2427       34058.00    149216.80
  205.62        2970.25           2431       30632.00    134137.40
  205.65        2970.50           2434       27667.00    121099.60
  205.68        2970.75           2438       24237.00    106031.50
  205.71        2971.00           2441       21509.00     94058.38
  205.74        2971.25           2445       18149.00     79324.81
  205.77        2971.50           2449       14531.00     63476.43
  205.80        2971.75           2452       12130.00     52968.46
  205.83        2972.00           2456        8903.00     38857.32
  205.86        2972.25           2459        6666.00     29083.24
  205.89        2972.50           2463        3512.00     15313.55
  205.92        2972.75           2466        1597.00      6959.36
  205.95        2973.00           2470         469.00      2040.68
  205.98        2973.25           2473         281.00      1221.06
  206.01        2973.50           2477         239.00      1037.96
  206.04        2973.75           2481         224.00       972.57
  206.07        2974.00           2484         203.00       881.02
  206.10        2974.25           2488         197.00       854.86
  206.14        2974.50           2491         199.00       863.58
  206.17        2974.75           2495         187.00       811.27
  206.20        2975.00           2498         208.00       902.82
  206.23        2975.25           2502         181.00       785.11
  206.26        2975.50           2505         191.00       828.71
  206.29        2975.75           2509         190.00       824.35
  206.32        2976.00           2512         182.00       789.47
  206.35        2976.25           2516         186.00       806.91
  206.38        2976.50           2520         175.00       758.96
  206.41        2976.75           2523         174.00       754.60
  206.44        2977.00           2527         170.00       737.16
  206.47        2977.25           2530         167.00       724.08
  206.50        2977.50           2534         158.00       684.85
  206.53        2977.75           2537         177.00       767.67
  206.56        2978.00           2541         171.00       741.52
  206.59        2978.25           2544         157.00       680.49
  206.62        2978.50           2548         176.00       763.32
  206.66        2978.75           2552         153.00       663.05
  206.69        2979.00           2555         147.00       636.89
  206.72        2979.25           2559         159.00       689.21
  206.75        2979.50           2562         152.00       658.69
  206.78        2979.75           2566         148.00       641.25
  206.81        2980.00           2569         167.00       724.08
  206.84        2980.25           2573         175.00       758.96
  206.87        2980.50           2577         155.00       671.77
  206.90        2980.75           2580         153.00       663.05
  206.93        2981.00           2584         156.00       676.13
  206.96        2981.25           2587         167.00       724.08
  206.99        2981.50           2591         167.00       724.08
  207.02        2981.75           2594         166.00       719.72
  207.05        2982.00           2598         138.00       597.66
  207.08        2982.25           2601         132.00       571.50
  207.11        2982.50           2605         138.00       597.66
  207.14        2982.75           2609         128.00       554.06
  207.18        2983.00           2612         132.00       571.50
  207.21        2983.25           2616         139.00       602.02
  207.24        2983.50           2619         150.00       649.97
  207.27        2983.75           2623         134.00       580.22
  207.30        2984.00           2626         168.00       728.44
HS scan finished at 03:27:31
end
************************************************************
  HS Scan of (1) Internal mercury lamp
************************************************************
Integration time is 0.2294 seconds per sample
dh160318Reading 51.44 .94 3.23pr1000
************************************************************
Dead Time -------------------------  3.4E-08 
Number of Cycles Used -------------  4 
Starting Wavelength (Angstroms) ---  2950 
Final Wavelength (Angstoms) -------  2984 
Wavelength Increment (Angstroms) --  .25 
Filter Wheel #1 Position ---------- (1) Ground quartz diffuser (ND=2.32)
Filter Wheel #2 Position ---------- (1) Neutral Density 0.494



************************************************************
HS scan start time = 19:07:19
Dark Count =  1.7 


Time (GMT)  Wavelength (Ang)  Step Number  Raw Counts  Counts/Second

 1148.22        2950.00           2144         107.00       459.03
 1148.41        2950.25           2147         126.00       541.86
 1148.44        2950.50           2151         109.00       467.75
 1148.47        2950.75           2155         117.00       502.62
 1148.50        2951.00           2158         125.00       537.50
 1148.53        2951.25           2162         119.00       511.34
 1148.56        2951.50           2165         121.00       520.06
 1148.59        2951.75           2169         128.00       550.58
 1148.62        2952.00           2172         122.00       524.42
 1148.65        2952.25           2176         113.00       485.19
 1148.69        2952.50           2179         125.00       537.50
 1148.72        2952.75           2183         149.00       642.12
 1148.75        2953.00           2186         125.00       537.50
 1148.78        2953.25           2190         109.00       467.75
 1148.81        2953.50           2193         147.00       633.41
 1148.84        2953.75           2197         149.00       642.12
 1148.87        2954.00           2200         107.00       459.03
 1148.90        2954.25           2204         144.00       620.33
 1148.93        2954.50           2208         122.00       524.42
 1148.96        2954.75           2211         141.00       607.25
 1148.99        2955.00           2215         126.00       541.86
 1149.02        2955.25           2218         147.00       633.41
 1149.05        2955.50           2222         162.00       698.80
 1149.08        2955.75           2225         162.00       698.80
 1149.11        2956.00           2229         130.00       559.30
 1149.14        2956.25           2232         135.00       581.09
 1149.17        2956.50           2236         144.00       620.33
 1149.21        2956.75           2239         141.00       607.25
 1149.24        2957.00           2243         140.00       602.89
 1149.27        2957.25           2246         147.00       633.41
 1149.30        2957.50           2250         133.00       572.37
 1149.33        2957.75           2254         135.00       581.09
 1149.36        2958.00           2257         147.00       633.41
 1149.39        2958.25           2261         143.00       615.97
 1149.42        2958.50           2264         157.00       677.00
 1149.45        2958.75           2268         138.00       594.17
 1149.48        2959.00           2271         155.00       668.28
 1149.51        2959.25           2275         148.00       637.76
 1149.54        2959.50           2278         154.00       663.92
 1149.57        2959.75           2282         159.00       685.72
 1149.60        2960.00           2285         174.00       751.11
 1149.63        2960.25           2289         169.00       729.31
 1149.66        2960.50           2293         174.00       751.11
 1149.69        2960.75           2296         179.00       772.91
 1149.73        2961.00           2300         212.00       916.77
 1149.76        2961.25           2303         372.00      1614.30
 1149.79        2961.50           2307        1396.00      6079.29
 1149.82        2961.75           2310        3014.00     13137.08
 1149.85        2962.00           2314        5483.00     23913.51
 1149.88        2962.25           2317        7593.00     33129.27
 1149.91        2962.50           2321       10310.00     45004.74
 1149.94        2962.75           2324       12531.00     54719.41
 1149.97        2963.00           2328       15120.00     66051.84
 1150.00        2963.25           2331       17347.00     75806.74
 1150.03        2963.50           2335       20244.00     88506.12
 1150.06        2963.75           2339       23320.00    102002.20
 1150.09        2964.00           2342       25664.00    112295.00
 1150.12        2964.25           2346       28699.00    125632.70
 1150.15        2964.50           2349       30571.00    133865.50
 1150.18        2964.75           2353       33297.00    145862.40
 1150.21        2965.00           2356       35489.00    155516.30
 1150.25        2965.25           2360       38126.00    167138.50
 1150.28        2965.50           2363       40197.00    176272.60
 1150.31        2965.75           2367       43009.00    188683.90
 1150.34        2966.00           2370       45202.00    198370.50
 1150.37        2966.25           2374       47143.00    206949.30
 1150.40        2966.50           2378       48448.00    212720.00
 1150.43        2966.75           2381       48983.00    215086.40
 1150.46        2967.00           2385       48786.00    214215.00
 1150.49        2967.25           2388       48804.00    214294.60
 1150.52        2967.50           2392       48806.00    214303.40
 1150.55        2967.75           2395       48585.00    213325.90
 1150.58        2968.00           2399       47325.00    207754.00
 1150.61        2968.25           2402       45485.00    199621.00
 1150.64        2968.50           2406       43023.00    188745.80
 1150.67        2968.75           2409       41237.00    180861.60
 1150.70        2969.00           2413       38566.00    169078.60
 1150.74        2969.25           2417       35928.00    157450.50
 1150.77        2969.50           2420       33647.00    147403.40
 1150.80        2969.75           2424       30856.00    135119.30
 1150.83        2970.00           2427       28659.00    125456.90
 1150.86        2970.25           2431       25760.00    112716.70
 1150.89        2970.50           2434       23893.00    104517.70
 1150.92        2970.75           2438       20751.00     90729.77
 1150.95        2971.00           2441       18482.00     80780.85
 1150.99        2971.25           2445       15416.00     67348.03
 1151.02        2971.50           2449       12499.00     54579.39
 1151.05        2971.75           2452       10435.00     45551.32
 1151.08        2972.00           2456        7941.00     34649.77
 1151.11        2972.25           2459        5853.00     25529.12
 1151.14        2972.50           2463        3226.00     14062.08
 1151.17        2972.75           2466        1647.00      7173.94
 1151.20        2973.00           2470         460.00      1997.96
 1151.23        2973.25           2473         252.00      1091.15
 1151.26        2973.50           2477         188.00       812.14
 1151.29        2973.75           2481         176.00       759.83
 1151.32        2974.00           2484         198.00       855.74
 1151.35        2974.25           2488         175.00       755.47
 1151.38        2974.50           2491         165.00       711.87
 1151.41        2974.75           2495         168.00       724.95
 1151.44        2975.00           2498         162.00       698.80
 1151.48        2975.25           2502         148.00       637.76
 1151.51        2975.50           2505         165.00       711.87
 1151.54        2975.75           2509         152.00       655.20
 1151.57        2976.00           2512         142.00       611.61
 1151.60        2976.25           2516         167.00       720.59
 1151.63        2976.50           2520         128.00       550.58
 1151.66        2976.75           2523         140.00       602.89
 1151.69        2977.00           2527         145.00       624.69
 1151.72        2977.25           2530         138.00       594.17
 1151.75        2977.50           2534         141.00       607.25
 1151.78        2977.75           2537         149.00       642.12
 1151.81        2978.00           2541         121.00       520.06
 1151.84        2978.25           2544         141.00       607.25
 1151.87        2978.50           2548         162.00       698.80
 1151.90        2978.75           2552         120.00       515.70
 1151.93        2979.00           2555         129.00       554.94
 1151.96        2979.25           2559         158.00       681.36
 1152.00        2979.50           2562         156.00       672.64
 1152.03        2979.75           2566         133.00       572.37
 1152.06        2980.00           2569         160.00       690.08
 1152.09        2980.25           2573         114.00       489.55
 1152.12        2980.50           2577         115.00       493.91
 1152.15        2980.75           2580         155.00       668.28
 1152.18        2981.00           2584         116.00       498.26
 1152.21        2981.25           2587         114.00       489.55
 1152.24        2981.50           2591         142.00       611.61
 1152.27        2981.75           2594         109.00       467.75
 1152.30        2982.00           2598         161.00       694.44
 1152.33        2982.25           2601         112.00       480.83
 1152.36        2982.50           2605         107.00       459.03
 1152.39        2982.75           2609         148.00       637.76
 1152.42        2983.00           2612         121.00       520.06
 1152.45        2983.25           2616         121.00       520.06
 1152.48        2983.50           2619         105.00       450.31
 1152.52        2983.75           2623         177.00       764.19
 1152.55        2984.00           2626         107.00       459.03
HS scan finished at 19:12:46
end
