************************************************************
  HS Scan of (1) Internal mercury lamp
************************************************************
Integration time is 0.2294 seconds per sample
dh130319Reading 51.44 .94 2.74pr1000
************************************************************
Dead Time -------------------------  3.4E-08 
Number of Cycles Used -------------  4 
Starting Wavelength (Angstroms) ---  2950 
Final Wavelength (Angstoms) -------  2984 
Wavelength Increment (Angstroms) --  .25 
Filter Wheel #1 Position ---------- (1) Ground quartz diffuser (ND=2.32)
Filter Wheel #2 Position ---------- (1) Neutral Density 0.494



************************************************************
HS scan start time = 03:32:23
Dark Count =  .3 


Time (GMT)  Wavelength (Ang)  Step Number  Raw Counts  Counts/Second

  213.28        2950.00           2144        1677.00      7310.88
  213.47        2950.25           2147        1689.00      7363.22
  213.50        2950.50           2151        1705.00      7433.00
  213.53        2950.75           2155        1678.00      7315.25
  213.56        2951.00           2158        1659.00      7232.38
  213.59        2951.25           2162        1678.00      7315.25
  213.62        2951.50           2165        1690.00      7367.58
  213.66        2951.75           2169        1730.00      7542.04
  213.69        2952.00           2172        1737.00      7572.57
  213.72        2952.25           2176        1684.00      7341.41
  213.75        2952.50           2179        1711.00      7459.17
  213.78        2952.75           2183        1706.00      7437.36
  213.81        2953.00           2186        1736.00      7568.21
  213.84        2953.25           2190        1708.00      7446.09
  213.87        2953.50           2193        1741.00      7590.01
  213.90        2953.75           2197        1722.00      7507.15
  213.93        2954.00           2200        1738.00      7576.93
  213.96        2954.25           2204        1743.00      7598.74
  213.99        2954.50           2208        1760.00      7672.88
  214.02        2954.75           2211        1792.00      7812.45
  214.05        2955.00           2215        1743.00      7598.74
  214.08        2955.25           2218        1794.00      7821.17
  214.11        2955.50           2222        1809.00      7886.60
  214.14        2955.75           2225        1779.00      7755.75
  214.18        2956.00           2229        1839.00      8017.44
  214.21        2956.25           2232        1825.00      7956.38
  214.24        2956.50           2236        1809.00      7886.60
  214.27        2956.75           2239        1836.00      8004.36
  214.30        2957.00           2243        1873.00      8165.74
  214.33        2957.25           2246        1889.00      8235.52
  214.36        2957.50           2250        1876.00      8178.82
  214.39        2957.75           2254        1877.00      8183.18
  214.42        2958.00           2257        1888.00      8231.16
  214.45        2958.25           2261        1960.00      8545.20
  214.48        2958.50           2264        1966.00      8571.37
  214.51        2958.75           2268        1982.00      8641.16
  214.54        2959.00           2271        1968.00      8580.10
  214.57        2959.25           2275        1999.00      8715.31
  214.60        2959.50           2278        2044.00      8911.59
  214.63        2959.75           2282        2077.00      9055.53
  214.66        2960.00           2285        2084.00      9086.07
  214.70        2960.25           2289        2127.00      9273.63
  214.73        2960.50           2293        2126.00      9269.27
  214.76        2960.75           2296        2204.00      9609.50
  214.79        2961.00           2300        2277.00      9927.94
  214.82        2961.25           2303        2687.00     11716.52
  214.85        2961.50           2307        5905.00     25762.32
  214.88        2961.75           2310       13599.00     59399.27
  214.91        2962.00           2314       32001.00    140163.80
  214.94        2962.25           2317       48780.00    214194.60
  214.97        2962.50           2321       72436.00    319207.20
  215.00        2962.75           2324       89916.00    397290.80
  215.03        2963.00           2328      115405.00    511904.50
  215.06        2963.25           2331      133320.00    593003.50
  215.09        2963.50           2335      157090.00    701309.70
  215.12        2963.75           2339      181100.00    811535.40
  215.15        2964.00           2342      199934.00    898589.20
  215.18        2964.25           2346      225485.00   1017533.00
  215.22        2964.50           2349      245092.00   1109476.00
  215.25        2964.75           2353      272010.00   1236664.00
  215.28        2965.00           2356      291702.00   1330426.00
  215.31        2965.25           2360      313399.00   1434448.00
  215.34        2965.50           2363      329412.00   1511706.00
  215.37        2965.75           2367      352731.00   1624965.00
  215.40        2966.00           2370      371005.00   1714353.00
  215.43        2966.25           2374      393774.00   1826517.00
  215.46        2966.50           2378      410735.00   1910648.00
  215.49        2966.75           2381      416345.00   1938585.00
  215.52        2967.00           2385      418458.00   1949121.00
  215.55        2967.25           2388      419111.00   1952379.00
  215.58        2967.50           2392      419129.00   1952469.00
  215.61        2967.75           2395      417745.00   1945565.00
  215.64        2968.00           2399      412005.00   1916967.00
  215.67        2968.25           2402      401073.00   1862661.00
  215.70        2968.50           2406      381112.00   1764033.00
  215.74        2968.75           2409      365512.00   1687425.00
  215.77        2969.00           2413      343686.00   1580928.00
  215.80        2969.25           2417      322583.00   1478708.00
  215.83        2969.50           2420      305354.00   1395790.00
  215.86        2969.75           2424      279226.00   1270951.00
  215.89        2970.00           2427      260546.00   1182359.00
  215.92        2970.25           2431      232872.00   1052104.00
  215.95        2970.50           2434      213792.00    962979.00
  215.98        2970.75           2438      189304.00    849391.30
  216.01        2971.00           2441      171306.00    766471.80
  216.04        2971.25           2445      144787.00    645151.30
  216.07        2971.50           2449      118329.00    525110.30
  216.10        2971.75           2452       99546.00    440487.30
  216.13        2972.00           2456       75671.00    333626.60
  216.16        2972.25           2459       56724.00    249375.30
  216.19        2972.50           2463       34626.00    151720.90
  216.22        2972.75           2466       19387.00     84754.34
  216.26        2973.00           2470        6628.00     28919.88
  216.29        2973.25           2473        3345.00     14587.44
  216.32        2973.50           2477        2327.00     10146.05
  216.35        2973.75           2481        2237.00      9753.45
  216.38        2974.00           2484        2185.00      9526.63
  216.41        2974.25           2488        2107.00      9186.39
  216.44        2974.50           2491        2058.00      8972.66
  216.47        2974.75           2495        2045.00      8915.95
  216.50        2975.00           2498        2055.00      8959.57
  216.53        2975.25           2502        2006.00      8745.84
  216.56        2975.50           2505        1962.00      8553.93
  216.59        2975.75           2509        1982.00      8641.16
  216.62        2976.00           2512        1919.00      8366.37
  216.65        2976.25           2516        1911.00      8331.48
  216.68        2976.50           2520        1836.00      8004.36
  216.71        2976.75           2523        1869.00      8148.29
  216.74        2977.00           2527        1835.00      8000.00
  216.77        2977.25           2530        1861.00      8113.40
  216.81        2977.50           2534        1826.00      7960.74
  216.84        2977.75           2537        1823.00      7947.66
  216.87        2978.00           2541        1825.00      7956.38
  216.90        2978.25           2544        1798.00      7838.62
  216.93        2978.50           2548        1784.00      7777.56
  216.96        2978.75           2552        1743.00      7598.74
  216.99        2979.00           2555        1715.00      7476.62
  217.02        2979.25           2559        1732.00      7550.76
  217.05        2979.50           2562        1696.00      7393.75
  217.08        2979.75           2566        1718.00      7489.70
  217.11        2980.00           2569        1667.00      7267.27
  217.14        2980.25           2573        1711.00      7459.17
  217.17        2980.50           2577        1658.00      7228.02
  217.20        2980.75           2580        1648.00      7184.41
  217.23        2981.00           2584        1670.00      7280.36
  217.26        2981.25           2587        1640.00      7149.51
  217.29        2981.50           2591        1579.00      6883.48
  217.33        2981.75           2594        1620.00      7062.29
  217.36        2982.00           2598        1634.00      7123.35
  217.39        2982.25           2601        1620.00      7062.29
  217.42        2982.50           2605        1631.00      7110.26
  217.45        2982.75           2609        1565.00      6822.42
  217.48        2983.00           2612        1598.00      6966.34
  217.51        2983.25           2616        1570.00      6844.23
  217.54        2983.50           2619        1593.00      6944.53
  217.57        2983.75           2623        1588.00      6922.73
  217.60        2984.00           2626        1526.00      6652.33
HS scan finished at 03:37:49
end
************************************************************
  HS Scan of (1) Internal mercury lamp
************************************************************
Integration time is 0.2294 seconds per sample
dh130319Reading 51.44 .94 2.92pr1000
************************************************************
Dead Time -------------------------  3.4E-08 
Number of Cycles Used -------------  4 
Starting Wavelength (Angstroms) ---  2950 
Final Wavelength (Angstoms) -------  2984 
Wavelength Increment (Angstroms) --  .25 
Filter Wheel #1 Position ---------- (1) Ground quartz diffuser (ND=2.32)
Filter Wheel #2 Position ---------- (1) Neutral Density 0.494



************************************************************
HS scan start time = 19:07:24
Dark Count =  .5 


Time (GMT)  Wavelength (Ang)  Step Number  Raw Counts  Counts/Second

 1148.30        2950.00           2144        1260.00      5491.43
 1148.50        2950.25           2147        1287.00      5609.18
 1148.53        2950.50           2151        1255.00      5469.63
 1148.56        2950.75           2155        1262.00      5500.16
 1148.59        2951.00           2158        1249.00      5443.47
 1148.62        2951.25           2162        1272.00      5543.76
 1148.65        2951.50           2165        1279.00      5574.29
 1148.69        2951.75           2169        1279.00      5574.29
 1148.72        2952.00           2172        1279.00      5574.29
 1148.76        2952.25           2176        1298.00      5657.15
 1148.79        2952.50           2179        1279.00      5574.29
 1148.82        2952.75           2183        1293.00      5635.34
 1148.85        2953.00           2186        1290.00      5622.26
 1148.88        2953.25           2190        1297.00      5652.79
 1148.91        2953.50           2193        1300.00      5665.87
 1148.94        2953.75           2197        1328.00      5787.97
 1148.97        2954.00           2200        1332.00      5805.42
 1149.00        2954.25           2204        1308.00      5700.76
 1149.03        2954.50           2208        1346.00      5866.47
 1149.06        2954.75           2211        1315.00      5731.28
 1149.09        2955.00           2215        1382.00      6023.47
 1149.12        2955.25           2218        1362.00      5936.25
 1149.15        2955.50           2222        1374.00      5988.58
 1149.18        2955.75           2225        1367.00      5958.05
 1149.21        2956.00           2229        1363.00      5940.61
 1149.24        2956.25           2232        1374.00      5988.58
 1149.27        2956.50           2236        1372.00      5979.86
 1149.31        2956.75           2239        1398.00      6093.24
 1149.34        2957.00           2243        1420.00      6189.18
 1149.37        2957.25           2246        1447.00      6306.93
 1149.40        2957.50           2250        1433.00      6245.88
 1149.43        2957.75           2254        1432.00      6241.52
 1149.46        2958.00           2257        1485.00      6472.65
 1149.49        2958.25           2261        1463.00      6376.71
 1149.52        2958.50           2264        1465.00      6385.43
 1149.55        2958.75           2268        1506.00      6564.24
 1149.58        2959.00           2271        1509.00      6577.32
 1149.61        2959.25           2275        1518.00      6616.57
 1149.64        2959.50           2278        1541.00      6716.88
 1149.67        2959.75           2282        1562.00      6808.46
 1149.70        2960.00           2285        1561.00      6804.10
 1149.73        2960.25           2289        1602.00      6982.91
 1149.76        2960.50           2293        1678.00      7314.37
 1149.80        2960.75           2296        1651.00      7196.62
 1149.83        2961.00           2300        1709.00      7449.58
 1149.86        2961.25           2303        1876.00      8177.95
 1149.89        2961.50           2307        3914.00     17069.63
 1149.92        2961.75           2310       10083.00     44017.44
 1149.95        2962.00           2314       24096.00    105414.20
 1149.98        2962.25           2317       37475.00    164273.70
 1150.01        2962.50           2321       56586.00    248762.60
 1150.04        2962.75           2324       72142.00    317896.60
 1150.07        2963.00           2328       92353.00    408209.30
 1150.10        2963.25           2331      106610.00    472254.20
 1150.13        2963.50           2335      125142.00    555925.70
 1150.16        2963.75           2339      145823.00    649871.00
 1150.19        2964.00           2342      161716.00    722480.90
 1150.22        2964.25           2346      182983.00    820214.50
 1150.25        2964.50           2349      198375.00    891362.40
 1150.28        2964.75           2353      217819.00    981742.90
 1150.32        2965.00           2356      231567.00   1045990.00
 1150.35        2965.25           2360      249866.00   1131950.00
 1150.38        2965.50           2363      265710.00   1206794.00
 1150.41        2965.75           2367      284707.00   1297049.00
 1150.44        2966.00           2370      298677.00   1363783.00
 1150.47        2966.25           2374      315591.00   1444999.00
 1150.50        2966.50           2378      330413.00   1516549.00
 1150.53        2966.75           2381      336151.00   1544345.00
 1150.56        2967.00           2385      339732.00   1561719.00
 1150.59        2967.25           2388      340112.00   1563563.00
 1150.62        2967.50           2392      340093.00   1563471.00
 1150.65        2967.75           2395      339980.00   1562923.00
 1150.68        2968.00           2399      337790.00   1552294.00
 1150.71        2968.25           2402      330884.00   1518829.00
 1150.74        2968.50           2406      316241.00   1448129.00
 1150.77        2968.75           2409      304520.00   1391787.00
 1150.80        2969.00           2413      286834.00   1307189.00
 1150.83        2969.25           2417      267560.00   1215559.00
 1150.87        2969.50           2420      251676.00   1140481.00
 1150.90        2969.75           2424      233772.00   1056321.00
 1150.93        2970.00           2427      219166.00    988025.10
 1150.96        2970.25           2431      199414.00    896177.70
 1150.99        2970.50           2434      184558.00    827478.80
 1151.02        2970.75           2438      165375.00    739249.30
 1151.05        2971.00           2441      149417.00    666259.10
 1151.08        2971.25           2445      127556.00    566860.30
 1151.11        2971.50           2449      106086.00    469895.30
 1151.14        2971.75           2452       91233.00    403190.00
 1151.17        2972.00           2456       70291.00    309653.20
 1151.20        2972.25           2459       55233.00    242765.00
 1151.23        2972.50           2463       35378.00    155032.60
 1151.26        2972.75           2466       22503.00     98421.65
 1151.29        2973.00           2470        8528.00     37220.13
 1151.32        2973.25           2473        3440.00     15001.11
 1151.35        2973.50           2477        1918.00      8361.14
 1151.39        2973.75           2481        1711.00      7458.30
 1151.42        2974.00           2484        1701.00      7414.69
 1151.45        2974.25           2488        1686.00      7349.26
 1151.48        2974.50           2491        1633.00      7118.11
 1151.51        2974.75           2495        1586.00      6913.13
 1151.54        2975.00           2498        1578.00      6878.24
 1151.57        2975.25           2502        1536.00      6695.07
 1151.60        2975.50           2505        1549.00      6751.77
 1151.63        2975.75           2509        1522.00      6634.02
 1151.66        2976.00           2512        1524.00      6642.74
 1151.69        2976.25           2516        1496.00      6520.63
 1151.72        2976.50           2520        1447.00      6306.93
 1151.75        2976.75           2523        1490.00      6494.46
 1151.78        2977.00           2527        1462.00      6372.35
 1151.81        2977.25           2530        1403.00      6115.05
 1151.84        2977.50           2534        1400.00      6101.96
 1151.87        2977.75           2537        1394.00      6075.80
 1151.91        2978.00           2541        1400.00      6101.96
 1151.94        2978.25           2544        1367.00      5958.05
 1151.97        2978.50           2548        1362.00      5936.25
 1152.00        2978.75           2552        1342.00      5849.03
 1152.03        2979.00           2555        1348.00      5875.19
 1152.06        2979.25           2559        1278.00      5569.93
 1152.09        2979.50           2562        1336.00      5822.86
 1152.12        2979.75           2566        1275.00      5556.85
 1152.15        2980.00           2569        1294.00      5639.70
 1152.18        2980.25           2573        1303.00      5678.95
 1152.21        2980.50           2577        1262.00      5500.16
 1152.24        2980.75           2580        1299.00      5661.51
 1152.27        2981.00           2584        1245.00      5426.02
 1152.30        2981.25           2587        1245.00      5426.02
 1152.33        2981.50           2591        1233.00      5373.69
 1152.36        2981.75           2594        1264.00      5508.88
 1152.39        2982.00           2598        1219.00      5312.64
 1152.43        2982.25           2601        1221.00      5321.36
 1152.46        2982.50           2605        1222.00      5325.72
 1152.49        2982.75           2609        1235.00      5382.42
 1152.52        2983.00           2612        1218.00      5308.28
 1152.55        2983.25           2616        1220.00      5317.00
 1152.58        2983.50           2619        1202.00      5238.51
 1152.61        2983.75           2623        1208.00      5264.67
 1152.64        2984.00           2626        1204.00      5247.23
HS scan finished at 19:12:52
end
