************************************************************
  HS Scan of (1) Internal mercury lamp
************************************************************
Integration time is 0.2294 seconds per sample
dh170319Reading 51.44 .94 2.58pr1000
************************************************************
Dead Time -------------------------  3.4E-08 
Number of Cycles Used -------------  4 
Starting Wavelength (Angstroms) ---  2950 
Final Wavelength (Angstoms) -------  2984 
Wavelength Increment (Angstroms) --  .25 
Filter Wheel #1 Position ---------- (1) Ground quartz diffuser (ND=2.32)
Filter Wheel #2 Position ---------- (1) Neutral Density 0.494



************************************************************
HS scan start time = 03:19:35
Dark Count =  .5 


Time (GMT)  Wavelength (Ang)  Step Number  Raw Counts  Counts/Second

  200.47        2950.00           2144        1689.00      7362.35
  200.67        2950.25           2147        1676.00      7305.65
  200.70        2950.50           2151        1693.00      7379.79
  200.73        2950.75           2155        1652.00      7200.98
  200.76        2951.00           2158        1681.00      7327.46
  200.79        2951.25           2162        1736.00      7567.34
  200.82        2951.50           2165        1681.00      7327.46
  200.85        2951.75           2169        1681.00      7327.46
  200.88        2952.00           2172        1678.00      7314.37
  200.91        2952.25           2176        1770.00      7715.63
  200.94        2952.50           2179        1707.00      7440.85
  200.97        2952.75           2183        1751.00      7632.76
  201.00        2953.00           2186        1763.00      7685.09
  201.04        2953.25           2190        1754.00      7645.84
  201.07        2953.50           2193        1734.00      7558.61
  201.10        2953.75           2197        1756.00      7654.56
  201.13        2954.00           2200        1726.00      7523.72
  201.16        2954.25           2204        1729.00      7536.81
  201.19        2954.50           2208        1772.00      7724.35
  201.22        2954.75           2211        1812.00      7898.81
  201.25        2955.00           2215        1789.00      7798.49
  201.28        2955.25           2218        1777.00      7746.16
  201.31        2955.50           2222        1826.00      7959.87
  201.34        2955.75           2225        1822.00      7942.42
  201.37        2956.00           2229        1807.00      7877.00
  201.40        2956.25           2232        1842.00      8029.66
  201.43        2956.50           2236        1859.00      8103.80
  201.46        2956.75           2239        1818.00      7924.98
  201.49        2957.00           2243        1832.00      7986.04
  201.52        2957.25           2246        1860.00      8108.16
  201.56        2957.50           2250        1897.00      8269.54
  201.59        2957.75           2254        1909.00      8321.88
  201.62        2958.00           2257        1956.00      8526.88
  201.65        2958.25           2261        1917.00      8356.78
  201.68        2958.50           2264        1963.00      8557.42
  201.71        2958.75           2268        1995.00      8696.99
  201.74        2959.00           2271        1998.00      8710.08
  201.77        2959.25           2275        1984.00      8649.01
  201.80        2959.50           2278        2031.00      8854.02
  201.83        2959.75           2282        1998.00      8710.08
  201.86        2960.00           2285        2108.00      9189.88
  201.89        2960.25           2289        2166.00      9442.88
  201.92        2960.50           2293        2152.00      9381.81
  201.95        2960.75           2296        2140.00      9329.46
  201.98        2961.00           2300        2369.00     10328.39
  202.01        2961.25           2303        2968.00     12941.61
  202.04        2961.50           2307        8511.00     37145.84
  202.07        2961.75           2310       18423.00     80527.51
  202.11        2962.00           2314       35996.00    157755.40
  202.14        2962.25           2317       51768.00    227416.40
  202.17        2962.50           2321       73642.00    324580.20
  202.20        2962.75           2324       90412.00    399511.70
  202.23        2963.00           2328      113913.00    505169.70
  202.26        2963.25           2331      133475.00    593706.10
  202.29        2963.50           2335      158981.00    709959.80
  202.32        2963.75           2339      182597.00    818434.80
  202.35        2964.00           2342      199456.00    896372.30
  202.38        2964.25           2346      221734.00   1000009.00
  202.41        2964.50           2349      239493.00   1083160.00
  202.44        2964.75           2353      265182.00   1204294.00
  202.47        2965.00           2356      282514.00   1286601.00
  202.50        2965.25           2360      303857.00   1388607.00
  202.53        2965.50           2363      319395.00   1463328.00
  202.56        2965.75           2367      338879.00   1557578.00
  202.59        2966.00           2370      355729.00   1639591.00
  202.63        2966.25           2374      377382.00   1745677.00
  202.66        2966.50           2378      395062.00   1832887.00
  202.69        2966.75           2381      401089.00   1862739.00
  202.72        2967.00           2385      403249.00   1873453.00
  202.75        2967.25           2388      402819.00   1871320.00
  202.78        2967.50           2392      404149.00   1877919.00
  202.81        2967.75           2395      403215.00   1873284.00
  202.84        2968.00           2399      399848.00   1856587.00
  202.87        2968.25           2402      391708.00   1816302.00
  202.90        2968.50           2406      374102.00   1729556.00
  202.93        2968.75           2409      357449.00   1647989.00
  202.96        2969.00           2413      333838.00   1533134.00
  202.99        2969.25           2417      311143.00   1423596.00
  203.02        2969.50           2420      295340.00   1347814.00
  203.05        2969.75           2424      271119.00   1232435.00
  203.08        2970.00           2427      250191.00   1133481.00
  203.11        2970.25           2431      223835.00   1009822.00
  203.15        2970.50           2434      205465.00    924253.10
  203.18        2970.75           2438      180847.00    810368.60
  203.21        2971.00           2441      162951.00    728138.50
  203.24        2971.25           2445      138157.00    614976.80
  203.27        2971.50           2449      114102.00    506022.60
  203.30        2971.75           2452       96851.00    428384.80
  203.33        2972.00           2456       72730.00    320516.20
  203.36        2972.25           2459       54128.00    237868.50
  203.39        2972.50           2463       31630.00    138530.20
  203.42        2972.75           2466       17325.00     75715.60
  203.45        2973.00           2470        6662.00     29067.51
  203.48        2973.25           2473        3549.00     15476.76
  203.51        2973.50           2477        2430.00     10594.49
  203.54        2973.75           2481        2180.00      9503.94
  203.57        2974.00           2484        2169.00      9455.96
  203.60        2974.25           2488        2081.00      9072.11
  203.63        2974.50           2491        2077.00      9054.66
  203.67        2974.75           2495        2049.00      8932.53
  203.70        2975.00           2498        2016.00      8788.59
  203.73        2975.25           2502        1995.00      8696.99
  203.76        2975.50           2505        1981.00      8635.93
  203.79        2975.75           2509        1979.00      8627.20
  203.82        2976.00           2512        1948.00      8491.99
  203.85        2976.25           2516        1879.00      8191.03
  203.88        2976.50           2520        1880.00      8195.40
  203.91        2976.75           2523        1821.00      7938.06
  203.94        2977.00           2527        1868.00      8143.06
  203.97        2977.25           2530        1849.00      8060.19
  204.00        2977.50           2534        1820.00      7933.70
  204.03        2977.75           2537        1782.00      7767.96
  204.06        2978.00           2541        1801.00      7850.83
  204.09        2978.25           2544        1778.00      7750.52
  204.12        2978.50           2548        1757.00      7658.93
  204.15        2978.75           2552        1738.00      7576.06
  204.19        2979.00           2555        1751.00      7632.76
  204.22        2979.25           2559        1687.00      7353.63
  204.25        2979.50           2562        1712.00      7462.66
  204.28        2979.75           2566        1700.00      7410.32
  204.31        2980.00           2569        1703.00      7423.41
  204.34        2980.25           2573        1656.00      7218.42
  204.37        2980.50           2577        1642.00      7157.37
  204.40        2980.75           2580        1659.00      7231.51
  204.43        2981.00           2584        1638.00      7139.92
  204.46        2981.25           2587        1662.00      7244.59
  204.49        2981.50           2591        1641.00      7153.00
  204.52        2981.75           2594        1668.00      7270.76
  204.55        2982.00           2598        1629.00      7100.67
  204.58        2982.25           2601        1624.00      7078.86
  204.61        2982.50           2605        1612.00      7026.53
  204.64        2982.75           2609        1589.00      6926.22
  204.67        2983.00           2612        1591.00      6934.94
  204.70        2983.25           2616        1597.00      6961.11
  204.74        2983.50           2619        1596.00      6956.75
  204.77        2983.75           2623        1591.00      6934.94
  204.80        2984.00           2626        1594.00      6948.02
HS scan finished at 03:25:01
end
************************************************************
  HS Scan of (1) Internal mercury lamp
************************************************************
Integration time is 0.2294 seconds per sample
dh170319Reading 51.44 .94 2.84pr1000
************************************************************
Dead Time -------------------------  3.4E-08 
Number of Cycles Used -------------  4 
Starting Wavelength (Angstroms) ---  2950 
Final Wavelength (Angstoms) -------  2984 
Wavelength Increment (Angstroms) --  .25 
Filter Wheel #1 Position ---------- (1) Ground quartz diffuser (ND=2.32)
Filter Wheel #2 Position ---------- (1) Neutral Density 0.494



************************************************************
HS scan start time = 19:07:20
Dark Count =  .5 


Time (GMT)  Wavelength (Ang)  Step Number  Raw Counts  Counts/Second

 1148.23        2950.00           2144        1145.00      4989.95
 1148.43        2950.25           2147        1137.00      4955.06
 1148.46        2950.50           2151        1135.00      4946.34
 1148.49        2950.75           2155        1146.00      4994.31
 1148.52        2951.00           2158        1154.00      5029.20
 1148.55        2951.25           2162        1164.00      5072.80
 1148.58        2951.50           2165        1165.00      5077.16
 1148.61        2951.75           2169        1167.00      5085.88
 1148.64        2952.00           2172        1166.00      5081.52
 1148.67        2952.25           2176        1204.00      5247.23
 1148.70        2952.50           2179        1158.00      5046.64
 1148.73        2952.75           2183        1216.00      5299.56
 1148.76        2953.00           2186        1224.00      5334.45
 1148.80        2953.25           2190        1147.00      4998.67
 1148.83        2953.50           2193        1159.00      5051.00
 1148.86        2953.75           2197        1194.00      5203.62
 1148.89        2954.00           2200        1169.00      5094.61
 1148.92        2954.25           2204        1216.00      5299.56
 1148.95        2954.50           2208        1244.00      5421.66
 1148.98        2954.75           2211        1215.00      5295.20
 1149.01        2955.00           2215        1235.00      5382.42
 1149.04        2955.25           2218        1263.00      5504.52
 1149.07        2955.50           2222        1224.00      5334.45
 1149.10        2955.75           2225        1239.00      5399.86
 1149.13        2956.00           2229        1206.00      5255.95
 1149.16        2956.25           2232        1277.00      5565.57
 1149.19        2956.50           2236        1249.00      5443.47
 1149.22        2956.75           2239        1290.00      5622.26
 1149.25        2957.00           2243        1327.00      5783.61
 1149.28        2957.25           2246        1276.00      5561.21
 1149.32        2957.50           2250        1320.00      5753.09
 1149.35        2957.75           2254        1318.00      5744.37
 1149.38        2958.00           2257        1324.00      5770.53
 1149.41        2958.25           2261        1322.00      5761.81
 1149.44        2958.50           2264        1339.00      5835.95
 1149.47        2958.75           2268        1342.00      5849.03
 1149.50        2959.00           2271        1406.00      6128.13
 1149.53        2959.25           2275        1394.00      6075.80
 1149.56        2959.50           2278        1394.00      6075.80
 1149.59        2959.75           2282        1412.00      6154.30
 1149.62        2960.00           2285        1424.00      6206.63
 1149.65        2960.25           2289        1439.00      6272.04
 1149.68        2960.50           2293        1491.00      6498.82
 1149.71        2960.75           2296        1484.00      6468.29
 1149.74        2961.00           2300        1588.00      6921.86
 1149.77        2961.25           2303        1890.00      8239.01
 1149.80        2961.50           2307        5079.00     22154.87
 1149.83        2961.75           2310       12276.00     53608.96
 1149.87        2962.00           2314       25945.00    113534.60
 1149.90        2962.25           2317       36605.00    160439.10
 1149.93        2962.50           2321       53347.00    234408.70
 1149.96        2962.75           2324       67122.00    295551.00
 1149.99        2963.00           2328       85508.00    377559.90
 1150.02        2963.25           2331       98546.00    435994.80
 1150.05        2963.50           2335      115248.00    511194.80
 1150.08        2963.75           2339      132136.00    587628.80
 1150.11        2964.00           2342      146195.00    651566.40
 1150.14        2964.25           2346      165258.00    738712.80
 1150.17        2964.50           2349      179288.00    803186.60
 1150.20        2964.75           2353      195662.00    878796.50
 1150.23        2965.00           2356      207742.00    934832.00
 1150.26        2965.25           2360      224274.00   1011873.00
 1150.29        2965.50           2363      237951.00   1075921.00
 1150.32        2965.75           2367      253833.00   1150653.00
 1150.35        2966.00           2370      266074.00   1208518.00
 1150.39        2966.25           2374      282303.00   1285596.00
 1150.42        2966.50           2378      294329.00   1342979.00
 1150.45        2966.75           2381      298994.00   1365301.00
 1150.48        2967.00           2385      300974.00   1374786.00
 1150.51        2967.25           2388      300281.00   1371465.00
 1150.54        2967.50           2392      300408.00   1372074.00
 1150.57        2967.75           2395      300983.00   1374829.00
 1150.60        2968.00           2399      297975.00   1360422.00
 1150.63        2968.25           2402      290721.00   1325739.00
 1150.66        2968.50           2406      277472.00   1262608.00
 1150.69        2968.75           2409      267709.00   1216265.00
 1150.72        2969.00           2413      252515.00   1144437.00
 1150.75        2969.25           2417      235712.00   1065416.00
 1150.78        2969.50           2420      221888.00   1000728.00
 1150.81        2969.75           2424      203238.00    913913.90
 1150.84        2970.00           2427      190244.00    853734.10
 1150.87        2970.25           2431      172380.00    771405.60
 1150.91        2970.50           2434      158620.00    708307.90
 1150.94        2970.75           2438      140262.00    624550.00
 1150.97        2971.00           2441      127445.00    566357.40
 1151.00        2971.25           2445      109668.00    486028.00
 1151.03        2971.50           2449       89593.00    395843.30
 1151.06        2971.75           2452       74370.00    327825.00
 1151.09        2972.00           2456       55527.00    244068.00
 1151.12        2972.25           2459       42301.00    185563.30
 1151.15        2972.50           2463       26797.00    117278.00
 1151.18        2972.75           2466       15613.00     68216.02
 1151.21        2973.00           2470        5431.00     23691.70
 1151.24        2973.25           2473        2463.00     10738.45
 1151.27        2973.50           2477        1638.00      7139.92
 1151.30        2973.75           2481        1508.00      6572.96
 1151.33        2974.00           2484        1530.00      6668.91
 1151.36        2974.25           2488        1467.00      6394.15
 1151.39        2974.50           2491        1440.00      6276.40
 1151.43        2974.75           2495        1416.00      6171.74
 1151.46        2975.00           2498        1404.00      6119.41
 1151.49        2975.25           2502        1373.00      5984.22
 1151.52        2975.50           2505        1376.00      5997.30
 1151.56        2975.75           2509        1360.00      5927.52
 1151.59        2976.00           2512        1348.00      5875.19
 1151.62        2976.25           2516        1319.00      5748.73
 1151.65        2976.50           2520        1278.00      5569.93
 1151.68        2976.75           2523        1308.00      5700.76
 1151.72        2977.00           2527        1267.00      5521.96
 1151.75        2977.25           2530        1258.00      5482.71
 1151.78        2977.50           2534        1233.00      5373.69
 1151.81        2977.75           2537        1222.00      5325.72
 1151.84        2978.00           2541        1204.00      5247.23
 1151.87        2978.25           2544        1256.00      5473.99
 1151.90        2978.50           2548        1210.00      5273.40
 1151.93        2978.75           2552        1171.00      5103.33
 1151.96        2979.00           2555        1214.00      5290.84
 1151.99        2979.25           2559        1179.00      5138.21
 1152.02        2979.50           2562        1186.00      5168.74
 1152.05        2979.75           2566        1135.00      4946.34
 1152.08        2980.00           2569        1156.00      5037.92
 1152.11        2980.25           2573        1159.00      5051.00
 1152.14        2980.50           2577        1147.00      4998.67
 1152.17        2980.75           2580        1155.00      5033.56
 1152.20        2981.00           2584        1120.00      4880.93
 1152.24        2981.25           2587        1120.00      4880.93
 1152.27        2981.50           2591        1100.00      4793.72
 1152.30        2981.75           2594        1177.00      5129.49
 1152.33        2982.00           2598        1097.00      4780.64
 1152.36        2982.25           2601        1125.00      4902.74
 1152.39        2982.50           2605        1104.00      4811.16
 1152.42        2982.75           2609        1095.00      4771.92
 1152.45        2983.00           2612        1101.00      4798.08
 1152.48        2983.25           2616        1109.00      4832.97
 1152.51        2983.50           2619        1075.00      4684.70
 1152.54        2983.75           2623        1070.00      4662.90
 1152.57        2984.00           2626        1112.00      4846.05
HS scan finished at 19:12:48
end
