************************************************************
  HS Scan of 
************************************************************
Integration time is 0.2294 seconds per sample
dh200317Reading 51.44 .94 3.01pr1000
************************************************************
Dead Time -------------------------  3.4E-08 
Number of Cycles Used -------------  4 
Starting Wavelength (Angstroms) ---  2950 
Final Wavelength (Angstoms) -------  2984 
Wavelength Increment (Angstroms) --  .25 
Filter Wheel #1 Position ---------- (1) Ground quartz diffuser (ND=2.32)
Filter Wheel #2 Position ---------- (1) Neutral Density 0.494



************************************************************
HS scan start time = 03:07:33
Dark Count =  1.2 


Time (GMT)  Wavelength (Ang)  Step Number  Raw Counts  Counts/Second

  188.44        2950.00           2144        1015.00      4420.02
  188.64        2950.25           2147         988.00      4302.29
  188.67        2950.50           2151         981.00      4271.76
  188.70        2950.75           2155         977.00      4254.32
  188.73        2951.00           2158         997.00      4341.53
  188.76        2951.25           2162         959.00      4175.83
  188.79        2951.50           2165         992.00      4319.73
  188.82        2951.75           2169        1013.00      4411.30
  188.85        2952.00           2172        1004.00      4372.05
  188.88        2952.25           2176         993.00      4324.09
  188.91        2952.50           2179        1011.00      4402.58
  188.94        2952.75           2183        1038.00      4520.31
  188.97        2953.00           2186        1001.00      4358.97
  189.00        2953.25           2190        1029.00      4481.07
  189.04        2953.50           2193        1027.00      4472.35
  189.07        2953.75           2197        1054.00      4590.08
  189.10        2954.00           2200        1036.00      4511.59
  189.13        2954.25           2204        1076.00      4686.01
  189.17        2954.50           2208        1078.00      4694.73
  189.20        2954.75           2211        1043.00      4542.11
  189.23        2955.00           2215        1076.00      4686.01
  189.26        2955.25           2218        1061.00      4620.60
  189.30        2955.50           2222        1048.00      4563.92
  189.33        2955.75           2225        1067.00      4646.77
  189.36        2956.00           2229        1081.00      4707.82
  189.39        2956.25           2232        1070.00      4659.85
  189.42        2956.50           2236        1117.00      4864.80
  189.45        2956.75           2239        1149.00      5004.34
  189.48        2957.00           2243        1100.00      4790.67
  189.51        2957.25           2246        1116.00      4860.44
  189.54        2957.50           2250        1138.00      4956.37
  189.57        2957.75           2254        1183.00      5152.60
  189.60        2958.00           2257        1140.00      4965.09
  189.63        2958.25           2261        1142.00      4973.81
  189.66        2958.50           2264        1162.00      5061.03
  189.69        2958.75           2268        1191.00      5187.49
  189.72        2959.00           2271        1217.00      5300.87
  189.75        2959.25           2275        1214.00      5287.79
  189.78        2959.50           2278        1250.00      5444.77
  189.82        2959.75           2282        1299.00      5658.46
  189.85        2960.00           2285        1277.00      5562.52
  189.88        2960.25           2289        1254.00      5462.22
  189.91        2960.50           2293        1327.00      5780.56
  189.94        2960.75           2296        1348.00      5872.14
  189.97        2961.00           2300        1412.00      6151.24
  190.00        2961.25           2303        1704.00      7424.72
  190.03        2961.50           2307        4148.00     18087.84
  190.06        2961.75           2310       10775.00     47040.30
  190.09        2962.00           2314       25303.00    110711.50
  190.12        2962.25           2317       38213.00    167524.30
  190.15        2962.50           2321       55430.00    243635.00
  190.18        2962.75           2324       67489.00    297180.30
  190.21        2963.00           2328       84358.00    372413.80
  190.24        2963.25           2331       98294.00    434860.00
  190.27        2963.50           2335      116443.00    516587.00
  190.30        2963.75           2339      133314.00    592972.10
  190.34        2964.00           2342      146686.00    653801.20
  190.37        2964.25           2346      165201.00    738448.20
  190.40        2964.50           2349      178752.00    800715.00
  190.43        2964.75           2353      197621.00    887865.60
  190.46        2965.00           2356      209237.00    941778.80
  190.49        2965.25           2360      224157.00   1011323.00
  190.52        2965.50           2363      236447.00   1068861.00
  190.55        2965.75           2367      254350.00   1153089.00
  190.58        2966.00           2370      268929.00   1222045.00
  190.61        2966.25           2374      285897.00   1302718.00
  190.64        2966.50           2378      297041.00   1355949.00
  190.67        2966.75           2381      299455.00   1367505.00
  190.70        2967.00           2385      301568.00   1377629.00
  190.73        2967.25           2388      301324.00   1376459.00
  190.76        2967.50           2392      301397.00   1376809.00
  190.79        2967.75           2395      300918.00   1374514.00
  190.82        2968.00           2399      295984.00   1350891.00
  190.86        2968.25           2402      286982.00   1307892.00
  190.89        2968.50           2406      272380.00   1238415.00
  190.92        2968.75           2409      260634.00   1182771.00
  190.95        2969.00           2413      244941.00   1108761.00
  190.98        2969.25           2417      229237.00   1035078.00
  191.01        2969.50           2420      215950.00    973027.40
  191.04        2969.75           2424      197287.00    886318.50
  191.07        2970.00           2427      182841.00    819556.50
  191.10        2970.25           2431      165532.00    739966.00
  191.13        2970.50           2434      153845.00    686472.30
  191.16        2970.75           2438      136368.00    606842.40
  191.19        2971.00           2441      122335.00    543218.10
  191.22        2971.25           2445      102040.00    451691.20
  191.25        2971.50           2449       83848.00    370133.60
  191.28        2971.75           2452       71787.00    316312.10
  191.31        2972.00           2456       54568.00    239814.90
  191.34        2972.25           2459       42215.00    185180.60
  191.38        2972.50           2463       26497.00    115956.70
  191.41        2972.75           2466       15481.00     67634.88
  191.44        2973.00           2470        4552.00     19851.23
  191.47        2973.25           2473        2015.00      8781.17
  191.50        2973.50           2477        1489.00      6487.05
  191.53        2973.75           2481        1417.00      6173.05
  191.56        2974.00           2484        1381.00      6016.05
  191.59        2974.25           2488        1339.00      5832.89
  191.62        2974.50           2491        1326.00      5776.20
  191.65        2974.75           2495        1304.00      5680.26
  191.69        2975.00           2498        1292.00      5627.93
  191.72        2975.25           2502        1251.00      5449.14
  191.75        2975.50           2505        1210.00      5270.34
  191.78        2975.75           2509        1225.00      5335.75
  191.81        2976.00           2512        1218.00      5305.23
  191.84        2976.25           2516        1170.00      5095.91
  191.87        2976.50           2520        1173.00      5109.00
  191.90        2976.75           2523        1170.00      5095.91
  191.93        2977.00           2527        1144.00      4982.54
  191.96        2977.25           2530        1127.00      4908.40
  191.99        2977.50           2534        1114.00      4851.72
  192.02        2977.75           2537        1195.00      5204.93
  192.05        2978.00           2541        1094.00      4764.50
  192.08        2978.25           2544        1076.00      4686.01
  192.12        2978.50           2548        1103.00      4803.75
  192.15        2978.75           2552        1112.00      4842.99
  192.18        2979.00           2555        1063.00      4629.33
  192.21        2979.25           2559        1064.00      4633.69
  192.24        2979.50           2562        1091.00      4751.42
  192.27        2979.75           2566        1025.00      4463.62
  192.30        2980.00           2569        1073.00      4672.93
  192.33        2980.25           2573        1028.00      4476.71
  192.36        2980.50           2577        1043.00      4542.11
  192.39        2980.75           2580        1014.00      4415.66
  192.42        2981.00           2584        1008.00      4389.50
  192.45        2981.25           2587        1012.00      4406.94
  192.48        2981.50           2591         987.00      4297.93
  192.51        2981.75           2594        1007.00      4385.14
  192.54        2982.00           2598         995.00      4332.81
  192.57        2982.25           2601        1025.00      4463.62
  192.60        2982.50           2605         976.00      4249.96
  192.64        2982.75           2609         959.00      4175.83
  192.67        2983.00           2612         976.00      4249.96
  192.70        2983.25           2616         966.00      4206.36
  192.73        2983.50           2619         956.00      4162.75
  192.76        2983.75           2623         962.00      4188.91
  192.79        2984.00           2626         953.00      4149.67
HS scan finished at 03:13:01
end
************************************************************
  HS Scan of 
************************************************************
Integration time is 0.2294 seconds per sample
dh200317Reading 51.44 .94 3.03pr1000
************************************************************
Dead Time -------------------------  3.4E-08 
Number of Cycles Used -------------  4 
Starting Wavelength (Angstroms) ---  2950 
Final Wavelength (Angstoms) -------  2984 
Wavelength Increment (Angstroms) --  .25 
Filter Wheel #1 Position ---------- (1) Ground quartz diffuser (ND=2.32)
Filter Wheel #2 Position ---------- (1) Neutral Density 0.494



************************************************************
HS scan start time = 19:07:23
Dark Count =  1.1 


Time (GMT)  Wavelength (Ang)  Step Number  Raw Counts  Counts/Second

 1148.27        2950.00           2144         954.00      4154.47
 1148.47        2950.25           2147         981.00      4272.20
 1148.50        2950.50           2151         988.00      4302.72
 1148.53        2950.75           2155         946.00      4119.58
 1148.56        2951.00           2158        1002.00      4363.77
 1148.59        2951.25           2162         984.00      4285.28
 1148.62        2951.50           2165        1003.00      4368.13
 1148.65        2951.75           2169        1008.00      4389.93
 1148.68        2952.00           2172        1041.00      4533.83
 1148.71        2952.25           2176        1012.00      4407.37
 1148.74        2952.50           2179        1034.00      4503.30
 1148.77        2952.75           2183        1026.00      4468.42
 1148.80        2953.00           2186        1002.00      4363.77
 1148.83        2953.25           2190         998.00      4346.33
 1148.86        2953.50           2193        1009.00      4394.29
 1148.90        2953.75           2197        1004.00      4372.49
 1148.93        2954.00           2200        1026.00      4468.42
 1148.96        2954.25           2204        1034.00      4503.30
 1148.99        2954.50           2208        1011.00      4403.01
 1149.02        2954.75           2211        1040.00      4529.47
 1149.05        2955.00           2215        1042.00      4538.19
 1149.08        2955.25           2218        1082.00      4712.61
 1149.11        2955.50           2222        1067.00      4647.20
 1149.15        2955.75           2225        1045.00      4551.27
 1149.19        2956.00           2229        1067.00      4647.20
 1149.22        2956.25           2232        1052.00      4581.80
 1149.25        2956.50           2236        1070.00      4660.29
 1149.28        2956.75           2239        1103.00      4804.18
 1149.31        2957.00           2243        1087.00      4734.42
 1149.34        2957.25           2246        1133.00      4935.00
 1149.37        2957.50           2250        1114.00      4852.15
 1149.40        2957.75           2254        1137.00      4952.45
 1149.43        2958.00           2257        1108.00      4825.99
 1149.46        2958.25           2261        1132.00      4930.64
 1149.49        2958.50           2264        1123.00      4891.40
 1149.52        2958.75           2268        1137.00      4952.45
 1149.55        2959.00           2271        1166.00      5078.91
 1149.58        2959.25           2275        1170.00      5096.35
 1149.61        2959.50           2278        1166.00      5078.91
 1149.65        2959.75           2282        1212.00      5279.50
 1149.68        2960.00           2285        1209.00      5266.42
 1149.71        2960.25           2289        1252.00      5453.93
 1149.74        2960.50           2293        1272.00      5541.15
 1149.77        2960.75           2296        1287.00      5606.56
 1149.80        2961.00           2300        1340.00      5837.69
 1149.83        2961.25           2303        1469.00      6400.26
 1149.86        2961.50           2307        3266.00     14239.24
 1149.89        2961.75           2310        8620.00     37619.58
 1149.92        2962.00           2314       20406.00     89219.24
 1149.95        2962.25           2317       30477.00    133454.70
 1149.98        2962.50           2321       43610.00    191340.60
 1150.01        2962.75           2324       54979.00    241636.60
 1150.04        2963.00           2328       71538.00    315203.50
 1150.07        2963.25           2331       83707.00    369503.70
 1150.10        2963.50           2335      100067.00    442824.30
 1150.13        2963.75           2339      115446.00    512085.90
 1150.16        2964.00           2342      126761.00    563255.60
 1150.20        2964.25           2346      142578.00    635087.40
 1150.23        2964.50           2349      154285.00    688483.30
 1150.26        2964.75           2353      168812.00    755015.20
 1150.29        2965.00           2356      179624.00    804731.50
 1150.32        2965.25           2360      194278.00    872387.60
 1150.35        2965.50           2363      205511.00    924463.90
 1150.38        2965.75           2367      220611.00    994764.60
 1150.41        2966.00           2370      230374.00   1040401.00
 1150.44        2966.25           2374      242442.00   1097011.00
 1150.47        2966.50           2378      251609.00   1140162.00
 1150.50        2966.75           2381      254703.00   1154755.00
 1150.53        2967.00           2385      255825.00   1160051.00
 1150.56        2967.25           2388      255769.00   1159787.00
 1150.59        2967.50           2392      255929.00   1160542.00
 1150.62        2967.75           2395      255414.00   1158111.00
 1150.65        2968.00           2399      251104.00   1137781.00
 1150.68        2968.25           2402      244267.00   1105591.00
 1150.72        2968.50           2406      230925.00   1042980.00
 1150.75        2968.75           2409      218872.00    986651.00
 1150.78        2969.00           2413      205265.00    923321.50
 1150.81        2969.25           2417      191416.00    859149.10
 1150.84        2969.50           2420      180750.00    809918.90
 1150.87        2969.75           2424      165961.00    741933.80
 1150.90        2970.00           2427      154989.00    691700.50
 1150.93        2970.25           2431      140074.00    623692.00
 1150.96        2970.50           2434      129251.00    574540.30
 1150.99        2970.75           2438      112385.00    498274.00
 1151.02        2971.00           2441      100339.00    444046.50
 1151.05        2971.25           2445       84695.00    373921.20
 1151.08        2971.50           2449       70134.00    308951.50
 1151.11        2971.75           2452       59622.00    262226.90
 1151.14        2972.00           2456       44761.00    196424.70
 1151.17        2972.25           2459       33400.00    146318.50
 1151.20        2972.50           2463       19664.00     85965.37
 1151.24        2972.75           2466       10680.00     46625.30
 1151.27        2973.00           2470        3489.00     15212.31
 1151.30        2973.25           2473        1852.00      8070.65
 1151.33        2973.50           2477        1378.00      6003.41
 1151.36        2973.75           2481        1348.00      5872.58
 1151.39        2974.00           2484        1259.00      5484.46
 1151.42        2974.25           2488        1268.00      5523.71
 1151.45        2974.50           2491        1274.00      5549.87
 1151.48        2974.75           2495        1210.00      5270.78
 1151.51        2975.00           2498        1191.00      5187.93
 1151.54        2975.25           2502        1201.00      5231.53
 1151.57        2975.50           2505        1147.00      4996.05
 1151.60        2975.75           2509        1141.00      4969.89
 1151.63        2976.00           2512        1129.00      4917.56
 1151.66        2976.25           2516        1150.00      5009.14
 1151.69        2976.50           2520        1111.00      4839.07
 1151.72        2976.75           2523        1108.00      4825.99
 1151.76        2977.00           2527        1080.00      4703.89
 1151.79        2977.25           2530        1109.00      4830.35
 1151.82        2977.50           2534        1081.00      4708.25
 1151.85        2977.75           2537        1088.00      4738.78
 1151.88        2978.00           2541        1065.00      4638.48
 1151.91        2978.25           2544        1056.00      4599.24
 1151.94        2978.50           2548        1046.00      4555.63
 1151.97        2978.75           2552        1046.00      4555.63
 1152.00        2979.00           2555        1051.00      4577.43
 1152.03        2979.25           2559         995.00      4333.25
 1152.06        2979.50           2562        1015.00      4420.46
 1152.09        2979.75           2566        1004.00      4372.49
 1152.12        2980.00           2569        1003.00      4368.13
 1152.15        2980.25           2573         983.00      4280.92
 1152.18        2980.50           2577         974.00      4241.68
 1152.21        2980.75           2580         989.00      4307.08
 1152.24        2981.00           2584         980.00      4267.84
 1152.27        2981.25           2587         966.00      4206.79
 1152.31        2981.50           2591         983.00      4280.92
 1152.34        2981.75           2594         969.00      4219.87
 1152.37        2982.00           2598         937.00      4080.34
 1152.40        2982.25           2601         956.00      4163.19
 1152.43        2982.50           2605         966.00      4206.79
 1152.46        2982.75           2609         960.00      4180.63
 1152.49        2983.00           2612         947.00      4123.94
 1152.52        2983.25           2616         986.00      4294.00
 1152.55        2983.50           2619         934.00      4067.26
 1152.58        2983.75           2623         961.00      4184.99
 1152.61        2984.00           2626         922.00      4014.93
HS scan finished at 19:12:50
end
