************************************************************
  HS Scan of (1) Internal mercury lamp
************************************************************
Integration time is 0.2294 seconds per sample
dh190319Reading 51.44 .94 2.92pr1000
************************************************************
Dead Time -------------------------  3.4E-08 
Number of Cycles Used -------------  4 
Starting Wavelength (Angstroms) ---  2950 
Final Wavelength (Angstoms) -------  2984 
Wavelength Increment (Angstroms) --  .25 
Filter Wheel #1 Position ---------- (1) Ground quartz diffuser (ND=2.32)
Filter Wheel #2 Position ---------- (1) Neutral Density 0.494



************************************************************
HS scan start time = 03:12:43
Dark Count =  .8 


Time (GMT)  Wavelength (Ang)  Step Number  Raw Counts  Counts/Second

  193.62        2950.00           2144        1654.00      7208.39
  193.81        2950.25           2147        1669.00      7273.81
  193.84        2950.50           2151        1637.00      7134.25
  193.87        2950.75           2155        1722.00      7504.97
  193.91        2951.00           2158        1640.00      7147.33
  193.94        2951.25           2162        1683.00      7334.87
  193.97        2951.50           2165        1641.00      7151.70
  194.00        2951.75           2169        1688.00      7356.68
  194.03        2952.00           2172        1688.00      7356.68
  194.06        2952.25           2176        1732.00      7548.58
  194.09        2952.50           2179        1683.00      7334.87
  194.12        2952.75           2183        1690.00      7365.40
  194.15        2953.00           2186        1678.00      7313.06
  194.18        2953.25           2190        1686.00      7347.96
  194.21        2953.50           2193        1724.00      7513.69
  194.24        2953.75           2197        1684.00      7339.23
  194.28        2954.00           2200        1754.00      7644.53
  194.32        2954.25           2204        1719.00      7491.88
  194.35        2954.50           2208        1763.00      7683.79
  194.38        2954.75           2211        1719.00      7491.88
  194.41        2955.00           2215        1747.00      7614.00
  194.44        2955.25           2218        1778.00      7749.21
  194.47        2955.50           2222        1783.00      7771.02
  194.50        2955.75           2225        1807.00      7875.69
  194.53        2956.00           2229        1777.00      7744.85
  194.56        2956.25           2232        1798.00      7836.44
  194.59        2956.50           2236        1795.00      7823.35
  194.62        2956.75           2239        1826.00      7958.56
  194.65        2957.00           2243        1846.00      8045.79
  194.69        2957.25           2246        1851.00      8067.60
  194.72        2957.50           2250        1848.00      8054.52
  194.75        2957.75           2254        1874.00      8167.92
  194.78        2958.00           2257        1916.00      8351.11
  194.81        2958.25           2261        1936.00      8438.34
  194.84        2958.50           2264        1887.00      8224.62
  194.87        2958.75           2268        1938.00      8447.06
  194.90        2959.00           2271        1986.00      8656.43
  194.93        2959.25           2275        2017.00      8791.64
  194.96        2959.50           2278        2072.00      9031.54
  194.99        2959.75           2282        2043.00      8905.05
  195.02        2960.00           2285        2039.00      8887.60
  195.05        2960.25           2289        2093.00      9123.14
  195.08        2960.50           2293        2158.00      9406.67
  195.11        2960.75           2296        2225.00      9698.93
  195.14        2961.00           2300        2400.00     10462.31
  195.17        2961.25           2303        3534.00     15409.99
  195.21        2961.50           2307       11066.00     48314.70
  195.24        2961.75           2310       22789.00     99675.50
  195.27        2962.00           2314       44093.00    193475.10
  195.30        2962.25           2317       62468.00    274863.60
  195.33        2962.50           2321       85869.00    379173.40
  195.36        2962.75           2324      104694.00    463629.50
  195.39        2963.00           2328      131109.00    582967.80
  195.42        2963.25           2331      152194.00    678933.10
  195.45        2963.50           2335      180757.00    809952.50
  195.48        2963.75           2339      205199.00    923016.40
  195.51        2964.00           2342      223362.00   1007611.00
  195.54        2964.25           2346      249081.00   1128251.00
  195.57        2964.50           2349      268740.00   1221150.00
  195.60        2964.75           2353      297285.00   1357118.00
  195.63        2965.00           2356      315666.00   1445358.00
  195.66        2965.25           2360      337959.00   1553112.00
  195.69        2965.50           2363      355530.00   1638618.00
  195.73        2965.75           2367      377948.00   1748459.00
  195.76        2966.00           2370      395018.00   1832668.00
  195.79        2966.25           2374      417530.00   1944490.00
  195.82        2966.50           2378      433281.00   2023256.00
  195.85        2966.75           2381      438179.00   2047839.00
  195.88        2967.00           2385      440172.00   2057854.00
  195.91        2967.25           2388      439882.00   2056396.00
  195.94        2967.50           2392      439967.00   2056823.00
  195.97        2967.75           2395      439681.00   2055386.00
  196.00        2968.00           2399      433918.00   2026451.00
  196.03        2968.25           2402      423497.00   1974278.00
  196.06        2968.50           2406      402004.00   1867275.00
  196.09        2968.75           2409      385030.00   1783335.00
  196.12        2969.00           2413      361259.00   1666608.00
  196.15        2969.25           2417      336758.00   1547286.00
  196.18        2969.50           2420      319442.00   1463553.00
  196.21        2969.75           2424      294375.00   1343198.00
  196.24        2970.00           2427      271796.00   1235646.00
  196.28        2970.25           2431      242429.00   1096951.00
  196.31        2970.50           2434      221167.00    997361.00
  196.34        2970.75           2438      194519.00    873504.20
  196.37        2971.00           2441      174204.00    779789.00
  196.40        2971.25           2445      148653.00    662772.50
  196.43        2971.50           2449      122208.00    542645.40
  196.46        2971.75           2452      101342.00    448555.30
  196.49        2972.00           2456       74273.00    327391.40
  196.52        2972.25           2459       54043.00    237490.60
  196.55        2972.50           2463       30349.00    132892.90
  196.58        2972.75           2466       16061.00     70176.84
  196.61        2973.00           2470        5545.00     24188.15
  196.64        2973.25           2473        3016.00     13149.73
  196.67        2973.50           2477        2368.00     10322.72
  196.70        2973.75           2481        2184.00      9520.08
  196.73        2974.00           2484        2197.00      9576.79
  196.76        2974.25           2488        2096.00      9136.23
  196.80        2974.50           2491        2116.00      9223.47
  196.83        2974.75           2495        2071.00      9027.18
  196.86        2975.00           2498        1999.00      8713.13
  196.89        2975.25           2502        1998.00      8708.77
  196.92        2975.50           2505        1972.00      8595.36
  196.95        2975.75           2509        1944.00      8473.23
  196.98        2976.00           2512        1896.00      8263.87
  197.01        2976.25           2516        1911.00      8329.30
  197.04        2976.50           2520        1866.00      8133.02
  197.07        2976.75           2523        1900.00      8281.32
  197.10        2977.00           2527        1834.00      7993.45
  197.13        2977.25           2530        1786.00      7784.10
  197.16        2977.50           2534        1813.00      7901.86
  197.19        2977.75           2537        1780.00      7757.93
  197.22        2978.00           2541        1736.00      7566.03
  197.25        2978.25           2544        1756.00      7653.26
  197.28        2978.50           2548        1748.00      7618.36
  197.32        2978.75           2552        1717.00      7483.16
  197.35        2979.00           2555        1691.00      7369.76
  197.38        2979.25           2559        1707.00      7439.55
  197.41        2979.50           2562        1690.00      7365.40
  197.44        2979.75           2566        1746.00      7609.64
  197.47        2980.00           2569        1681.00      7326.15
  197.50        2980.25           2573        1665.00      7256.37
  197.53        2980.50           2577        1641.00      7151.70
  197.56        2980.75           2580        1666.00      7260.73
  197.59        2981.00           2584        1656.00      7217.12
  197.62        2981.25           2587        1624.00      7077.55
  197.65        2981.50           2591        1623.00      7073.19
  197.68        2981.75           2594        1623.00      7073.19
  197.71        2982.00           2598        1609.00      7012.13
  197.74        2982.25           2601        1599.00      6968.52
  197.77        2982.50           2605        1576.00      6868.21
  197.80        2982.75           2609        1587.00      6916.19
  197.84        2983.00           2612        1561.00      6802.79
  197.87        2983.25           2616        1608.00      7007.77
  197.90        2983.50           2619        1574.00      6859.49
  197.93        2983.75           2623        1600.00      6972.88
  197.96        2984.00           2626        1553.00      6767.91
HS scan finished at 03:18:11
end
************************************************************
  HS Scan of (1) Internal mercury lamp
************************************************************
Integration time is 0.2294 seconds per sample
dh190319Reading 51.44 .94 3.25pr1000
************************************************************
Dead Time -------------------------  3.4E-08 
Number of Cycles Used -------------  4 
Starting Wavelength (Angstroms) ---  2950 
Final Wavelength (Angstoms) -------  2984 
Wavelength Increment (Angstroms) --  .25 
Filter Wheel #1 Position ---------- (1) Ground quartz diffuser (ND=2.32)
Filter Wheel #2 Position ---------- (1) Neutral Density 0.494



************************************************************
HS scan start time = 19:07:31
Dark Count =  1.2 


Time (GMT)  Wavelength (Ang)  Step Number  Raw Counts  Counts/Second

 1148.42        2950.00           2144        1521.00      6626.60
 1148.61        2950.25           2147        1573.00      6853.38
 1148.64        2950.50           2151        1543.00      6722.55
 1148.67        2950.75           2155        1570.00      6840.30
 1148.70        2951.00           2158        1603.00      6984.22
 1148.73        2951.25           2162        1573.00      6853.38
 1148.76        2951.50           2165        1590.00      6927.53
 1148.79        2951.75           2169        1540.00      6709.47
 1148.82        2952.00           2172        1598.00      6962.42
 1148.85        2952.25           2176        1551.00      6757.44
 1148.88        2952.50           2179        1612.00      7023.47
 1148.92        2952.75           2183        1582.00      6892.64
 1148.95        2953.00           2186        1598.00      6962.42
 1148.98        2953.25           2190        1636.00      7128.14
 1149.01        2953.50           2193        1562.00      6805.41
 1149.04        2953.75           2197        1633.00      7115.06
 1149.07        2954.00           2200        1644.00      7163.03
 1149.10        2954.25           2204        1653.00      7202.29
 1149.13        2954.50           2208        1666.00      7258.98
 1149.16        2954.75           2211        1649.00      7184.84
 1149.19        2955.00           2215        1655.00      7211.01
 1149.22        2955.25           2218        1680.00      7320.04
 1149.25        2955.50           2222        1726.00      7520.67
 1149.28        2955.75           2225        1717.00      7481.42
 1149.31        2956.00           2229        1678.00      7311.32
 1149.34        2956.25           2232        1722.00      7503.22
 1149.37        2956.50           2236        1697.00      7394.19
 1149.40        2956.75           2239        1731.00      7542.47
 1149.44        2957.00           2243        1720.00      7494.50
 1149.47        2957.25           2246        1754.00      7642.79
 1149.50        2957.50           2250        1811.00      7891.39
 1149.53        2957.75           2254        1818.00      7921.93
 1149.56        2958.00           2257        1832.00      7982.99
 1149.59        2958.25           2261        1836.00      8000.43
 1149.62        2958.50           2264        1865.00      8126.92
 1149.65        2958.75           2268        1879.00      8187.98
 1149.68        2959.00           2271        1921.00      8371.17
 1149.71        2959.25           2275        1932.00      8419.15
 1149.74        2959.50           2278        1966.00      8567.45
 1149.77        2959.75           2282        1990.00      8672.13
 1149.80        2960.00           2285        1972.00      8593.62
 1149.83        2960.25           2289        2017.00      8789.90
 1149.86        2960.50           2293        2114.00      9213.00
 1149.89        2960.75           2296        2090.00      9108.31
 1149.92        2961.00           2300        2267.00      9880.39
 1149.96        2961.25           2303        2862.00     12476.09
 1149.99        2961.50           2307        8504.00     37112.19
 1150.02        2961.75           2310       19820.00     86648.98
 1150.05        2962.00           2314       38354.00    168146.00
 1150.08        2962.25           2317       55526.00    244060.50
 1150.11        2962.50           2321       80965.00    357250.30
 1150.14        2962.75           2324      100002.00    442531.80
 1150.17        2963.00           2328      126758.00    563241.60
 1150.20        2963.25           2331      146999.00    655228.10
 1150.23        2963.50           2335      175246.00    784579.30
 1150.26        2963.75           2339      204807.00    921194.20
 1150.29        2964.00           2342      223990.00   1010542.00
 1150.32        2964.25           2346      248791.00   1126883.00
 1150.35        2964.50           2349      267558.00   1215546.00
 1150.38        2964.75           2353      294266.00   1342675.00
 1150.41        2965.00           2356      315317.00   1443676.00
 1150.44        2965.25           2360      341610.00   1570835.00
 1150.48        2965.50           2363      359291.00   1656985.00
 1150.51        2965.75           2367      383899.00   1777758.00
 1150.54        2966.00           2370      401226.00   1863415.00
 1150.57        2966.25           2374      422343.00   1968511.00
 1150.60        2966.50           2378      443002.00   2072085.00
 1150.63        2966.75           2381      449871.00   2106691.00
 1150.66        2967.00           2385      452768.00   2121312.00
 1150.69        2967.25           2388      453722.00   2126130.00
 1150.72        2967.50           2392      453033.00   2122650.00
 1150.75        2967.75           2395      453479.00   2124902.00
 1150.78        2968.00           2399      449690.00   2105778.00
 1150.81        2968.25           2402      441163.00   2062835.00
 1150.84        2968.50           2406      421839.00   1965993.00
 1150.87        2968.75           2409      404168.00   1878010.00
 1150.90        2969.00           2413      377538.00   1746441.00
 1150.93        2969.25           2417      350845.00   1615768.00
 1150.97        2969.50           2420      332094.00   1524683.00
 1151.00        2969.75           2424      307764.00   1407355.00
 1151.03        2970.00           2427      288275.00   1314060.00
 1151.06        2970.25           2431      261120.00   1185069.00
 1151.09        2970.50           2434      239135.00   1081475.00
 1151.12        2970.75           2438      210815.00    949118.20
 1151.15        2971.00           2441      189329.00    849502.70
 1151.18        2971.25           2445      162129.00    724369.50
 1151.21        2971.50           2449      134985.00    600559.60
 1151.24        2971.75           2452      115204.00    510993.00
 1151.27        2972.00           2456       88568.00    391250.40
 1151.30        2972.25           2459       66362.00    292167.80
 1151.33        2972.50           2463       39162.00    171709.20
 1151.36        2972.75           2466       22303.00     97540.91
 1151.39        2973.00           2470        7573.00     33044.08
 1151.42        2973.25           2473        3619.00     15779.17
 1151.45        2973.50           2477        2397.00     10447.48
 1151.48        2973.75           2481        2196.00      9570.68
 1151.52        2974.00           2484        2174.00      9474.72
 1151.55        2974.25           2488        2112.00      9204.28
 1151.58        2974.50           2491        2023.00      8816.07
 1151.61        2974.75           2495        1996.00      8698.30
 1151.64        2975.00           2498        1984.00      8645.96
 1151.67        2975.25           2502        1956.00      8523.83
 1151.70        2975.50           2505        1906.00      8305.75
 1151.73        2975.75           2509        1876.00      8174.90
 1151.76        2976.00           2512        1840.00      8017.88
 1151.79        2976.25           2516        1847.00      8048.41
 1151.82        2976.50           2520        1830.00      7974.26
 1151.85        2976.75           2523        1805.00      7865.23
 1151.88        2977.00           2527        1775.00      7734.38
 1151.91        2977.25           2530        1776.00      7738.74
 1151.94        2977.50           2534        1757.00      7655.87
 1151.97        2977.75           2537        1729.00      7533.75
 1152.00        2978.00           2541        1686.00      7346.21
 1152.04        2978.25           2544        1705.00      7429.08
 1152.07        2978.50           2548        1672.00      7285.15
 1152.10        2978.75           2552        1636.00      7128.14
 1152.13        2979.00           2555        1631.00      7106.34
 1152.16        2979.25           2559        1628.00      7093.25
 1152.19        2979.50           2562        1593.00      6940.61
 1152.22        2979.75           2566        1606.00      6997.31
 1152.25        2980.00           2569        1586.00      6910.08
 1152.28        2980.25           2573        1617.00      7045.28
 1152.31        2980.50           2577        1595.00      6949.33
 1152.34        2980.75           2580        1600.00      6971.14
 1152.37        2981.00           2584        1567.00      6827.22
 1152.40        2981.25           2587        1548.00      6744.35
 1152.43        2981.50           2591        1550.00      6753.08
 1152.46        2981.75           2594        1549.00      6748.72
 1152.49        2982.00           2598        1540.00      6709.47
 1152.52        2982.25           2601        1576.00      6866.47
 1152.56        2982.50           2605        1537.00      6696.38
 1152.59        2982.75           2609        1514.00      6596.07
 1152.62        2983.00           2612        1447.00      6303.88
 1152.65        2983.25           2616        1550.00      6753.08
 1152.68        2983.50           2619        1513.00      6591.71
 1152.71        2983.75           2623        1506.00      6561.19
 1152.74        2984.00           2626        1492.00      6500.13
HS scan finished at 19:12:58
end
