************************************************************
  HS Scan of (1) Internal mercury lamp
************************************************************
Integration time is 0.2294 seconds per sample
dh150319Reading 51.44 .94 3.01pr1000
************************************************************
Dead Time -------------------------  3.4E-08 
Number of Cycles Used -------------  4 
Starting Wavelength (Angstroms) ---  2950 
Final Wavelength (Angstoms) -------  2984 
Wavelength Increment (Angstroms) --  .25 
Filter Wheel #1 Position ---------- (1) Ground quartz diffuser (ND=2.32)
Filter Wheel #2 Position ---------- (1) Neutral Density 0.494



************************************************************
HS scan start time = 03:26:09
Dark Count =  .8 


Time (GMT)  Wavelength (Ang)  Step Number  Raw Counts  Counts/Second

  207.06        2950.00           2144        1631.00      7108.08
  207.25        2950.25           2147        1609.00      7012.13
  207.28        2950.50           2151        1639.00      7142.97
  207.31        2950.75           2155        1607.00      7003.41
  207.34        2951.00           2158        1610.00      7016.49
  207.37        2951.25           2162        1649.00      7186.59
  207.40        2951.50           2165        1668.00      7269.45
  207.43        2951.75           2169        1629.00      7099.36
  207.46        2952.00           2172        1628.00      7095.00
  207.50        2952.25           2176        1641.00      7151.70
  207.53        2952.50           2179        1666.00      7260.73
  207.56        2952.75           2183        1696.00      7391.57
  207.59        2953.00           2186        1681.00      7326.15
  207.62        2953.25           2190        1696.00      7391.57
  207.65        2953.50           2193        1706.00      7435.18
  207.68        2953.75           2197        1703.00      7422.10
  207.71        2954.00           2200        1695.00      7387.21
  207.74        2954.25           2204        1702.00      7417.74
  207.77        2954.50           2208        1719.00      7491.88
  207.80        2954.75           2211        1700.00      7409.01
  207.83        2955.00           2215        1744.00      7600.92
  207.86        2955.25           2218        1724.00      7513.69
  207.89        2955.50           2222        1779.00      7753.57
  207.92        2955.75           2225        1784.00      7775.38
  207.95        2956.00           2229        1766.00      7696.87
  207.98        2956.25           2232        1779.00      7753.57
  208.02        2956.50           2236        1777.00      7744.85
  208.05        2956.75           2239        1820.00      7932.39
  208.08        2957.00           2243        1775.00      7736.12
  208.11        2957.25           2246        1810.00      7888.78
  208.14        2957.50           2250        1854.00      8080.69
  208.17        2957.75           2254        1857.00      8093.77
  208.20        2958.00           2257        1874.00      8167.92
  208.23        2958.25           2261        1886.00      8220.26
  208.26        2958.50           2264        1931.00      8416.53
  208.29        2958.75           2268        1987.00      8660.79
  208.32        2959.00           2271        1982.00      8638.98
  208.35        2959.25           2275        1997.00      8704.41
  208.38        2959.50           2278        1977.00      8617.17
  208.41        2959.75           2282        2027.00      8835.26
  208.44        2960.00           2285        2105.00      9175.49
  208.47        2960.25           2289        2117.00      9227.83
  208.50        2960.50           2293        2143.00      9341.24
  208.53        2960.75           2296        2228.00      9712.01
  208.57        2961.00           2300        2349.00     10239.83
  208.60        2961.25           2303        2980.00     12992.66
  208.63        2961.50           2307        7911.00     34522.63
  208.66        2961.75           2310       18577.00     81201.21
  208.69        2962.00           2314       40411.00    177220.70
  208.72        2962.25           2317       59341.00    260981.20
  208.75        2962.50           2321       85690.00    378372.70
  208.78        2962.75           2324      106345.00    471059.90
  208.81        2963.00           2328      132557.00    589538.00
  208.84        2963.25           2331      151435.00    675467.60
  208.87        2963.50           2335      177995.00    797231.40
  208.90        2963.75           2339      205757.00    925607.90
  208.93        2964.00           2342      228251.00   1030466.00
  208.96        2964.25           2346      256927.00   1165256.00
  208.99        2964.50           2349      275280.00   1252189.00
  209.02        2964.75           2353      301357.00   1376619.00
  209.05        2965.00           2356      319077.00   1461793.00
  209.09        2965.25           2360      344096.00   1582919.00
  209.12        2965.50           2363      363645.00   1678281.00
  209.15        2965.75           2367      388396.00   1799942.00
  209.18        2966.00           2370      405332.00   1883791.00
  209.21        2966.25           2374      427995.00   1996774.00
  209.24        2966.50           2378      444395.00   2079098.00
  209.27        2966.75           2381      448594.00   2100253.00
  209.30        2967.00           2385      450459.00   2109659.00
  209.33        2967.25           2388      450197.00   2108338.00
  209.36        2967.50           2392      450549.00   2110114.00
  209.39        2967.75           2395      450010.00   2107394.00
  209.42        2968.00           2399      443229.00   2073229.00
  209.45        2968.25           2402      430942.00   2011532.00
  209.48        2968.50           2406      410765.00   1910794.00
  209.51        2968.75           2409      393914.00   1827207.00
  209.54        2969.00           2413      370050.00   1709665.00
  209.57        2969.25           2417      344323.00   1584022.00
  209.61        2969.50           2420      326429.00   1497280.00
  209.64        2969.75           2424      301113.00   1375450.00
  209.67        2970.00           2427      281186.00   1280276.00
  209.70        2970.25           2431      255899.00   1160402.00
  209.73        2970.50           2434      236673.00   1069923.00
  209.76        2970.75           2438      208198.00    936950.10
  209.79        2971.00           2441      185198.00    830430.30
  209.82        2971.25           2445      156111.00    696830.80
  209.85        2971.50           2449      128926.00    573068.30
  209.88        2971.75           2452      109980.00    487432.70
  209.91        2972.00           2456       83685.00    369406.70
  209.94        2972.25           2459       63428.00    279128.20
  209.97        2972.50           2463       38845.00    170312.90
  210.01        2972.75           2466       22326.00     97643.59
  210.05        2973.00           2470        7437.00     32451.66
  210.08        2973.25           2473        3534.00     15409.99
  210.11        2973.50           2477        2374.00     10348.89
  210.14        2973.75           2481        2263.00      9864.69
  210.17        2974.00           2484        2196.00      9572.43
  210.20        2974.25           2488        2098.00      9144.95
  210.23        2974.50           2491        2107.00      9184.21
  210.26        2974.75           2495        2017.00      8791.64
  210.29        2975.00           2498        2030.00      8848.35
  210.32        2975.25           2502        1985.00      8652.07
  210.35        2975.50           2505        2018.00      8796.00
  210.39        2975.75           2509        1975.00      8608.45
  210.42        2976.00           2512        1952.00      8508.13
  210.45        2976.25           2516        1961.00      8547.38
  210.48        2976.50           2520        1868.00      8141.75
  210.51        2976.75           2523        1884.00      8211.53
  210.54        2977.00           2527        1810.00      7888.78
  210.57        2977.25           2530        1793.00      7814.63
  210.60        2977.50           2534        1781.00      7762.29
  210.63        2977.75           2537        1775.00      7736.12
  210.66        2978.00           2541        1741.00      7587.83
  210.69        2978.25           2544        1774.00      7731.76
  210.72        2978.50           2548        1728.00      7531.13
  210.75        2978.75           2552        1714.00      7470.07
  210.78        2979.00           2555        1711.00      7456.99
  210.81        2979.25           2559        1692.00      7374.12
  210.84        2979.50           2562        1707.00      7439.55
  210.87        2979.75           2566        1653.00      7204.03
  210.91        2980.00           2569        1655.00      7212.75
  210.94        2980.25           2573        1647.00      7177.86
  210.97        2980.50           2577        1623.00      7073.19
  211.00        2980.75           2580        1632.00      7112.44
  211.03        2981.00           2584        1600.00      6972.88
  211.06        2981.25           2587        1650.00      7190.95
  211.09        2981.50           2591        1612.00      7025.22
  211.12        2981.75           2594        1576.00      6868.21
  211.15        2982.00           2598        1587.00      6916.19
  211.18        2982.25           2601        1588.00      6920.55
  211.21        2982.50           2605        1615.00      7038.30
  211.24        2982.75           2609        1559.00      6794.07
  211.27        2983.00           2612        1574.00      6859.49
  211.30        2983.25           2616        1534.00      6685.04
  211.33        2983.50           2619        1570.00      6842.05
  211.36        2983.75           2623        1565.00      6820.24
  211.39        2984.00           2626        1538.00      6702.49
HS scan finished at 03:31:37
end
************************************************************
  HS Scan of (1) Internal mercury lamp
************************************************************
Integration time is 0.2294 seconds per sample
dh150319Reading 51.44 .94 3.15pr1000
************************************************************
Dead Time -------------------------  3.4E-08 
Number of Cycles Used -------------  4 
Starting Wavelength (Angstroms) ---  2950 
Final Wavelength (Angstoms) -------  2984 
Wavelength Increment (Angstroms) --  .25 
Filter Wheel #1 Position ---------- (1) Ground quartz diffuser (ND=2.32)
Filter Wheel #2 Position ---------- (1) Neutral Density 0.494



************************************************************
HS scan start time = 19:07:24
Dark Count =  1.1 


Time (GMT)  Wavelength (Ang)  Step Number  Raw Counts  Counts/Second

 1148.30        2950.00           2144        1575.00      6862.54
 1148.50        2950.25           2147        1600.00      6971.57
 1148.53        2950.50           2151        1568.00      6832.01
 1148.56        2950.75           2155        1587.00      6914.88
 1148.59        2951.00           2158        1569.00      6836.38
 1148.62        2951.25           2162        1590.00      6927.96
 1148.65        2951.50           2165        1592.00      6936.68
 1148.68        2951.75           2169        1622.00      7067.52
 1148.71        2952.00           2172        1583.00      6897.43
 1148.74        2952.25           2176        1652.00      7198.36
 1148.77        2952.50           2179        1627.00      7089.33
 1148.80        2952.75           2183        1619.00      7054.44
 1148.83        2953.00           2186        1611.00      7019.55
 1148.86        2953.25           2190        1641.00      7150.39
 1148.89        2953.50           2193        1625.00      7080.61
 1148.92        2953.75           2197        1639.00      7141.66
 1148.95        2954.00           2200        1708.00      7442.60
 1148.98        2954.25           2204        1649.00      7185.28
 1149.02        2954.50           2208        1731.00      7542.91
 1149.05        2954.75           2211        1669.00      7272.50
 1149.08        2955.00           2215        1684.00      7337.93
 1149.11        2955.25           2218        1679.00      7316.12
 1149.14        2955.50           2222        1669.00      7272.50
 1149.17        2955.75           2225        1712.00      7460.04
 1149.20        2956.00           2229        1760.00      7669.39
 1149.23        2956.25           2232        1742.00      7590.89
 1149.26        2956.50           2236        1764.00      7686.84
 1149.29        2956.75           2239        1762.00      7678.12
 1149.32        2957.00           2243        1757.00      7656.31
 1149.35        2957.25           2246        1783.00      7769.71
 1149.38        2957.50           2250        1818.00      7922.36
 1149.41        2957.75           2254        1829.00      7970.34
 1149.44        2958.00           2257        1880.00      8192.78
 1149.47        2958.25           2261        1837.00      8005.23
 1149.50        2958.50           2264        1878.00      8184.06
 1149.54        2958.75           2268        1860.00      8105.55
 1149.57        2959.00           2271        1889.00      8232.03
 1149.60        2959.25           2275        1924.00      8384.69
 1149.63        2959.50           2278        1938.00      8445.76
 1149.66        2959.75           2282        1966.00      8567.88
 1149.69        2960.00           2285        2003.00      8729.27
 1149.72        2960.25           2289        2047.00      8921.19
 1149.75        2960.50           2293        2103.00      9165.45
 1149.78        2960.75           2296        2088.00      9100.03
 1149.81        2961.00           2300        2229.00      9715.06
 1149.84        2961.25           2303        2581.00     11250.60
 1149.87        2961.50           2307        5913.00     25793.76
 1149.90        2961.75           2310       13970.00     61019.67
 1149.93        2962.00           2314       33071.00    144870.10
 1149.96        2962.25           2317       51287.00    225284.40
 1149.99        2962.50           2321       77487.00    341723.80
 1150.02        2962.75           2324       97363.00    430680.30
 1150.06        2963.00           2328      121718.00    540427.50
 1150.09        2963.25           2331      140822.00    627095.10
 1150.12        2963.50           2335      168219.00    752293.30
 1150.15        2963.75           2339      195482.00    877960.40
 1150.18        2964.00           2342      216946.00    977670.10
 1150.21        2964.25           2346      245154.00   1109764.00
 1150.24        2964.50           2349      264320.00   1200210.00
 1150.27        2964.75           2353      290495.00   1324657.00
 1150.30        2965.00           2356      309188.00   1414197.00
 1150.33        2965.25           2360      332173.00   1525066.00
 1150.36        2965.50           2363      351406.00   1618502.00
 1150.39        2965.75           2367      377717.00   1747322.00
 1150.42        2966.00           2370      395125.00   1833196.00
 1150.45        2966.25           2374      416348.00   1938596.00
 1150.48        2966.50           2378      433708.00   2025396.00
 1150.51        2966.75           2381      439780.00   2055882.00
 1150.54        2967.00           2385      443366.00   2073917.00
 1150.58        2967.25           2388      443647.00   2075331.00
 1150.61        2967.50           2392      443523.00   2074707.00
 1150.64        2967.75           2395      443043.00   2072292.00
 1150.67        2968.00           2399      439101.00   2052470.00
 1150.70        2968.25           2402      430330.00   2008464.00
 1150.73        2968.50           2406      411333.00   1913619.00
 1150.76        2968.75           2409      395690.00   1835992.00
 1150.79        2969.00           2413      373258.00   1725408.00
 1150.82        2969.25           2417      347832.00   1601093.00
 1150.85        2969.50           2420      329084.00   1510116.00
 1150.88        2969.75           2424      304153.00   1390024.00
 1150.91        2970.00           2427      285167.00   1299238.00
 1150.94        2970.25           2431      259404.00   1176957.00
 1150.97        2970.50           2434      241728.00   1093656.00
 1151.00        2970.75           2438      215931.00    972939.40
 1151.03        2971.00           2441      193951.00    870874.40
 1151.06        2971.25           2445      165130.00    738123.20
 1151.10        2971.50           2449      137375.00    611419.20
 1151.13        2971.75           2452      117388.00    520855.50
 1151.16        2972.00           2456       92661.00    409587.20
 1151.19        2972.25           2459       73708.00    324871.60
 1151.22        2972.50           2463       47871.00    210170.90
 1151.25        2972.75           2466       29350.00    128497.80
 1151.28        2973.00           2470       10389.00     45352.80
 1151.31        2973.25           2473        4358.00     19004.87
 1151.34        2973.50           2477        2383.00     10386.84
 1151.37        2973.75           2481        2217.00      9662.72
 1151.40        2974.00           2484        2123.00      9252.69
 1151.43        2974.25           2488        2068.00      9012.79
 1151.46        2974.50           2491        2089.00      9104.39
 1151.49        2974.75           2495        2108.00      9187.26
 1151.52        2975.00           2498        2036.00      8873.21
 1151.55        2975.25           2502        1959.00      8537.35
 1151.58        2975.50           2505        1892.00      8245.12
 1151.61        2975.75           2509        1912.00      8332.35
 1151.65        2976.00           2512        1890.00      8236.39
 1151.68        2976.25           2516        1831.00      7979.06
 1151.71        2976.50           2520        1783.00      7769.71
 1151.74        2976.75           2523        1789.00      7795.88
 1151.77        2977.00           2527        1769.00      7708.65
 1151.80        2977.25           2530        1771.00      7717.37
 1151.83        2977.50           2534        1756.00      7651.95
 1151.86        2977.75           2537        1743.00      7595.25
 1151.89        2978.00           2541        1722.00      7503.66
 1151.92        2978.25           2544        1765.00      7691.20
 1151.95        2978.50           2548        1707.00      7438.24
 1151.98        2978.75           2552        1651.00      7194.00
 1152.01        2979.00           2555        1623.00      7071.88
 1152.04        2979.25           2559        1638.00      7137.30
 1152.07        2979.50           2562        1662.00      7241.98
 1152.10        2979.75           2566        1616.00      7041.36
 1152.13        2980.00           2569        1661.00      7237.61
 1152.17        2980.25           2573        1587.00      6914.88
 1152.20        2980.50           2577        1621.00      7063.16
 1152.23        2980.75           2580        1588.00      6919.24
 1152.26        2981.00           2584        1562.00      6805.85
 1152.29        2981.25           2587        1571.00      6845.10
 1152.32        2981.50           2591        1592.00      6936.68
 1152.35        2981.75           2594        1570.00      6840.74
 1152.38        2982.00           2598        1540.00      6709.90
 1152.41        2982.25           2601        1577.00      6871.27
 1152.44        2982.50           2605        1537.00      6696.82
 1152.47        2982.75           2609        1500.00      6535.45
 1152.50        2983.00           2612        1518.00      6613.96
 1152.53        2983.25           2616        1547.00      6740.43
 1152.56        2983.50           2619        1577.00      6871.27
 1152.59        2983.75           2623        1520.00      6622.68
 1152.62        2984.00           2626        1464.00      6378.45
HS scan finished at 19:12:51
end
