************************************************************
  HS Scan of (1) Internal mercury lamp
************************************************************
Integration time is 0.2294 seconds per sample
dh180318Reading 51.44 .94 2.29pr1000
************************************************************
Dead Time -------------------------  3.4E-08 
Number of Cycles Used -------------  4 
Starting Wavelength (Angstroms) ---  2950 
Final Wavelength (Angstoms) -------  2984 
Wavelength Increment (Angstroms) --  .25 
Filter Wheel #1 Position ---------- (1) Ground quartz diffuser (ND=2.32)
Filter Wheel #2 Position ---------- (1) Neutral Density 0.494



************************************************************
HS scan start time = 03:18:05
Dark Count =  .1 


Time (GMT)  Wavelength (Ang)  Step Number  Raw Counts  Counts/Second

  198.99        2950.00           2144         168.00       731.93
  199.18        2950.25           2147         170.00       740.65
  199.21        2950.50           2151         162.00       705.77
  199.24        2950.75           2155         182.00       792.96
  199.27        2951.00           2158         166.00       723.21
  199.30        2951.25           2162         160.00       697.05
  199.33        2951.50           2165         164.00       714.49
  199.36        2951.75           2169         171.00       745.01
  199.39        2952.00           2172         181.00       788.60
  199.42        2952.25           2176         169.00       736.29
  199.46        2952.50           2179         175.00       762.44
  199.49        2952.75           2183         179.00       779.88
  199.52        2953.00           2186         180.00       784.24
  199.55        2953.25           2190         177.00       771.16
  199.58        2953.50           2193         197.00       858.35
  199.61        2953.75           2197         197.00       858.35
  199.64        2954.00           2200         172.00       749.37
  199.67        2954.25           2204         191.00       832.19
  199.70        2954.50           2208         168.00       731.93
  199.73        2954.75           2211         194.00       845.27
  199.76        2955.00           2215         187.00       814.76
  199.79        2955.25           2218         189.00       823.48
  199.82        2955.50           2222         187.00       814.76
  199.85        2955.75           2225         183.00       797.32
  199.88        2956.00           2229         187.00       814.76
  199.91        2956.25           2232         192.00       836.55
  199.94        2956.50           2236         199.00       867.07
  199.97        2956.75           2239         190.00       827.83
  200.01        2957.00           2243         201.00       875.79
  200.04        2957.25           2246         191.00       832.19
  200.07        2957.50           2250         204.00       888.87
  200.10        2957.75           2254         196.00       853.99
  200.13        2958.00           2257         211.00       919.38
  200.16        2958.25           2261         234.00      1019.65
  200.19        2958.50           2264         212.00       923.74
  200.22        2958.75           2268         213.00       928.10
  200.25        2959.00           2271         236.00      1028.37
  200.29        2959.25           2275         221.00       962.98
  200.33        2959.50           2278         248.00      1080.68
  200.36        2959.75           2282         227.00       989.14
  200.39        2960.00           2285         263.00      1146.08
  200.42        2960.25           2289         249.00      1085.04
  200.45        2960.50           2293         257.00      1119.92
  200.48        2960.75           2296         256.00      1115.56
  200.51        2961.00           2300         289.00      1259.43
  200.54        2961.25           2303         442.00      1926.46
  200.57        2961.50           2307        1397.00      6090.62
  200.60        2961.75           2310        3289.00     14343.96
  200.63        2962.00           2314        6563.00     28636.85
  200.66        2962.25           2317        9596.00     41890.05
  200.69        2962.50           2321       13337.00     58253.46
  200.72        2962.75           2324       16252.00     71016.52
  200.75        2963.00           2328       19873.00     86886.21
  200.79        2963.25           2331       22764.00     99568.85
  200.82        2963.50           2335       26853.00    117525.80
  200.85        2963.75           2339       30977.00    135658.70
  200.88        2964.00           2342       33991.00    148925.20
  200.91        2964.25           2346       38008.00    166625.30
  200.94        2964.50           2349       40927.00    179500.60
  200.97        2964.75           2353       44657.00    195969.70
  201.00        2965.00           2356       47504.00    208552.50
  201.03        2965.25           2360       51259.00    225164.90
  201.06        2965.50           2363       54031.00    237440.50
  201.09        2965.75           2367       57886.00    254529.30
  201.12        2966.00           2370       60620.00    266660.90
  201.15        2966.25           2374       63578.00    279797.80
  201.18        2966.50           2378       65403.00    287908.70
  201.21        2966.75           2381       65919.00    290202.90
  201.24        2967.00           2385       66409.00    292381.70
  201.27        2967.25           2388       66439.00    292515.10
  201.31        2967.50           2392       66435.00    292497.30
  201.34        2967.75           2395       65857.00    289927.20
  201.37        2968.00           2399       64527.00    284015.00
  201.40        2968.25           2402       62140.00    273410.00
  201.43        2968.50           2406       58764.00    258424.20
  201.46        2968.75           2409       56153.00    246844.60
  201.49        2969.00           2413       52274.00    229658.60
  201.52        2969.25           2417       48827.00    214403.40
  201.55        2969.50           2420       46077.00    202244.20
  201.58        2969.75           2424       42218.00    185198.70
  201.61        2970.00           2427       39249.00    172097.80
  201.64        2970.25           2431       35537.00    155734.80
  201.67        2970.50           2434       32757.00    143492.20
  201.70        2970.75           2438       28404.00    124342.80
  201.73        2971.00           2441       25293.00    110672.40
  201.76        2971.25           2445       21456.00     93829.38
  201.79        2971.50           2449       17345.00     75804.97
  201.83        2971.75           2452       14726.00     64333.69
  201.86        2972.00           2456       11097.00     48453.35
  201.89        2972.25           2459        8444.00     36854.79
  201.92        2972.50           2463        4838.00     21104.50
  201.95        2972.75           2466        2630.00     11468.73
  201.98        2973.00           2470         833.00      3631.22
  202.01        2973.25           2473         408.00      1778.22
  202.04        2973.50           2477         277.00      1207.11
  202.07        2973.75           2481         296.00      1289.94
  202.10        2974.00           2484         268.00      1167.88
  202.13        2974.25           2488         252.00      1098.12
  202.16        2974.50           2491         260.00      1133.00
  202.19        2974.75           2495         256.00      1115.56
  202.22        2975.00           2498         254.00      1106.84
  202.25        2975.25           2502         240.00      1045.81
  202.28        2975.50           2505         228.00       993.49
  202.31        2975.75           2509         228.00       993.49
  202.35        2976.00           2512         221.00       962.98
  202.38        2976.25           2516         208.00       906.31
  202.41        2976.50           2520         213.00       928.10
  202.44        2976.75           2523         216.00       941.18
  202.47        2977.00           2527         207.00       901.95
  202.50        2977.25           2530         190.00       827.83
  202.53        2977.50           2534         197.00       858.35
  202.56        2977.75           2537         191.00       832.19
  202.59        2978.00           2541         198.00       862.71
  202.62        2978.25           2544         189.00       823.48
  202.65        2978.50           2548         189.00       823.48
  202.68        2978.75           2552         191.00       832.19
  202.71        2979.00           2555         189.00       823.48
  202.74        2979.25           2559         185.00       806.04
  202.77        2979.50           2562         172.00       749.37
  202.80        2979.75           2566         191.00       832.19
  202.83        2980.00           2569         172.00       749.37
  202.86        2980.25           2573         173.00       753.72
  202.90        2980.50           2577         174.00       758.08
  202.93        2980.75           2580         177.00       771.16
  202.96        2981.00           2584         169.00       736.29
  202.99        2981.25           2587         171.00       745.01
  203.02        2981.50           2591         173.00       753.72
  203.05        2981.75           2594         163.00       710.13
  203.08        2982.00           2598         163.00       710.13
  203.11        2982.25           2601         167.00       727.57
  203.14        2982.50           2605         168.00       731.93
  203.17        2982.75           2609         175.00       762.44
  203.20        2983.00           2612         163.00       710.13
  203.23        2983.25           2616         162.00       705.77
  203.26        2983.50           2619         161.00       701.41
  203.29        2983.75           2623         168.00       731.93
  203.32        2984.00           2626         176.00       766.80
HS scan finished at 03:23:33
end
************************************************************
  HS Scan of (1) Internal mercury lamp
************************************************************
Integration time is 0.2294 seconds per sample
dh180318Reading 51.44 .94 2.39pr1000
************************************************************
Dead Time -------------------------  3.4E-08 
Number of Cycles Used -------------  4 
Starting Wavelength (Angstroms) ---  2950 
Final Wavelength (Angstoms) -------  2984 
Wavelength Increment (Angstroms) --  .25 
Filter Wheel #1 Position ---------- (1) Ground quartz diffuser (ND=2.32)
Filter Wheel #2 Position ---------- (1) Neutral Density 0.494



************************************************************
HS scan start time = 19:10:22
Dark Count =  .4 


Time (GMT)  Wavelength (Ang)  Step Number  Raw Counts  Counts/Second

 1151.27        2950.00           2144         168.00       730.62
 1151.46        2950.25           2147         163.00       708.82
 1151.50        2950.50           2151         172.00       748.06
 1151.53        2950.75           2155         170.00       739.34
 1151.56        2951.00           2158         160.00       695.74
 1151.59        2951.25           2162         164.00       713.18
 1151.62        2951.50           2165         156.00       678.31
 1151.65        2951.75           2169         167.00       726.26
 1151.68        2952.00           2172         177.00       769.85
 1151.71        2952.25           2176         178.00       774.21
 1151.74        2952.50           2179         173.00       752.42
 1151.77        2952.75           2183         167.00       726.26
 1151.80        2953.00           2186         180.00       782.93
 1151.83        2953.25           2190         173.00       752.42
 1151.86        2953.50           2193         167.00       726.26
 1151.89        2953.75           2197         173.00       752.42
 1151.92        2954.00           2200         169.00       734.98
 1151.95        2954.25           2204         165.00       717.54
 1151.98        2954.50           2208         167.00       726.26
 1152.02        2954.75           2211         185.00       804.73
 1152.05        2955.00           2215         175.00       761.14
 1152.08        2955.25           2218         175.00       761.14
 1152.11        2955.50           2222         172.00       748.06
 1152.14        2955.75           2225         188.00       817.81
 1152.17        2956.00           2229         188.00       817.81
 1152.20        2956.25           2232         190.00       826.53
 1152.23        2956.50           2236         194.00       843.96
 1152.26        2956.75           2239         191.00       830.89
 1152.29        2957.00           2243         186.00       809.09
 1152.32        2957.25           2246         183.00       796.01
 1152.35        2957.50           2250         196.00       852.68
 1152.38        2957.75           2254         206.00       896.28
 1152.41        2958.00           2257         190.00       826.53
 1152.44        2958.25           2261         194.00       843.96
 1152.47        2958.50           2264         201.00       874.48
 1152.51        2958.75           2268         202.00       878.84
 1152.54        2959.00           2271         210.00       913.72
 1152.57        2959.25           2275         207.00       900.64
 1152.60        2959.50           2278         238.00      1035.78
 1152.63        2959.75           2282         215.00       935.51
 1152.66        2960.00           2285         238.00      1035.78
 1152.69        2960.25           2289         222.00       966.03
 1152.72        2960.50           2293         290.00      1262.48
 1152.75        2960.75           2296         234.00      1018.34
 1152.78        2961.00           2300         283.00      1231.96
 1152.81        2961.25           2303         502.00      2186.74
 1152.84        2961.50           2307        1928.00      8405.19
 1152.87        2961.75           2310        3991.00     17406.12
 1152.90        2962.00           2314        7332.00     31994.68
 1152.93        2962.25           2317        9648.00     42116.07
 1152.96        2962.50           2321       12978.00     56681.06
 1152.99        2962.75           2324       15592.00     68124.47
 1153.03        2963.00           2328       19394.00     84784.59
 1153.06        2963.25           2331       22293.00     97500.55
 1153.09        2963.50           2335       25960.00    113601.00
 1153.12        2963.75           2339       29625.00    129710.30
 1153.15        2964.00           2342       32239.00    141210.80
 1153.18        2964.25           2346       36031.00    157910.10
 1153.21        2964.50           2349       38844.00    170310.30
 1153.24        2964.75           2353       42836.00    187925.80
 1153.27        2965.00           2356       45526.00    199807.90
 1153.30        2965.25           2360       49159.00    215870.70
 1153.33        2965.50           2363       51994.00    228417.50
 1153.36        2965.75           2367       54910.00    241334.00
 1153.39        2966.00           2370       57150.00    251263.90
 1153.42        2966.25           2374       60384.00    265612.00
 1153.45        2966.50           2378       62437.00    274727.70
 1153.48        2966.75           2381       62950.00    277006.50
 1153.51        2967.00           2385       62943.00    276975.30
 1153.55        2967.25           2388       62845.00    276540.00
 1153.59        2967.50           2392       62958.00    277042.00
 1153.62        2967.75           2395       62405.00    274585.60
 1153.65        2968.00           2399       60758.00    267272.20
 1153.68        2968.25           2402       58314.00    256426.50
 1153.71        2968.50           2406       54611.00    240009.00
 1153.74        2968.75           2409       52255.00    229573.10
 1153.77        2969.00           2413       48872.00    214601.10
 1153.80        2969.25           2417       45743.00    200766.90
 1153.83        2969.50           2420       42942.00    188393.80
 1153.86        2969.75           2424       39614.00    173706.40
 1153.89        2970.00           2427       36272.00    158972.00
 1153.93        2970.25           2431       32209.00    141078.80
 1153.96        2970.50           2434       29539.00    129332.10
 1153.99        2970.75           2438       25953.00    113570.20
 1154.02        2971.00           2441       23485.00    102732.20
 1154.05        2971.25           2445       19936.00     87161.14
 1154.08        2971.50           2449       16366.00     71514.57
 1154.11        2971.75           2452       13943.00     60904.54
 1154.14        2972.00           2456       10353.00     45198.44
 1154.17        2972.25           2459        7523.00     32829.13
 1154.20        2972.50           2463        4004.00     17462.85
 1154.23        2972.75           2466        2135.00      9308.09
 1154.26        2973.00           2470         728.00      3172.09
 1154.29        2973.25           2473         350.00      1524.05
 1154.32        2973.50           2477         271.00      1179.65
 1154.35        2973.75           2481         263.00      1144.77
 1154.38        2974.00           2484         248.00      1079.38
 1154.41        2974.25           2488         215.00       935.51
 1154.44        2974.50           2491         230.00      1000.91
 1154.48        2974.75           2495         226.00       983.47
 1154.51        2975.00           2498         231.00      1005.27
 1154.54        2975.25           2502         209.00       909.36
 1154.57        2975.50           2505         263.00      1144.77
 1154.60        2975.75           2509         204.00       887.56
 1154.63        2976.00           2512         194.00       843.96
 1154.66        2976.25           2516         196.00       852.68
 1154.69        2976.50           2520         193.00       839.61
 1154.72        2976.75           2523         190.00       826.53
 1154.75        2977.00           2527         195.00       848.32
 1154.78        2977.25           2530         179.00       778.57
 1154.81        2977.50           2534         194.00       843.96
 1154.84        2977.75           2537         184.00       800.37
 1154.87        2978.00           2541         180.00       782.93
 1154.90        2978.25           2544         158.00       687.03
 1154.93        2978.50           2548         174.00       756.78
 1154.97        2978.75           2552         179.00       778.57
 1155.00        2979.00           2555         159.00       691.39
 1155.03        2979.25           2559         162.00       704.46
 1155.06        2979.50           2562         166.00       721.90
 1155.09        2979.75           2566         161.00       700.10
 1155.12        2980.00           2569         167.00       726.26
 1155.15        2980.25           2573         163.00       708.82
 1155.18        2980.50           2577         163.00       708.82
 1155.21        2980.75           2580         161.00       700.10
 1155.24        2981.00           2584         170.00       739.34
 1155.27        2981.25           2587         174.00       756.78
 1155.30        2981.50           2591         151.00       656.51
 1155.33        2981.75           2594         164.00       713.18
 1155.36        2982.00           2598         172.00       748.06
 1155.39        2982.25           2601         156.00       678.31
 1155.42        2982.50           2605         159.00       691.39
 1155.45        2982.75           2609         151.00       656.51
 1155.48        2983.00           2612         158.00       687.03
 1155.52        2983.25           2616         154.00       669.59
 1155.55        2983.50           2619         152.00       660.87
 1155.58        2983.75           2623         174.00       756.78
 1155.61        2984.00           2626         150.00       652.15
HS scan finished at 19:15:50
end
