************************************************************
  HS Scan of (1) Internal mercury lamp
************************************************************
Integration time is 0.2294 seconds per sample
dh160319Reading 51.44 .94 3.03pr1000
************************************************************
Dead Time -------------------------  3.4E-08 
Number of Cycles Used -------------  4 
Starting Wavelength (Angstroms) ---  2950 
Final Wavelength (Angstoms) -------  2984 
Wavelength Increment (Angstroms) --  .25 
Filter Wheel #1 Position ---------- (1) Ground quartz diffuser (ND=2.32)
Filter Wheel #2 Position ---------- (1) Neutral Density 0.494



************************************************************
HS scan start time = 03:22:55
Dark Count =  1 


Time (GMT)  Wavelength (Ang)  Step Number  Raw Counts  Counts/Second

  203.81        2950.00           2144        1632.00      7111.57
  204.01        2950.25           2147        1644.00      7163.91
  204.04        2950.50           2151        1649.00      7185.71
  204.07        2950.75           2155        1639.00      7142.10
  204.10        2951.00           2158        1600.00      6972.01
  204.13        2951.25           2162        1646.00      7172.63
  204.16        2951.50           2165        1686.00      7347.08
  204.19        2951.75           2169        1660.00      7233.69
  204.22        2952.00           2172        1650.00      7190.07
  204.25        2952.25           2176        1646.00      7172.63
  204.28        2952.50           2179        1677.00      7307.83
  204.31        2952.75           2183        1651.00      7194.44
  204.34        2953.00           2186        1661.00      7238.05
  204.37        2953.25           2190        1684.00      7338.36
  204.40        2953.50           2193        1701.00      7412.50
  204.43        2953.75           2197        1690.00      7364.53
  204.47        2954.00           2200        1726.00      7521.54
  204.50        2954.25           2204        1699.00      7403.78
  204.53        2954.50           2208        1707.00      7438.67
  204.56        2954.75           2211        1729.00      7534.62
  204.59        2955.00           2215        1711.00      7456.12
  204.62        2955.25           2218        1754.00      7643.66
  204.65        2955.50           2222        1736.00      7565.15
  204.68        2955.75           2225        1757.00      7656.75
  204.71        2956.00           2229        1764.00      7687.28
  204.74        2956.25           2232        1760.00      7669.83
  204.77        2956.50           2236        1804.00      7861.74
  204.80        2956.75           2239        1792.00      7809.40
  204.83        2957.00           2243        1825.00      7953.33
  204.86        2957.25           2246        1850.00      8062.37
  204.89        2957.50           2250        1831.00      7979.50
  204.92        2957.75           2254        1859.00      8101.62
  204.95        2958.00           2257        1896.00      8263.00
  204.99        2958.25           2261        1924.00      8385.13
  205.02        2958.50           2264        1890.00      8236.83
  205.05        2958.75           2268        1920.00      8367.68
  205.08        2959.00           2271        2010.00      8760.24
  205.11        2959.25           2275        1992.00      8681.73
  205.14        2959.50           2278        2029.00      8843.11
  205.17        2959.75           2282        2006.00      8742.79
  205.20        2960.00           2285        2038.00      8882.37
  205.23        2960.25           2289        2104.00      9170.25
  205.26        2960.50           2293        2153.00      9383.99
  205.29        2960.75           2296        2223.00      9689.33
  205.32        2961.00           2300        2448.00     10670.83
  205.35        2961.25           2303        3292.00     14353.12
  205.38        2961.50           2307        9517.00     41540.76
  205.41        2961.75           2310       20985.00     91759.24
  205.44        2962.00           2314       42709.00    187362.40
  205.47        2962.25           2317       61184.00    269160.80
  205.51        2962.50           2321       88507.00    390978.20
  205.54        2962.75           2324      109792.00    486584.50
  205.57        2963.00           2328      138786.00    617834.40
  205.60        2963.25           2331      160079.00    714983.00
  205.63        2963.50           2335      185881.00    833581.30
  205.66        2963.75           2339      211139.00    950626.60
  205.69        2964.00           2342      232383.00   1049810.00
  205.72        2964.25           2346      262159.00   1189984.00
  205.75        2964.50           2349      281922.00   1283779.00
  205.78        2964.75           2353      307126.00   1404293.00
  205.81        2965.00           2356      325904.00   1494742.00
  205.84        2965.25           2360      349786.00   1610609.00
  205.87        2965.50           2363      368381.00   1701480.00
  205.90        2965.75           2367      391820.00   1816853.00
  205.93        2966.00           2370      411609.00   1914993.00
  205.96        2966.25           2374      434348.00   2028607.00
  205.99        2966.50           2378      447690.00   2095695.00
  206.03        2966.75           2381      452735.00   2121146.00
  206.06        2967.00           2385      454230.00   2128697.00
  206.09        2967.25           2388      453822.00   2126636.00
  206.12        2967.50           2392      453833.00   2126691.00
  206.15        2967.75           2395      453565.00   2125338.00
  206.18        2968.00           2399      446993.00   2092182.00
  206.21        2968.25           2402      433968.00   2026701.00
  206.24        2968.50           2406      412779.00   1920817.00
  206.27        2968.75           2409      395176.00   1833449.00
  206.30        2969.00           2413      371363.00   1716106.00
  206.33        2969.25           2417      348024.00   1602028.00
  206.36        2969.50           2420      327833.00   1504066.00
  206.39        2969.75           2424      302715.00   1383128.00
  206.42        2970.00           2427      282836.00   1288132.00
  206.45        2970.25           2431      255414.00   1158111.00
  206.48        2970.50           2434      235682.00   1065273.00
  206.51        2970.75           2438      210758.00    948854.00
  206.55        2971.00           2441      188629.00    846269.70
  206.58        2971.25           2445      157876.00    704901.60
  206.61        2971.50           2449      127608.00    567093.70
  206.64        2971.75           2452      106319.00    470941.90
  206.67        2972.00           2456       79312.00    349869.60
  206.70        2972.25           2459       59039.00    259640.30
  206.73        2972.50           2463       33756.00    147886.50
  206.76        2972.75           2466       18173.00     79429.56
  206.79        2973.00           2470        6151.00     26833.54
  206.82        2973.25           2473        3131.00     13650.62
  206.85        2973.50           2477        2355.00     10265.13
  206.88        2973.75           2481        2203.00      9602.09
  206.91        2974.00           2484        2142.00      9336.01
  206.94        2974.25           2488        2108.00      9187.70
  206.97        2974.50           2491        2053.00      8947.80
  207.00        2974.75           2495        2038.00      8882.37
  207.03        2975.00           2498        2029.00      8843.11
  207.07        2975.25           2502        2021.00      8808.22
  207.10        2975.50           2505        1951.00      8502.89
  207.13        2975.75           2509        1952.00      8507.26
  207.16        2976.00           2512        1920.00      8367.68
  207.19        2976.25           2516        1915.00      8345.87
  207.22        2976.50           2520        1870.00      8149.60
  207.26        2976.75           2523        1865.00      8127.79
  207.29        2977.00           2527        1814.00      7905.35
  207.33        2977.25           2530        1810.00      7887.90
  207.36        2977.50           2534        1761.00      7674.19
  207.39        2977.75           2537        1770.00      7713.44
  207.42        2978.00           2541        1758.00      7661.11
  207.45        2978.25           2544        1717.00      7482.29
  207.48        2978.50           2548        1754.00      7643.66
  207.51        2978.75           2552        1703.00      7421.23
  207.54        2979.00           2555        1720.00      7495.37
  207.57        2979.25           2559        1685.00      7342.72
  207.60        2979.50           2562        1690.00      7364.53
  207.63        2979.75           2566        1682.00      7329.64
  207.66        2980.00           2569        1661.00      7238.05
  207.69        2980.25           2573        1659.00      7229.33
  207.72        2980.50           2577        1632.00      7111.57
  207.75        2980.75           2580        1625.00      7081.04
  207.78        2981.00           2584        1574.00      6858.62
  207.81        2981.25           2587        1590.00      6928.40
  207.85        2981.50           2591        1612.00      7024.35
  207.88        2981.75           2594        1631.00      7107.21
  207.91        2982.00           2598        1589.00      6924.04
  207.94        2982.25           2601        1552.00      6762.67
  207.97        2982.50           2605        1567.00      6828.09
  208.00        2982.75           2609        1578.00      6876.06
  208.03        2983.00           2612        1514.00      6596.95
  208.06        2983.25           2616        1534.00      6684.17
  208.09        2983.50           2619        1561.00      6801.92
  208.12        2983.75           2623        1550.00      6753.95
  208.15        2984.00           2626        1523.00      6636.20
HS scan finished at 03:28:22
end
************************************************************
  HS Scan of (1) Internal mercury lamp
************************************************************
Integration time is 0.2294 seconds per sample
dh160319Reading 51.44 .94 2.98pr1000
************************************************************
Dead Time -------------------------  3.4E-08 
Number of Cycles Used -------------  4 
Starting Wavelength (Angstroms) ---  2950 
Final Wavelength (Angstoms) -------  2984 
Wavelength Increment (Angstroms) --  .25 
Filter Wheel #1 Position ---------- (1) Ground quartz diffuser (ND=2.32)
Filter Wheel #2 Position ---------- (1) Neutral Density 0.494



************************************************************
HS scan start time = 19:07:26
Dark Count =  .7 


Time (GMT)  Wavelength (Ang)  Step Number  Raw Counts  Counts/Second

 1148.33        2950.00           2144        1594.00      6947.15
 1148.52        2950.25           2147        1610.00      7016.93
 1148.55        2950.50           2151        1678.00      7313.50
 1148.58        2950.75           2155        1651.00      7195.75
 1148.61        2951.00           2158        1640.00      7147.77
 1148.64        2951.25           2162        1644.00      7165.22
 1148.68        2951.50           2165        1663.00      7248.08
 1148.71        2951.75           2169        1597.00      6960.23
 1148.74        2952.00           2172        1643.00      7160.86
 1148.77        2952.25           2176        1623.00      7073.63
 1148.80        2952.50           2179        1646.00      7173.94
 1148.83        2952.75           2183        1700.00      7409.45
 1148.86        2953.00           2186        1634.00      7121.60
 1148.89        2953.25           2190        1650.00      7191.38
 1148.92        2953.50           2193        1630.00      7104.16
 1148.95        2953.75           2197        1676.00      7304.78
 1148.98        2954.00           2200        1664.00      7252.44
 1149.01        2954.25           2204        1703.00      7422.54
 1149.04        2954.50           2208        1690.00      7365.84
 1149.07        2954.75           2211        1719.00      7492.32
 1149.10        2955.00           2215        1722.00      7505.40
 1149.13        2955.25           2218        1714.00      7470.51
 1149.16        2955.50           2222        1727.00      7527.21
 1149.19        2955.75           2225        1767.00      7701.67
 1149.23        2956.00           2229        1727.00      7527.21
 1149.26        2956.25           2232        1720.00      7496.68
 1149.29        2956.50           2236        1766.00      7697.31
 1149.32        2956.75           2239        1815.00      7911.02
 1149.35        2957.00           2243        1810.00      7889.21
 1149.38        2957.25           2246        1817.00      7919.74
 1149.41        2957.50           2250        1822.00      7941.55
 1149.44        2957.75           2254        1845.00      8041.87
 1149.47        2958.00           2257        1887.00      8225.06
 1149.50        2958.25           2261        1879.00      8190.16
 1149.53        2958.50           2264        1898.00      8273.03
 1149.56        2958.75           2268        1914.00      8342.82
 1149.59        2959.00           2271        1908.00      8316.65
 1149.62        2959.25           2275        1940.00      8456.22
 1149.65        2959.50           2278        1978.00      8621.97
 1149.68        2959.75           2282        1970.00      8587.08
 1149.72        2960.00           2285        2053.00      8949.10
 1149.75        2960.25           2289        2066.00      9005.81
 1149.78        2960.50           2293        2046.00      8918.57
 1149.81        2960.75           2296        2127.00      9271.89
 1149.84        2961.00           2300        2248.00      9799.69
 1149.87        2961.25           2303        2734.00     11919.83
 1149.90        2961.50           2307        6792.00     29634.46
 1149.93        2961.75           2310       15937.00     69634.15
 1149.96        2962.00           2314       34156.00    149649.20
 1149.99        2962.25           2317       49704.00    218280.50
 1150.02        2962.50           2321       72626.00    320051.90
 1150.05        2962.75           2324       91621.00    404927.70
 1150.08        2963.00           2328      119791.00    531715.80
 1150.11        2963.25           2331      140099.00    623807.50
 1150.14        2963.50           2335      166003.00    742128.20
 1150.17        2963.75           2339      191009.00    857269.30
 1150.20        2964.00           2342      209439.00    942720.40
 1150.23        2964.25           2346      234386.00   1059198.00
 1150.27        2964.50           2349      254958.00   1155961.00
 1150.30        2964.75           2353      278581.00   1267881.00
 1150.33        2965.00           2356      295942.00   1350693.00
 1150.36        2965.25           2360      293929.00   1341066.00
 1150.39        2965.50           2363      336348.00   1545299.00
 1150.42        2965.75           2367      357686.00   1649146.00
 1150.45        2966.00           2370      376306.00   1740386.00
 1150.48        2966.25           2374      399467.00   1854698.00
 1150.51        2966.50           2378      416621.00   1939959.00
 1150.54        2966.75           2381      422603.00   1969812.00
 1150.57        2967.00           2385      425209.00   1982837.00
 1150.60        2967.25           2388      426061.00   1987098.00
 1150.63        2967.50           2392      425632.00   1984952.00
 1150.66        2967.75           2395      425169.00   1982637.00
 1150.69        2968.00           2399      422662.00   1970107.00
 1150.72        2968.25           2402      413866.00   1926231.00
 1150.75        2968.50           2406      396611.00   1840553.00
 1150.79        2968.75           2409      380453.00   1760786.00
 1150.82        2969.00           2413      355919.00   1640517.00
 1150.85        2969.25           2417      333735.00   1532634.00
 1150.88        2969.50           2420      317287.00   1453167.00
 1150.91        2969.75           2424      293108.00   1337142.00
 1150.94        2970.00           2427      273001.00   1241366.00
 1150.97        2970.25           2431      245185.00   1109911.00
 1151.00        2970.50           2434      226659.00   1023020.00
 1151.03        2970.75           2438      201405.00    905408.60
 1151.06        2971.00           2441      181404.00    812934.50
 1151.09        2971.25           2445      153369.00    684300.00
 1151.12        2971.50           2449      126184.00    560643.70
 1151.15        2971.75           2452      105289.00    466307.30
 1151.18        2972.00           2456       79376.00    350156.60
 1151.21        2972.25           2459       61268.00    269535.10
 1151.24        2972.50           2463       37518.00    164462.40
 1151.27        2972.75           2466       21497.00     94006.62
 1151.31        2973.00           2470        7863.00     34313.33
 1151.34        2973.25           2473        3958.00     17260.78
 1151.37        2973.50           2477        2412.00     10515.09
 1151.40        2973.75           2481        2225.00      9699.36
 1151.43        2974.00           2484        2170.00      9459.45
 1151.46        2974.25           2488        2068.00      9014.53
 1151.49        2974.50           2491        2112.00      9206.46
 1151.52        2974.75           2495        2037.00      8879.32
 1151.55        2975.00           2498        1995.00      8696.12
 1151.58        2975.25           2502        1993.00      8687.40
 1151.61        2975.50           2505        1913.00      8338.46
 1151.64        2975.75           2509        1858.00      8098.57
 1151.67        2976.00           2512        1905.00      8303.56
 1151.70        2976.25           2516        1886.00      8220.69
 1151.73        2976.50           2520        1842.00      8028.78
 1151.76        2976.75           2523        1826.00      7959.00
 1151.79        2977.00           2527        1810.00      7889.21
 1151.83        2977.25           2530        1778.00      7749.65
 1151.86        2977.50           2534        1735.00      7562.10
 1151.89        2977.75           2537        1736.00      7566.46
 1151.92        2978.00           2541        1738.00      7575.19
 1151.95        2978.25           2544        1703.00      7422.54
 1151.98        2978.50           2548        1730.00      7540.29
 1152.01        2978.75           2552        1687.00      7352.75
 1152.04        2979.00           2555        1661.00      7239.36
 1152.07        2979.25           2559        1634.00      7121.60
 1152.10        2979.50           2562        1642.00      7156.49
 1152.13        2979.75           2566        1633.00      7117.24
 1152.16        2980.00           2569        1651.00      7195.75
 1152.19        2980.25           2573        1630.00      7104.16
 1152.22        2980.50           2577        1564.00      6816.31
 1152.25        2980.75           2580        1609.00      7012.57
 1152.28        2981.00           2584        1602.00      6982.04
 1152.31        2981.25           2587        1581.00      6890.45
 1152.35        2981.50           2591        1584.00      6903.54
 1152.38        2981.75           2594        1576.00      6868.65
 1152.41        2982.00           2598        1538.00      6702.92
 1152.44        2982.25           2601        1561.00      6803.23
 1152.47        2982.50           2605        1569.00      6838.12
 1152.50        2982.75           2609        1538.00      6702.92
 1152.53        2983.00           2612        1552.00      6763.98
 1152.56        2983.25           2616        1542.00      6720.37
 1152.59        2983.50           2619        1548.00      6746.53
 1152.62        2983.75           2623        1499.00      6532.84
 1152.65        2984.00           2626        1537.00      6698.56
HS scan finished at 19:12:52
end
