************************************************************
  HS Scan of 
************************************************************
Integration time is 0.2294 seconds per sample
dh180317Reading 51.44 .94 3.01pr1000
************************************************************
Dead Time -------------------------  3.4E-08 
Number of Cycles Used -------------  4 
Starting Wavelength (Angstroms) ---  2950 
Final Wavelength (Angstoms) -------  2984 
Wavelength Increment (Angstroms) --  .25 
Filter Wheel #1 Position ---------- (1) Ground quartz diffuser (ND=2.32)
Filter Wheel #2 Position ---------- (1) Neutral Density 0.494



************************************************************
HS scan start time = 03:14:38
Dark Count =  .9 


Time (GMT)  Wavelength (Ang)  Step Number  Raw Counts  Counts/Second

  195.54        2950.00           2144         981.00      4273.07
  195.73        2950.25           2147         944.00      4111.73
  195.76        2950.50           2151         945.00      4116.09
  195.79        2950.75           2155         971.00      4229.47
  195.82        2951.00           2158        1031.00      4491.10
  195.86        2951.25           2162        1009.00      4395.16
  195.89        2951.50           2165        1006.00      4382.08
  195.92        2951.75           2169         961.00      4185.86
  195.95        2952.00           2172         965.00      4203.30
  195.98        2952.25           2176        1016.00      4425.69
  196.01        2952.50           2179        1009.00      4395.16
  196.04        2952.75           2183        1009.00      4395.16
  196.07        2953.00           2186         996.00      4338.48
  196.10        2953.25           2190        1003.00      4369.00
  196.13        2953.50           2193        1021.00      4447.49
  196.16        2953.75           2197        1052.00      4582.67
  196.19        2954.00           2200        1022.00      4451.85
  196.22        2954.25           2204        1051.00      4578.31
  196.25        2954.50           2208        1053.00      4587.03
  196.28        2954.75           2211        1048.00      4565.22
  196.31        2955.00           2215        1061.00      4621.91
  196.34        2955.25           2218        1049.00      4569.59
  196.38        2955.50           2222        1073.00      4674.24
  196.41        2955.75           2225        1073.00      4674.24
  196.44        2956.00           2229        1073.00      4674.24
  196.47        2956.25           2232        1076.00      4687.32
  196.50        2956.50           2236        1092.00      4757.09
  196.53        2956.75           2239        1127.00      4909.71
  196.56        2957.00           2243        1110.00      4835.58
  196.59        2957.25           2246        1127.00      4909.71
  196.62        2957.50           2250        1132.00      4931.52
  196.65        2957.75           2254        1134.00      4940.24
  196.68        2958.00           2257        1151.00      5014.37
  196.71        2958.25           2261        1176.00      5123.39
  196.74        2958.50           2264        1175.00      5119.03
  196.77        2958.75           2268        1156.00      5036.17
  196.80        2959.00           2271        1234.00      5376.31
  196.83        2959.25           2275        1173.00      5110.30
  196.86        2959.50           2278        1217.00      5302.18
  196.90        2959.75           2282        1255.00      5467.89
  196.93        2960.00           2285        1294.00      5637.96
  196.96        2960.25           2289        1305.00      5685.93
  196.99        2960.50           2293        1312.00      5716.46
  197.02        2960.75           2296        1356.00      5908.34
  197.05        2961.00           2300        1409.00      6139.47
  197.08        2961.25           2303        1572.00      6850.33
  197.11        2961.50           2307        3634.00     15845.94
  197.14        2961.75           2310        9262.00     40426.50
  197.17        2962.00           2314       21892.00     95738.77
  197.20        2962.25           2317       34213.00    149899.40
  197.23        2962.50           2321       50680.00    222598.60
  197.26        2962.75           2324       63271.00    278430.30
  197.29        2963.00           2328       80125.00    353500.10
  197.32        2963.25           2331       93402.00    412910.30
  197.35        2963.50           2335      111371.00    493702.40
  197.38        2963.75           2339      129166.00    574155.80
  197.42        2964.00           2342      142293.00    633790.80
  197.45        2964.25           2346      158967.00    709893.80
  197.48        2964.50           2349      170953.00    764847.30
  197.51        2964.75           2353      188985.00    847914.70
  197.54        2965.00           2356      203398.00    914654.60
  197.57        2965.25           2360      222205.00   1002207.00
  197.60        2965.50           2363      234141.00   1058048.00
  197.63        2965.75           2367      248662.00   1126277.00
  197.66        2966.00           2370      260153.00   1180498.00
  197.69        2966.25           2374      275277.00   1252174.00
  197.72        2966.50           2378      286602.00   1306081.00
  197.75        2966.75           2381      289487.00   1319846.00
  197.78        2967.00           2385      289882.00   1321731.00
  197.81        2967.25           2388      290821.00   1326215.00
  197.84        2967.50           2392      290563.00   1324983.00
  197.87        2967.75           2395      290048.00   1322524.00
  197.90        2968.00           2399      285711.00   1301832.00
  197.93        2968.25           2402      277419.00   1262355.00
  197.97        2968.50           2406      262669.00   1192397.00
  198.00        2968.75           2409      251622.00   1140224.00
  198.03        2969.00           2413      235533.00   1064575.00
  198.06        2969.25           2417      219600.00    990047.90
  198.09        2969.50           2420      207787.00    935039.40
  198.12        2969.75           2424      191782.00    860842.20
  198.15        2970.00           2427      178175.00    798059.60
  198.18        2970.25           2431      158556.00    708013.10
  198.21        2970.50           2434      145407.00    647973.40
  198.24        2970.75           2438      128460.00    570955.50
  198.27        2971.00           2441      115868.00    513992.00
  198.30        2971.25           2445       99109.00    438521.60
  198.33        2971.50           2449       80373.00    354607.60
  198.36        2971.75           2452       66315.00    291960.20
  198.39        2972.00           2456       50362.00    221191.20
  198.42        2972.25           2459       38588.00    169179.20
  198.45        2972.50           2463       22606.00     98871.92
  198.49        2972.75           2466       12243.00     53462.83
  198.52        2973.00           2470        3922.00     17102.79
  198.55        2973.25           2473        1966.00      8568.76
  198.58        2973.50           2477        1501.00      6540.69
  198.61        2973.75           2481        1414.00      6161.27
  198.64        2974.00           2484        1376.00      5995.55
  198.67        2974.25           2488        1333.00      5808.03
  198.70        2974.50           2491        1300.00      5664.13
  198.73        2974.75           2495        1309.00      5703.37
  198.76        2975.00           2498        1258.00      5480.97
  198.79        2975.25           2502        1259.00      5485.33
  198.82        2975.50           2505        1199.00      5223.68
  198.85        2975.75           2509        1192.00      5193.16
  198.88        2976.00           2512        1213.00      5284.73
  198.91        2976.25           2516        1152.00      5018.73
  198.94        2976.50           2520        1145.00      4988.20
  198.97        2976.75           2523        1143.00      4979.48
  199.01        2977.00           2527        1131.00      4927.16
  199.04        2977.25           2530        1126.00      4905.35
  199.07        2977.50           2534        1136.00      4948.96
  199.10        2977.75           2537        1092.00      4757.09
  199.13        2978.00           2541        1122.00      4887.91
  199.16        2978.25           2544        1064.00      4634.99
  199.19        2978.50           2548        1072.00      4669.88
  199.22        2978.75           2552        1069.00      4656.80
  199.25        2979.00           2555        1062.00      4626.27
  199.28        2979.25           2559        1061.00      4621.91
  199.31        2979.50           2562        1023.00      4456.21
  199.34        2979.75           2566        1062.00      4626.27
  199.37        2980.00           2569        1000.00      4355.92
  199.40        2980.25           2573        1032.00      4495.46
  199.43        2980.50           2577        1024.00      4460.57
  199.46        2980.75           2580        1035.00      4508.54
  199.49        2981.00           2584        1010.00      4399.53
  199.53        2981.25           2587        1001.00      4360.28
  199.56        2981.50           2591         980.00      4268.71
  199.59        2981.75           2594         989.00      4307.95
  199.62        2982.00           2598        1001.00      4360.28
  199.65        2982.25           2601         976.00      4251.27
  199.68        2982.50           2605         971.00      4229.47
  199.71        2982.75           2609         950.00      4137.90
  199.74        2983.00           2612         953.00      4150.98
  199.77        2983.25           2616         954.00      4155.34
  199.80        2983.50           2619         958.00      4172.78
  199.83        2983.75           2623         939.00      4089.93
  199.86        2984.00           2626         939.00      4089.93
HS scan finished at 03:20:05
end
************************************************************
  HS Scan of 
************************************************************
Integration time is 0.2294 seconds per sample
dh180317Reading 51.44 .94 3.17pr1000
************************************************************
Dead Time -------------------------  3.4E-08 
Number of Cycles Used -------------  4 
Starting Wavelength (Angstroms) ---  2950 
Final Wavelength (Angstoms) -------  2984 
Wavelength Increment (Angstroms) --  .25 
Filter Wheel #1 Position ---------- (1) Ground quartz diffuser (ND=2.32)
Filter Wheel #2 Position ---------- (1) Neutral Density 0.494



************************************************************
HS scan start time = 19:07:24
Dark Count =  1.4 


Time (GMT)  Wavelength (Ang)  Step Number  Raw Counts  Counts/Second

 1148.29        2950.00           2144         887.00      3861.01
 1148.48        2950.25           2147         845.00      3677.88
 1148.51        2950.50           2151         931.00      4052.87
 1148.54        2950.75           2155         862.00      3752.00
 1148.58        2951.00           2158         863.00      3756.36
 1148.61        2951.25           2162         902.00      3926.42
 1148.64        2951.50           2165         860.00      3743.28
 1148.67        2951.75           2169         899.00      3913.34
 1148.70        2952.00           2172         878.00      3821.77
 1148.73        2952.25           2176         899.00      3913.34
 1148.76        2952.50           2179         907.00      3948.22
 1148.79        2952.75           2183         885.00      3852.29
 1148.82        2953.00           2186         904.00      3935.14
 1148.85        2953.25           2190         889.00      3869.73
 1148.88        2953.50           2193         908.00      3952.58
 1148.91        2953.75           2197         895.00      3895.90
 1148.94        2954.00           2200         913.00      3974.38
 1148.97        2954.25           2204         896.00      3900.26
 1149.00        2954.50           2208         927.00      4035.43
 1149.03        2954.75           2211         924.00      4022.35
 1149.06        2955.00           2215         968.00      4214.20
 1149.10        2955.25           2218         936.00      4074.67
 1149.13        2955.50           2222         941.00      4096.47
 1149.16        2955.75           2225         964.00      4196.76
 1149.19        2956.00           2229         970.00      4222.93
 1149.22        2956.25           2232         946.00      4118.28
 1149.25        2956.50           2236         984.00      4283.97
 1149.28        2956.75           2239         961.00      4183.68
 1149.31        2957.00           2243         995.00      4331.94
 1149.34        2957.25           2246        1006.00      4379.90
 1149.37        2957.50           2250         961.00      4183.68
 1149.40        2957.75           2254         997.00      4340.66
 1149.43        2958.00           2257        1015.00      4419.15
 1149.46        2958.25           2261        1011.00      4401.71
 1149.49        2958.50           2264        1037.00      4515.08
 1149.52        2958.75           2268        1029.00      4480.19
 1149.55        2959.00           2271        1062.00      4624.09
 1149.58        2959.25           2275        1045.00      4549.96
 1149.61        2959.50           2278        1073.00      4672.06
 1149.65        2959.75           2282        1069.00      4654.62
 1149.68        2960.00           2285        1110.00      4833.40
 1149.71        2960.25           2289        1131.00      4924.97
 1149.74        2960.50           2293        1169.00      5090.68
 1149.77        2960.75           2296        1175.00      5116.84
 1149.80        2961.00           2300        1306.00      5688.11
 1149.83        2961.25           2303        1927.00      8396.47
 1149.86        2961.50           2307        7115.00     31042.34
 1149.89        2961.75           2310       14720.00     64301.72
 1149.92        2962.00           2314       27230.00    119176.80
 1149.95        2962.25           2317       36867.00    161589.80
 1149.98        2962.50           2321       50348.00    221127.10
 1150.01        2962.75           2324       61114.00    268848.20
 1150.04        2963.00           2328       75758.00    334009.70
 1150.07        2963.25           2331       86907.00    383814.90
 1150.10        2963.50           2335      101253.00    448152.70
 1150.13        2963.75           2339      114477.00    507710.80
 1150.17        2964.00           2342      125529.00    557674.10
 1150.20        2964.25           2346      140770.00    626857.10
 1150.23        2964.50           2349      151294.00    674821.10
 1150.26        2964.75           2353      165513.00    739877.90
 1150.29        2965.00           2356      175001.00    783451.50
 1150.32        2965.25           2360      187682.00    841893.90
 1150.35        2965.50           2363      197754.00    888480.90
 1150.38        2965.75           2367      210974.00    949857.00
 1150.41        2966.00           2370      220708.00    995215.80
 1150.44        2966.25           2374      233887.00   1056856.00
 1150.47        2966.50           2378      241607.00   1093086.00
 1150.50        2966.75           2381      243772.00   1103262.00
 1150.53        2967.00           2385      243896.00   1103845.00
 1150.56        2967.25           2388      243939.00   1104047.00
 1150.59        2967.50           2392      243971.00   1104198.00
 1150.62        2967.75           2395      243300.00   1101043.00
 1150.65        2968.00           2399      240095.00   1085982.00
 1150.69        2968.25           2402      231890.00   1047498.00
 1150.72        2968.50           2406      219359.00    988921.20
 1150.75        2968.75           2409      209727.00    944056.50
 1150.78        2969.00           2413      197296.00    886359.20
 1150.81        2969.25           2417      183625.00    823171.00
 1150.84        2969.50           2420      173514.00    776613.80
 1150.87        2969.75           2424      157968.00    705320.80
 1150.90        2970.00           2427      147028.00    655359.50
 1150.93        2970.25           2431      132783.00    590561.00
 1150.96        2970.50           2434      121217.00    538160.30
 1150.99        2970.75           2438      106548.00    471971.10
 1151.02        2971.00           2441       95946.00    424319.20
 1151.05        2971.25           2445       81169.00    358160.70
 1151.08        2971.50           2449       64814.00    285284.80
 1151.11        2971.75           2452       53514.00    235144.50
 1151.14        2972.00           2456       39761.00    174350.50
 1151.17        2972.25           2459       29974.00    131240.80
 1151.21        2972.50           2463       17632.00     77056.90
 1151.24        2972.75           2466        9610.00     41945.57
 1151.27        2973.00           2470        2986.00     13016.22
 1151.30        2973.25           2473        1588.00      6917.93
 1151.33        2973.50           2477        1222.00      5321.80
 1151.36        2973.75           2481        1185.00      5160.45
 1151.39        2974.00           2484        1183.00      5151.73
 1151.42        2974.25           2488        1151.00      5012.19
 1151.45        2974.50           2491        1094.00      4763.63
 1151.48        2974.75           2495        1087.00      4733.11
 1151.51        2975.00           2498        1062.00      4624.09
 1151.54        2975.25           2502        1069.00      4654.62
 1151.57        2975.50           2505        1073.00      4672.06
 1151.60        2975.75           2509        1024.00      4458.39
 1151.63        2976.00           2512        1021.00      4445.31
 1151.66        2976.25           2516        1020.00      4440.95
 1151.70        2976.50           2520         996.00      4336.30
 1151.73        2976.75           2523         983.00      4279.61
 1151.76        2977.00           2527         986.00      4292.69
 1151.79        2977.25           2530         938.00      4083.39
 1151.82        2977.50           2534         971.00      4227.29
 1151.85        2977.75           2537         954.00      4153.16
 1151.88        2978.00           2541         946.00      4118.28
 1151.91        2978.25           2544         943.00      4105.19
 1151.94        2978.50           2548         932.00      4057.23
 1151.97        2978.75           2552         912.00      3970.02
 1152.00        2979.00           2555         933.00      4061.59
 1152.03        2979.25           2559         947.00      4122.64
 1152.06        2979.50           2562         926.00      4031.07
 1152.09        2979.75           2566         893.00      3887.17
 1152.12        2980.00           2569         932.00      4057.23
 1152.15        2980.25           2573         885.00      3852.29
 1152.18        2980.50           2577         881.00      3834.85
 1152.22        2980.75           2580         871.00      3791.25
 1152.25        2981.00           2584         868.00      3778.17
 1152.28        2981.25           2587         866.00      3769.45
 1152.31        2981.50           2591         849.00      3695.32
 1152.34        2981.75           2594         870.00      3786.89
 1152.37        2982.00           2598         850.00      3699.68
 1152.40        2982.25           2601         849.00      3695.32
 1152.43        2982.50           2605         837.00      3643.00
 1152.46        2982.75           2609         825.00      3590.67
 1152.49        2983.00           2612         851.00      3704.04
 1152.52        2983.25           2616         844.00      3673.52
 1152.55        2983.50           2619         833.00      3625.56
 1152.58        2983.75           2623         828.00      3603.75
 1152.61        2984.00           2626         834.00      3629.92
HS scan finished at 19:12:50
end
