************************************************************
  HS Scan of (1) Internal mercury lamp
************************************************************
Integration time is 0.2294 seconds per sample
dh190318Reading 51.44 .94 2.35pr1000
************************************************************
Dead Time -------------------------  3.4E-08 
Number of Cycles Used -------------  4 
Starting Wavelength (Angstroms) ---  2950 
Final Wavelength (Angstoms) -------  2984 
Wavelength Increment (Angstroms) --  .25 
Filter Wheel #1 Position ---------- (1) Ground quartz diffuser (ND=2.32)
Filter Wheel #2 Position ---------- (1) Neutral Density 0.494



************************************************************
HS scan start time = 03:14:57
Dark Count =  .3 


Time (GMT)  Wavelength (Ang)  Step Number  Raw Counts  Counts/Second

  195.85        2950.00           2144         153.00       665.66
  196.04        2950.25           2147         150.00       652.59
  196.08        2950.50           2151         142.00       617.71
  196.11        2950.75           2155         147.00       639.51
  196.14        2951.00           2158         144.00       626.43
  196.17        2951.25           2162         156.00       678.74
  196.20        2951.50           2165         148.00       643.87
  196.23        2951.75           2169         154.00       670.02
  196.26        2952.00           2172         145.00       630.79
  196.29        2952.25           2176         157.00       683.10
  196.32        2952.50           2179         154.00       670.02
  196.35        2952.75           2183         166.00       722.34
  196.38        2953.00           2186         171.00       744.13
  196.41        2953.25           2190         163.00       709.26
  196.44        2953.50           2193         164.00       713.62
  196.47        2953.75           2197         157.00       683.10
  196.50        2954.00           2200         162.00       704.90
  196.53        2954.25           2204         155.00       674.38
  196.56        2954.50           2208         166.00       722.34
  196.60        2954.75           2211         171.00       744.13
  196.63        2955.00           2215         168.00       731.06
  196.66        2955.25           2218         167.00       726.70
  196.69        2955.50           2222         175.00       761.57
  196.72        2955.75           2225         167.00       726.70
  196.75        2956.00           2229         169.00       735.42
  196.78        2956.25           2232         188.00       818.24
  196.81        2956.50           2236         171.00       744.13
  196.84        2956.75           2239         174.00       757.21
  196.87        2957.00           2243         172.00       748.49
  196.90        2957.25           2246         181.00       787.73
  196.93        2957.50           2250         182.00       792.09
  196.96        2957.75           2254         184.00       800.81
  196.99        2958.00           2257         176.00       765.93
  197.02        2958.25           2261         185.00       805.17
  197.05        2958.50           2264         197.00       857.48
  197.08        2958.75           2268         195.00       848.76
  197.12        2959.00           2271         205.00       892.35
  197.15        2959.25           2275         204.00       888.00
  197.18        2959.50           2278         197.00       857.48
  197.21        2959.75           2282         204.00       888.00
  197.24        2960.00           2285         232.00      1010.06
  197.27        2960.25           2289         216.00       940.31
  197.30        2960.50           2293         228.00       992.62
  197.33        2960.75           2296         230.00      1001.34
  197.36        2961.00           2300         286.00      1245.48
  197.39        2961.25           2303         484.00      2108.70
  197.42        2961.50           2307        1737.00      7572.57
  197.45        2961.75           2310        3507.00     15294.35
  197.48        2962.00           2314        6634.00     28946.09
  197.51        2962.25           2317        9182.00     40079.43
  197.54        2962.50           2321       12668.00     55324.98
  197.57        2962.75           2324       15594.00     68133.68
  197.60        2963.00           2328       19368.00     84671.03
  197.64        2963.25           2331       21967.00     96070.49
  197.67        2963.50           2335       25418.00    111220.60
  197.70        2963.75           2339       29026.00    127076.60
  197.73        2964.00           2342       31698.00    138830.30
  197.76        2964.25           2346       35676.00    156346.40
  197.79        2964.50           2349       38376.00    168247.00
  197.82        2964.75           2353       41710.00    182955.40
  197.85        2965.00           2356       44175.00    193839.60
  197.88        2965.25           2360       47399.00    208087.40
  197.91        2965.50           2363       50292.00    220884.10
  197.94        2965.75           2367       53504.00    235105.10
  197.97        2966.00           2370       55928.00    245846.30
  198.00        2966.25           2374       59099.00    259909.60
  198.03        2966.50           2378       61177.00    269132.80
  198.06        2966.75           2381       61508.00    270602.50
  198.09        2967.00           2385       61779.00    271805.90
  198.12        2967.25           2388       61623.00    271113.20
  198.16        2967.50           2392       61391.00    270083.00
  198.19        2967.75           2395       61400.00    270123.00
  198.22        2968.00           2399       60094.00    264325.20
  198.25        2968.25           2402       57911.00    254639.30
  198.28        2968.50           2406       54413.00    239132.10
  198.31        2968.75           2409       52108.00    228922.70
  198.34        2969.00           2413       48945.00    214924.50
  198.37        2969.25           2417       45375.00    199141.10
  198.40        2969.50           2420       42598.00    186875.40
  198.43        2969.75           2424       38885.00    170491.60
  198.46        2970.00           2427       36153.00    158448.10
  198.49        2970.25           2431       32457.00    142170.70
  198.52        2970.50           2434       29921.00    131012.50
  198.55        2970.75           2438       26135.00    114370.20
  198.58        2971.00           2441       23230.00    101613.30
  198.61        2971.25           2445       19342.00     84557.04
  198.64        2971.50           2449       15649.00     68374.55
  198.67        2971.75           2452       12759.00     55723.17
  198.71        2972.00           2456        9123.00     39821.54
  198.74        2972.25           2459        6761.00     29500.81
  198.77        2972.50           2463        3830.00     16703.90
  198.80        2972.75           2466        1999.00      8715.31
  198.83        2973.00           2470         622.00      2710.36
  198.86        2973.25           2473         323.00      1406.78
  198.89        2973.50           2477         258.00      1123.41
  198.92        2973.75           2481         249.00      1084.17
  198.95        2974.00           2484         219.00       953.39
  198.98        2974.25           2488         220.00       957.75
  199.01        2974.50           2491         240.00      1044.94
  199.04        2974.75           2495         212.00       922.87
  199.07        2975.00           2498         216.00       940.31
  199.10        2975.25           2502         206.00       896.71
  199.13        2975.50           2505         210.00       914.15
  199.16        2975.75           2509         202.00       879.28
  199.20        2976.00           2512         193.00       840.04
  199.23        2976.25           2516         195.00       848.76
  199.26        2976.50           2520         184.00       800.81
  199.29        2976.75           2523         203.00       883.64
  199.32        2977.00           2527         195.00       848.76
  199.35        2977.25           2530         182.00       792.09
  199.38        2977.50           2534         180.00       783.37
  199.41        2977.75           2537         174.00       757.21
  199.44        2978.00           2541         180.00       783.37
  199.47        2978.25           2544         175.00       761.57
  199.50        2978.50           2548         160.00       696.18
  199.53        2978.75           2552         165.00       717.98
  199.56        2979.00           2555         170.00       739.77
  199.59        2979.25           2559         177.00       770.29
  199.62        2979.50           2562         161.00       700.54
  199.65        2979.75           2566         161.00       700.54
  199.68        2980.00           2569         160.00       696.18
  199.72        2980.25           2573         169.00       735.42
  199.75        2980.50           2577         166.00       722.34
  199.78        2980.75           2580         168.00       731.06
  199.81        2981.00           2584         152.00       661.31
  199.84        2981.25           2587         163.00       709.26
  199.87        2981.50           2591         161.00       700.54
  199.90        2981.75           2594         146.00       635.15
  199.93        2982.00           2598         160.00       696.18
  199.96        2982.25           2601         159.00       691.82
  199.99        2982.50           2605         157.00       683.10
  200.02        2982.75           2609         143.00       622.07
  200.05        2983.00           2612         141.00       613.35
  200.08        2983.25           2616         154.00       670.02
  200.11        2983.50           2619         152.00       661.31
  200.14        2983.75           2623         144.00       626.43
  200.17        2984.00           2626         148.00       643.87
HS scan finished at 03:20:24
end
************************************************************
  HS Scan of (1) Internal mercury lamp
************************************************************
Integration time is 0.2294 seconds per sample
dh190318Reading 51.44 .94 2.62pr1000
************************************************************
Dead Time -------------------------  3.4E-08 
Number of Cycles Used -------------  4 
Starting Wavelength (Angstroms) ---  2950 
Final Wavelength (Angstoms) -------  2984 
Wavelength Increment (Angstroms) --  .25 
Filter Wheel #1 Position ---------- (1) Ground quartz diffuser (ND=2.32)
Filter Wheel #2 Position ---------- (1) Neutral Density 0.494



************************************************************
HS scan start time = 19:06:54
Dark Count =  .5 


Time (GMT)  Wavelength (Ang)  Step Number  Raw Counts  Counts/Second

 1147.79        2950.00           2144         167.00       725.82
 1147.98        2950.25           2147         144.00       625.56
 1148.02        2950.50           2151         171.00       743.26
 1148.05        2950.75           2155         161.00       699.67
 1148.08        2951.00           2158         154.00       669.15
 1148.11        2951.25           2162         144.00       625.56
 1148.14        2951.50           2165         156.00       677.87
 1148.17        2951.75           2169         166.00       721.46
 1148.20        2952.00           2172         150.00       651.71
 1148.23        2952.25           2176         152.00       660.43
 1148.26        2952.50           2179         142.00       616.84
 1148.29        2952.75           2183         156.00       677.87
 1148.32        2953.00           2186         142.00       616.84
 1148.35        2953.25           2190         152.00       660.43
 1148.38        2953.50           2193         151.00       656.07
 1148.41        2953.75           2197         152.00       660.43
 1148.44        2954.00           2200         169.00       734.54
 1148.47        2954.25           2204         163.00       708.39
 1148.50        2954.50           2208         188.00       817.37
 1148.54        2954.75           2211         153.00       664.79
 1148.57        2955.00           2215         159.00       690.95
 1148.60        2955.25           2218         155.00       673.51
 1148.63        2955.50           2222         176.00       765.06
 1148.66        2955.75           2225         164.00       712.75
 1148.69        2956.00           2229         154.00       669.15
 1148.72        2956.25           2232         175.00       760.70
 1148.75        2956.50           2236         185.00       804.29
 1148.78        2956.75           2239         171.00       743.26
 1148.81        2957.00           2243         172.00       747.62
 1148.84        2957.25           2246         165.00       717.11
 1148.87        2957.50           2250         172.00       747.62
 1148.90        2957.75           2254         178.00       773.78
 1148.93        2958.00           2257         177.00       769.42
 1148.96        2958.25           2261         168.00       730.18
 1148.99        2958.50           2264         186.00       808.65
 1149.02        2958.75           2268         167.00       725.82
 1149.06        2959.00           2271         197.00       856.61
 1149.09        2959.25           2275         187.00       813.01
 1149.12        2959.50           2278         190.00       826.09
 1149.15        2959.75           2282         197.00       856.61
 1149.18        2960.00           2285         199.00       865.33
 1149.21        2960.25           2289         215.00       935.08
 1149.24        2960.50           2293         240.00      1044.07
 1149.27        2960.75           2296         221.00       961.23
 1149.30        2961.00           2300         299.00      1301.28
 1149.33        2961.25           2303         524.00      2282.22
 1149.36        2961.50           2307        1828.00      7968.59
 1149.39        2961.75           2310        3593.00     15668.76
 1149.42        2962.00           2314        6472.00     28237.65
 1149.45        2962.25           2317        9035.00     39436.02
 1149.48        2962.50           2321       12415.00     54217.12
 1149.51        2962.75           2324       14944.00     65286.44
 1149.54        2963.00           2328       17813.00     77854.02
 1149.57        2963.25           2331       20366.00     89046.44
 1149.61        2963.50           2335       23840.00    104290.30
 1149.64        2963.75           2339       27680.00    121158.50
 1149.67        2964.00           2342       30293.00    132647.90
 1149.70        2964.25           2346       33537.00    146924.40
 1149.73        2964.50           2349       36223.00    158755.70
 1149.76        2964.75           2353       39509.00    173242.80
 1149.79        2965.00           2356       41718.00    182989.80
 1149.82        2965.25           2360       45194.00    198340.40
 1149.85        2965.50           2363       47440.00    208267.70
 1149.88        2965.75           2367       50655.00    222489.70
 1149.91        2966.00           2370       52940.00    232606.10
 1149.94        2966.25           2374       55628.00    244515.70
 1149.97        2966.50           2378       57126.00    251157.00
 1150.00        2966.75           2381       57209.00    251525.00
 1150.03        2967.00           2385       57767.00    253999.70
 1150.06        2967.25           2388       57504.00    252833.30
 1150.09        2967.50           2392       57280.00    251839.90
 1150.13        2967.75           2395       57213.00    251542.80
 1150.16        2968.00           2399       55728.00    244958.90
 1150.19        2968.25           2402       53683.00    235897.10
 1150.22        2968.50           2406       50734.00    222839.40
 1150.25        2968.75           2409       48470.00    212822.60
 1150.28        2969.00           2413       44924.00    197147.50
 1150.31        2969.25           2417       41489.00    181979.10
 1150.34        2969.50           2420       39401.00    172766.40
 1150.37        2969.75           2424       35873.00    157213.40
 1150.40        2970.00           2427       33183.00    145365.80
 1150.43        2970.25           2431       29943.00    131108.40
 1150.46        2970.50           2434       27794.00    121659.60
 1150.49        2970.75           2438       24051.00    105216.60
 1150.52        2971.00           2441       21126.00     92379.93
 1150.55        2971.25           2445       17749.00     77573.56
 1150.58        2971.50           2449       14264.00     62309.28
 1150.61        2971.75           2452       12012.00     52453.98
 1150.65        2972.00           2456        8886.00     38784.76
 1150.68        2972.25           2459        6530.00     28490.97
 1150.71        2972.50           2463        3598.00     15690.58
 1150.74        2972.75           2466        1756.00      7654.56
 1150.77        2973.00           2470         511.00      2225.54
 1150.80        2973.25           2473         292.00      1270.76
 1150.83        2973.50           2477         255.00      1109.46
 1150.86        2973.75           2481         218.00       948.16
 1150.89        2974.00           2484         220.00       956.88
 1150.92        2974.25           2488         218.00       948.16
 1150.95        2974.50           2491         210.00       913.28
 1150.98        2974.75           2495         200.00       869.69
 1151.01        2975.00           2498         196.00       852.25
 1151.04        2975.25           2502         194.00       843.53
 1151.07        2975.50           2505         204.00       887.12
 1151.10        2975.75           2509         183.00       795.58
 1151.13        2976.00           2512         181.00       786.86
 1151.17        2976.25           2516         185.00       804.29
 1151.20        2976.50           2520         172.00       747.62
 1151.23        2976.75           2523         182.00       791.22
 1151.26        2977.00           2527         173.00       751.98
 1151.29        2977.25           2530         166.00       721.46
 1151.32        2977.50           2534         184.00       799.93
 1151.35        2977.75           2537         170.00       738.90
 1151.38        2978.00           2541         155.00       673.51
 1151.41        2978.25           2544         165.00       717.11
 1151.44        2978.50           2548         149.00       647.36
 1151.47        2978.75           2552         159.00       690.95
 1151.50        2979.00           2555         157.00       682.23
 1151.53        2979.25           2559         171.00       743.26
 1151.56        2979.50           2562         140.00       608.12
 1151.59        2979.75           2566         146.00       634.28
 1151.62        2980.00           2569         157.00       682.23
 1151.65        2980.25           2573         161.00       699.67
 1151.68        2980.50           2577         146.00       634.28
 1151.72        2980.75           2580         139.00       603.76
 1151.75        2981.00           2584         143.00       621.20
 1151.78        2981.25           2587         134.00       581.96
 1151.81        2981.50           2591         136.00       590.68
 1151.84        2981.75           2594         158.00       686.59
 1151.87        2982.00           2598         151.00       656.07
 1151.90        2982.25           2601         156.00       677.87
 1151.93        2982.50           2605         139.00       603.76
 1151.96        2982.75           2609         142.00       616.84
 1151.99        2983.00           2612         156.00       677.87
 1152.02        2983.25           2616         137.00       595.04
 1152.05        2983.50           2619         162.00       704.03
 1152.08        2983.75           2623         140.00       608.12
 1152.11        2984.00           2626         137.00       595.04
HS scan finished at 19:12:20
end
