************************************************************
  HS Scan of 
************************************************************
Integration time is 0.2294 seconds per sample
dh160317Reading 51.44 .94 2.78pr1000
************************************************************
Dead Time -------------------------  3.4E-08 
Number of Cycles Used -------------  4 
Starting Wavelength (Angstroms) ---  2950 
Final Wavelength (Angstoms) -------  2984 
Wavelength Increment (Angstroms) --  .25 
Filter Wheel #1 Position ---------- (1) Ground quartz diffuser (ND=2.32)
Filter Wheel #2 Position ---------- (1) Neutral Density 0.494



************************************************************
HS scan start time = 03:21:17
Dark Count =  .3 


Time (GMT)  Wavelength (Ang)  Step Number  Raw Counts  Counts/Second

  202.19        2950.00           2144         998.00      4349.82
  202.38        2950.25           2147         999.00      4354.18
  202.41        2950.50           2151         954.00      4157.96
  202.44        2950.75           2155         997.00      4345.45
  202.47        2951.00           2158         974.00      4245.16
  202.50        2951.25           2162         997.00      4345.45
  202.53        2951.50           2165        1004.00      4375.98
  202.56        2951.75           2169         985.00      4293.13
  202.59        2952.00           2172        1002.00      4367.26
  202.63        2952.25           2176        1039.00      4528.60
  202.66        2952.50           2179        1007.00      4389.06
  202.69        2952.75           2183        1030.00      4489.35
  202.72        2953.00           2186        1009.00      4397.78
  202.75        2953.25           2190        1013.00      4415.22
  202.78        2953.50           2193        1012.00      4410.86
  202.81        2953.75           2197        1042.00      4541.68
  202.84        2954.00           2200        1013.00      4415.22
  202.87        2954.25           2204        1041.00      4537.32
  202.90        2954.50           2208        1050.00      4576.56
  202.93        2954.75           2211        1048.00      4567.84
  202.96        2955.00           2215        1043.00      4546.04
  202.99        2955.25           2218        1024.00      4463.19
  203.02        2955.50           2222        1067.00      4650.69
  203.05        2955.75           2225        1072.00      4672.49
  203.08        2956.00           2229        1099.00      4790.23
  203.11        2956.25           2232        1094.00      4768.43
  203.15        2956.50           2236        1129.00      4921.05
  203.18        2956.75           2239        1081.00      4711.74
  203.21        2957.00           2243        1136.00      4951.57
  203.24        2957.25           2246        1112.00      4846.92
  203.27        2957.50           2250        1107.00      4825.12
  203.30        2957.75           2254        1117.00      4868.72
  203.33        2958.00           2257        1156.00      5038.79
  203.36        2958.25           2261        1153.00      5025.71
  203.39        2958.50           2264        1161.00      5060.59
  203.42        2958.75           2268        1178.00      5134.72
  203.45        2959.00           2271        1214.00      5291.71
  203.48        2959.25           2275        1209.00      5269.91
  203.51        2959.50           2278        1209.00      5269.91
  203.54        2959.75           2282        1248.00      5439.98
  203.57        2960.00           2285        1255.00      5470.50
  203.60        2960.25           2289        1297.00      5653.66
  203.63        2960.50           2293        1320.00      5753.96
  203.67        2960.75           2296        1334.00      5815.01
  203.70        2961.00           2300        1407.00      6133.36
  203.73        2961.25           2303        1883.00      8209.35
  203.76        2961.50           2307        5987.00     26120.40
  203.79        2961.75           2310       13551.00     59189.18
  203.82        2962.00           2314       27453.00    120161.70
  203.85        2962.25           2317       38692.00    169640.40
  203.88        2962.50           2321       55414.00    243568.00
  203.91        2962.75           2324       67923.00    299115.10
  203.94        2963.00           2328       83243.00    367433.10
  203.97        2963.25           2331       94435.00    417545.40
  204.00        2963.50           2335      110598.00    490220.30
  204.03        2963.75           2339      127630.00    567196.60
  204.06        2964.00           2342      141584.00    630566.30
  204.09        2964.25           2346      156958.00    700706.00
  204.12        2964.50           2349      168406.00    753155.20
  204.15        2964.75           2353      184455.00    827004.60
  204.19        2965.00           2356      195593.00    878477.90
  204.22        2965.25           2360      210974.00    949862.20
  204.25        2965.50           2363      220096.00    992365.00
  204.28        2965.75           2367      234157.00   1058126.00
  204.31        2966.00           2370      245226.00   1110106.00
  204.34        2966.25           2374      259172.00   1175864.00
  204.37        2966.50           2378      267948.00   1217399.00
  204.40        2966.75           2381      270012.00   1227184.00
  204.43        2967.00           2385      270931.00   1231544.00
  204.46        2967.25           2388      270769.00   1230775.00
  204.49        2967.50           2392      270794.00   1230894.00
  204.52        2967.75           2395      270683.00   1230367.00
  204.55        2968.00           2399      266058.00   1208443.00
  204.58        2968.25           2402      258069.00   1170652.00
  204.61        2968.50           2406      245049.00   1109273.00
  204.64        2968.75           2409      233600.00   1055516.00
  204.67        2969.00           2413      217965.00    982424.70
  204.70        2969.25           2417      202755.00    911673.50
  204.74        2969.50           2420      192084.00    862241.60
  204.77        2969.75           2424      177113.00    793173.80
  204.80        2970.00           2427      165778.00    741098.20
  204.83        2970.25           2431      149062.00    664640.50
  204.86        2970.50           2434      136701.00    608359.60
  204.89        2970.75           2438      120515.00    534990.80
  204.92        2971.00           2441      108509.00    480807.00
  204.95        2971.25           2445       91641.00    405019.10
  204.98        2971.50           2449       75015.00    330701.50
  205.01        2971.75           2452       62951.00    277011.30
  205.04        2972.00           2456       47833.00    210006.40
  205.07        2972.25           2459       36661.00    160686.70
  205.10        2972.50           2463       20962.00     91661.41
  205.13        2972.75           2466       10513.00     45898.51
  205.16        2973.00           2470        3039.00     13252.27
  205.19        2973.25           2473        1774.00      7733.94
  205.22        2973.50           2477        1413.00      6159.53
  205.26        2973.75           2481        1356.00      5910.95
  205.29        2974.00           2484        1341.00      5845.54
  205.32        2974.25           2488        1255.00      5470.50
  205.35        2974.50           2491        1293.00      5636.22
  205.38        2974.75           2495        1221.00      5322.24
  205.41        2975.00           2498        1227.00      5348.40
  205.44        2975.25           2502        1212.00      5282.99
  205.47        2975.50           2505        1166.00      5082.40
  205.50        2975.75           2509        1179.00      5139.08
  205.53        2976.00           2512        1166.00      5082.40
  205.56        2976.25           2516        1165.00      5078.03
  205.59        2976.50           2520        1147.00      4999.54
  205.62        2976.75           2523        1105.00      4816.39
  205.65        2977.00           2527        1091.00      4755.35
  205.68        2977.25           2530        1096.00      4777.15
  205.71        2977.50           2534        1103.00      4807.67
  205.74        2977.75           2537        1095.00      4772.79
  205.78        2978.00           2541        1093.00      4764.07
  205.81        2978.25           2544        1051.00      4580.92
  205.84        2978.50           2548        1068.00      4655.05
  205.87        2978.75           2552        1041.00      4537.32
  205.90        2979.00           2555        1042.00      4541.68
  205.93        2979.25           2559        1008.00      4393.42
  205.97        2979.50           2562        1023.00      4458.83
  206.00        2979.75           2566        1014.00      4419.58
  206.03        2980.00           2569        1021.00      4450.11
  206.06        2980.25           2573        1012.00      4410.86
  206.09        2980.50           2577         959.00      4179.76
  206.12        2980.75           2580         989.00      4310.57
  206.15        2981.00           2584        1006.00      4384.70
  206.18        2981.25           2587         971.00      4232.08
  206.21        2981.50           2591         980.00      4271.33
  206.24        2981.75           2594         960.00      4184.12
  206.27        2982.00           2598         956.00      4166.68
  206.30        2982.25           2601         970.00      4227.72
  206.33        2982.50           2605         958.00      4175.40
  206.36        2982.75           2609         965.00      4205.92
  206.39        2983.00           2612         962.00      4192.84
  206.42        2983.25           2616         964.00      4201.56
  206.45        2983.50           2619         982.00      4280.05
  206.49        2983.75           2623         925.00      4031.50
  206.52        2984.00           2626         938.00      4088.19
HS scan finished at 03:26:44
end
************************************************************
  HS Scan of 
************************************************************
Integration time is 0.2294 seconds per sample
dh160317Reading 51.44 .94 3.09pr1000
************************************************************
Dead Time -------------------------  3.4E-08 
Number of Cycles Used -------------  4 
Starting Wavelength (Angstroms) ---  2950 
Final Wavelength (Angstoms) -------  2984 
Wavelength Increment (Angstroms) --  .25 
Filter Wheel #1 Position ---------- (1) Ground quartz diffuser (ND=2.32)
Filter Wheel #2 Position ---------- (1) Neutral Density 0.494



************************************************************
HS scan start time = 19:07:25
Dark Count =  1.1 


Time (GMT)  Wavelength (Ang)  Step Number  Raw Counts  Counts/Second

 1148.31        2950.00           2144         914.00      3980.05
 1148.50        2950.25           2147         948.00      4128.30
 1148.54        2950.50           2151         928.00      4041.10
 1148.57        2950.75           2155         940.00      4093.42
 1148.60        2951.00           2158         942.00      4102.14
 1148.63        2951.25           2162         940.00      4093.42
 1148.66        2951.50           2165         937.00      4080.34
 1148.69        2951.75           2169         960.00      4180.63
 1148.72        2952.00           2172         948.00      4128.30
 1148.76        2952.25           2176         946.00      4119.58
 1148.80        2952.50           2179         953.00      4150.11
 1148.83        2952.75           2183         945.00      4115.22
 1148.86        2953.00           2186         953.00      4150.11
 1148.89        2953.25           2190         959.00      4176.27
 1148.92        2953.50           2193         961.00      4184.99
 1148.95        2953.75           2197         984.00      4285.28
 1148.98        2954.00           2200        1044.00      4546.91
 1149.01        2954.25           2204         973.00      4237.32
 1149.04        2954.50           2208         947.00      4123.94
 1149.07        2954.75           2211         999.00      4350.69
 1149.10        2955.00           2215         982.00      4276.56
 1149.13        2955.25           2218         982.00      4276.56
 1149.16        2955.50           2222        1027.00      4472.78
 1149.19        2955.75           2225        1000.00      4355.05
 1149.22        2956.00           2229         984.00      4285.28
 1149.25        2956.25           2232        1017.00      4429.18
 1149.28        2956.50           2236        1029.00      4481.50
 1149.32        2956.75           2239        1024.00      4459.70
 1149.35        2957.00           2243        1050.00      4573.07
 1149.38        2957.25           2246        1080.00      4703.89
 1149.41        2957.50           2250        1040.00      4529.47
 1149.44        2957.75           2254        1023.00      4455.34
 1149.47        2958.00           2257        1071.00      4664.65
 1149.50        2958.25           2261        1099.00      4786.74
 1149.53        2958.50           2264        1099.00      4786.74
 1149.56        2958.75           2268        1119.00      4873.96
 1149.59        2959.00           2271        1090.00      4747.50
 1149.62        2959.25           2275        1118.00      4869.59
 1149.65        2959.50           2278        1142.00      4974.25
 1149.68        2959.75           2282        1167.00      5083.27
 1149.71        2960.00           2285        1163.00      5065.82
 1149.74        2960.25           2289        1152.00      5017.86
 1149.77        2960.50           2293        1233.00      5371.08
 1149.80        2960.75           2296        1252.00      5453.93
 1149.83        2961.00           2300        1345.00      5859.49
 1149.87        2961.25           2303        1875.00      8170.97
 1149.90        2961.50           2307        6399.00     27916.20
 1149.93        2961.75           2310       13467.00     58818.03
 1149.96        2962.00           2314       25284.00    110628.50
 1149.99        2962.25           2317       35053.00    153598.20
 1150.02        2962.50           2321       49951.00    219371.60
 1150.05        2962.75           2324       61455.00    270363.60
 1150.08        2963.00           2328       77273.00    340768.90
 1150.11        2963.25           2331       88357.00    390306.10
 1150.14        2963.50           2335      102393.00    453278.70
 1150.17        2963.75           2339      116050.00    514812.90
 1150.20        2964.00           2342      128107.00    569354.60
 1150.23        2964.25           2346      143200.00    637919.40
 1150.26        2964.50           2349      153437.00    684608.90
 1150.29        2964.75           2353      167472.00    748865.30
 1150.32        2965.00           2356      177477.00    794845.50
 1150.35        2965.25           2360      190119.00    853153.80
 1150.39        2965.50           2363      199208.00    895220.10
 1150.42        2965.75           2367      212937.00    958994.20
 1150.45        2966.00           2370      223625.00   1008838.00
 1150.48        2966.25           2374      237131.00   1072070.00
 1150.51        2966.50           2378      244231.00   1105422.00
 1150.54        2966.75           2381      246387.00   1115565.00
 1150.57        2967.00           2385      247065.00   1118756.00
 1150.60        2967.25           2388      247273.00   1119736.00
 1150.63        2967.50           2392      247138.00   1119100.00
 1150.66        2967.75           2395      246249.00   1114916.00
 1150.69        2968.00           2399      243022.00   1099737.00
 1150.72        2968.25           2402      235023.00   1062183.00
 1150.75        2968.50           2406      221490.00    998867.40
 1150.78        2968.75           2409      211771.00    953567.00
 1150.81        2969.00           2413      200476.00    901098.40
 1150.84        2969.25           2417      187048.00    838967.90
 1150.87        2969.50           2420      175864.00    787422.70
 1150.91        2969.75           2424      160550.00    717138.80
 1150.94        2970.00           2427      150509.00    671239.40
 1150.97        2970.25           2431      135991.00    605129.90
 1151.00        2970.50           2434      124879.00    554732.20
 1151.03        2970.75           2438      109489.00    485218.70
 1151.06        2971.00           2441       97875.00    432979.10
 1151.09        2971.25           2445       82251.00    362996.10
 1151.12        2971.50           2449       66087.00    290945.40
 1151.15        2971.75           2452       54757.00    240652.90
 1151.18        2972.00           2456       40022.00    175503.10
 1151.21        2972.25           2459       30216.00    132306.60
 1151.24        2972.50           2463       17468.00     76339.56
 1151.27        2972.75           2466        9005.00     39302.27
 1151.30        2973.00           2470        2831.00     12341.27
 1151.33        2973.25           2473        1625.00      7080.61
 1151.36        2973.50           2477        1285.00      5597.84
 1151.39        2973.75           2481        1270.00      5532.43
 1151.43        2974.00           2484        1279.00      5571.67
 1151.46        2974.25           2488        1215.00      5292.58
 1151.49        2974.50           2491        1205.00      5248.98
 1151.52        2974.75           2495        1156.00      5035.30
 1151.55        2975.00           2498        1153.00      5022.22
 1151.58        2975.25           2502        1167.00      5083.27
 1151.61        2975.50           2505        1106.00      4817.27
 1151.64        2975.75           2509        1082.00      4712.61
 1151.67        2976.00           2512        1121.00      4882.68
 1151.70        2976.25           2516        1069.00      4655.92
 1151.73        2976.50           2520        1073.00      4673.37
 1151.76        2976.75           2523        1057.00      4603.60
 1151.79        2977.00           2527        1028.00      4477.14
 1151.82        2977.25           2530        1034.00      4503.30
 1151.85        2977.50           2534        1023.00      4455.34
 1151.88        2977.75           2537        1016.00      4424.82
 1151.91        2978.00           2541        1026.00      4468.42
 1151.95        2978.25           2544        1007.00      4385.57
 1151.98        2978.50           2548        1008.00      4389.93
 1152.01        2978.75           2552         999.00      4350.69
 1152.04        2979.00           2555         952.00      4145.75
 1152.07        2979.25           2559         985.00      4289.64
 1152.10        2979.50           2562         960.00      4180.63
 1152.13        2979.75           2566         952.00      4145.75
 1152.16        2980.00           2569         971.00      4228.59
 1152.19        2980.25           2573         946.00      4119.58
 1152.22        2980.50           2577         930.00      4049.82
 1152.25        2980.75           2580         972.00      4232.95
 1152.28        2981.00           2584         908.00      3953.89
 1152.31        2981.25           2587         899.00      3914.65
 1152.34        2981.50           2591         920.00      4006.21
 1152.37        2981.75           2594         886.00      3857.96
 1152.40        2982.00           2598         915.00      3984.41
 1152.43        2982.25           2601         937.00      4080.34
 1152.46        2982.50           2605         908.00      3953.89
 1152.50        2982.75           2609         930.00      4049.82
 1152.53        2983.00           2612         910.00      3962.61
 1152.56        2983.25           2616         909.00      3958.25
 1152.59        2983.50           2619         885.00      3853.60
 1152.62        2983.75           2623         904.00      3936.45
 1152.65        2984.00           2626         850.00      3700.99
HS scan finished at 19:12:52
end
