************************************************************
  HS Scan of (1) Internal mercury lamp
************************************************************
Integration time is 0.2294 seconds per sample
dh180319Reading 51.44 .94 2.58pr1000
************************************************************
Dead Time -------------------------  3.4E-08 
Number of Cycles Used -------------  4 
Starting Wavelength (Angstroms) ---  2950 
Final Wavelength (Angstoms) -------  2984 
Wavelength Increment (Angstroms) --  .25 
Filter Wheel #1 Position ---------- (1) Ground quartz diffuser (ND=2.32)
Filter Wheel #2 Position ---------- (1) Neutral Density 0.494



************************************************************
HS scan start time = 03:16:11
Dark Count =  .4 


Time (GMT)  Wavelength (Ang)  Step Number  Raw Counts  Counts/Second

  197.08        2950.00           2144        1719.00      7493.63
  197.27        2950.25           2147        1655.00      7214.50
  197.30        2950.50           2151        1665.00      7258.11
  197.33        2950.75           2155        1672.00      7288.64
  197.36        2951.00           2158        1667.00      7266.84
  197.39        2951.25           2162        1707.00      7441.29
  197.43        2951.50           2165        1684.00      7340.98
  197.46        2951.75           2169        1730.00      7541.60
  197.49        2952.00           2172        1693.00      7380.23
  197.52        2952.25           2176        1708.00      7445.65
  197.55        2952.50           2179        1687.00      7354.06
  197.58        2952.75           2183        1716.00      7480.54
  197.61        2953.00           2186        1689.00      7362.78
  197.65        2953.25           2190        1747.00      7615.75
  197.69        2953.50           2193        1780.00      7759.68
  197.72        2953.75           2197        1747.00      7615.75
  197.75        2954.00           2200        1704.00      7428.21
  197.78        2954.25           2204        1741.00      7589.58
  197.81        2954.50           2208        1752.00      7637.55
  197.84        2954.75           2211        1734.00      7559.05
  197.87        2955.00           2215        1757.00      7659.36
  197.90        2955.25           2218        1773.00      7729.15
  197.93        2955.50           2222        1819.00      7929.78
  197.96        2955.75           2225        1781.00      7764.04
  197.99        2956.00           2229        1809.00      7886.16
  198.02        2956.25           2232        1854.00      8082.43
  198.05        2956.50           2236        1788.00      7794.57
  198.08        2956.75           2239        1853.00      8078.07
  198.11        2957.00           2243        1835.00      7999.56
  198.14        2957.25           2246        1866.00      8134.77
  198.17        2957.50           2250        1902.00      8291.79
  198.21        2957.75           2254        1944.00      8474.98
  198.25        2958.00           2257        1916.00      8352.85
  198.28        2958.25           2261        1927.00      8400.83
  198.31        2958.50           2264        1927.00      8400.83
  198.34        2958.75           2268        1957.00      8531.68
  198.37        2959.00           2271        1983.00      8645.09
  198.40        2959.25           2275        1991.00      8679.98
  198.43        2959.50           2278        2026.00      8832.64
  198.46        2959.75           2282        2014.00      8780.30
  198.49        2960.00           2285        2071.00      9028.93
  198.52        2960.25           2289        2072.00      9033.29
  198.55        2960.50           2293        2159.00      9412.78
  198.58        2960.75           2296        2137.00      9316.81
  198.62        2961.00           2300        2342.00     10211.04
  198.65        2961.25           2303        3195.00     13932.49
  198.68        2961.50           2307        9338.00     40760.90
  198.71        2961.75           2310       20311.00     88805.66
  198.74        2962.00           2314       39615.00    173710.80
  198.77        2962.25           2317       55237.00    242783.10
  198.80        2962.50           2321       76672.00    338090.80
  198.83        2962.75           2324       92976.00    411002.50
  198.86        2963.00           2328      118235.00    524685.10
  198.89        2963.25           2331      138153.00    614959.00
  198.92        2963.50           2335      163035.00    728523.80
  198.95        2963.75           2339      185014.00    829583.00
  198.98        2964.00           2342      202004.00    908188.60
  199.01        2964.25           2346      226358.00   1021614.00
  199.04        2964.50           2349      245650.00   1112100.00
  199.07        2964.75           2353      270199.00   1228071.00
  199.10        2965.00           2356      286027.00   1303341.00
  199.14        2965.25           2360      307079.00   1404070.00
  199.17        2965.50           2363      322251.00   1477105.00
  199.20        2965.75           2367      344598.00   1585361.00
  199.23        2966.00           2370      360329.00   1662063.00
  199.26        2966.25           2374      381329.00   1765101.00
  199.29        2966.50           2378      395047.00   1832814.00
  199.32        2966.75           2381      399207.00   1853411.00
  199.35        2967.00           2385      401373.00   1864148.00
  199.38        2967.25           2388      401103.00   1862809.00
  199.41        2967.50           2392      401314.00   1863855.00
  199.44        2967.75           2395      400979.00   1862194.00
  199.48        2968.00           2399      395781.00   1836446.00
  199.52        2968.25           2402      385344.00   1784886.00
  199.55        2968.50           2406      365289.00   1686332.00
  199.58        2968.75           2409      349184.00   1607679.00
  199.61        2969.00           2413      327804.00   1503929.00
  199.64        2969.25           2417      307096.00   1404151.00
  199.67        2969.50           2420      289727.00   1320994.00
  199.70        2969.75           2424      264213.00   1199707.00
  199.73        2970.00           2427      246355.00   1115418.00
  199.76        2970.25           2431      221340.00    998170.40
  199.79        2970.50           2434      202843.00    912081.40
  199.82        2970.75           2438      179420.00    803795.10
  199.85        2971.00           2441      159316.00    711493.30
  199.88        2971.25           2445      134936.00    600340.70
  199.92        2971.50           2449      110318.00    488957.80
  199.95        2971.75           2452       91856.00    405982.20
  199.98        2972.00           2456       66748.00    293888.00
  200.01        2972.25           2459       49090.00    215565.50
  200.04        2972.50           2463       28453.00    124556.90
  200.07        2972.75           2466       15584.00     68089.45
  200.10        2973.00           2470        5662.00     24700.77
  200.13        2973.25           2473        3136.00     13675.06
  200.16        2973.50           2477        2289.00      9979.85
  200.19        2973.75           2481        2224.00      9696.31
  200.22        2974.00           2484        2122.00      9251.38
  200.25        2974.25           2488        2116.00      9225.21
  200.28        2974.50           2491        2035.00      8871.90
  200.31        2974.75           2495        2052.00      8946.05
  200.34        2975.00           2498        1971.00      8592.75
  200.37        2975.25           2502        1964.00      8562.21
  200.40        2975.50           2505        1970.00      8588.38
  200.43        2975.75           2509        1886.00      8222.00
  200.47        2976.00           2512        1904.00      8300.51
  200.50        2976.25           2516        1838.00      8012.65
  200.53        2976.50           2520        1842.00      8030.09
  200.56        2976.75           2523        1884.00      8213.28
  200.59        2977.00           2527        1866.00      8134.77
  200.62        2977.25           2530        1842.00      8030.09
  200.65        2977.50           2534        1788.00      7794.57
  200.68        2977.75           2537        1762.00      7681.17
  200.71        2978.00           2541        1746.00      7611.39
  200.74        2978.25           2544        1763.00      7685.53
  200.77        2978.50           2548        1738.00      7576.49
  200.80        2978.75           2552        1723.00      7511.07
  200.83        2979.00           2555        1738.00      7576.49
  200.86        2979.25           2559        1711.00      7458.74
  200.89        2979.50           2562        1695.00      7388.95
  200.92        2979.75           2566        1710.00      7454.37
  200.95        2980.00           2569        1668.00      7271.20
  200.99        2980.25           2573        1678.00      7314.81
  201.02        2980.50           2577        1663.00      7249.39
  201.05        2980.75           2580        1635.00      7127.27
  201.08        2981.00           2584        1656.00      7218.86
  201.11        2981.25           2587        1656.00      7218.86
  201.14        2981.50           2591        1624.00      7079.30
  201.17        2981.75           2594        1611.00      7022.60
  201.20        2982.00           2598        1608.00      7009.52
  201.23        2982.25           2601        1615.00      7040.05
  201.26        2982.50           2605        1585.00      6909.21
  201.29        2982.75           2609        1613.00      7031.32
  201.32        2983.00           2612        1615.00      7040.05
  201.35        2983.25           2616        1601.00      6978.99
  201.38        2983.50           2619        1586.00      6913.57
  201.41        2983.75           2623        1576.00      6869.96
  201.44        2984.00           2626        1606.00      7000.79
HS scan finished at 03:21:40
end
************************************************************
  HS Scan of (1) Internal mercury lamp
************************************************************
Integration time is 0.2294 seconds per sample
dh180319Reading 51.44 .94 2.98pr1000
************************************************************
Dead Time -------------------------  3.4E-08 
Number of Cycles Used -------------  4 
Starting Wavelength (Angstroms) ---  2950 
Final Wavelength (Angstoms) -------  2984 
Wavelength Increment (Angstroms) --  .25 
Filter Wheel #1 Position ---------- (1) Ground quartz diffuser (ND=2.32)
Filter Wheel #2 Position ---------- (1) Neutral Density 0.494



************************************************************
HS scan start time = 19:07:23
Dark Count =  .8 


Time (GMT)  Wavelength (Ang)  Step Number  Raw Counts  Counts/Second

 1148.29        2950.00           2144        1406.00      6126.82
 1148.48        2950.25           2147        1427.00      6218.40
 1148.51        2950.50           2151        1420.00      6187.88
 1148.54        2950.75           2155        1412.00      6152.99
 1148.57        2951.00           2158        1443.00      6288.18
 1148.60        2951.25           2162        1459.00      6357.96
 1148.63        2951.50           2165        1460.00      6362.32
 1148.66        2951.75           2169        1432.00      6240.21
 1148.69        2952.00           2172        1423.00      6200.96
 1148.72        2952.25           2176        1445.00      6296.90
 1148.75        2952.50           2179        1490.00      6493.15
 1148.78        2952.75           2183        1428.00      6222.76
 1148.81        2953.00           2186        1447.00      6305.62
 1148.84        2953.25           2190        1450.00      6318.71
 1148.88        2953.50           2193        1470.00      6405.93
 1148.91        2953.75           2197        1472.00      6414.65
 1148.94        2954.00           2200        1468.00      6397.21
 1148.97        2954.25           2204        1496.00      6519.32
 1149.00        2954.50           2208        1539.00      6706.85
 1149.03        2954.75           2211        1482.00      6458.26
 1149.06        2955.00           2215        1494.00      6510.60
 1149.09        2955.25           2218        1459.00      6357.96
 1149.12        2955.50           2222        1529.00      6663.24
 1149.15        2955.75           2225        1498.00      6528.04
 1149.18        2956.00           2229        1490.00      6493.15
 1149.21        2956.25           2232        1542.00      6719.93
 1149.24        2956.50           2236        1509.00      6576.01
 1149.27        2956.75           2239        1572.00      6850.77
 1149.30        2957.00           2243        1534.00      6685.04
 1149.33        2957.25           2246        1584.00      6903.10
 1149.37        2957.50           2250        1580.00      6885.66
 1149.40        2957.75           2254        1616.00      7042.66
 1149.43        2958.00           2257        1632.00      7112.44
 1149.46        2958.25           2261        1640.00      7147.33
 1149.49        2958.50           2264        1625.00      7081.91
 1149.52        2958.75           2268        1682.00      7330.51
 1149.55        2959.00           2271        1685.00      7343.59
 1149.58        2959.25           2275        1739.00      7579.11
 1149.61        2959.50           2278        1678.00      7313.06
 1149.64        2959.75           2282        1726.00      7522.41
 1149.67        2960.00           2285        1749.00      7622.73
 1149.70        2960.25           2289        1797.00      7832.08
 1149.73        2960.50           2293        1828.00      7967.28
 1149.76        2960.75           2296        1864.00      8124.30
 1149.79        2961.00           2300        1951.00      8503.77
 1149.82        2961.25           2303        2255.00      9829.79
 1149.85        2961.50           2307        5599.00     24423.94
 1149.89        2961.75           2310       13508.00     58998.79
 1149.92        2962.00           2314       28787.00    126023.60
 1149.95        2962.25           2317       42886.00    188144.80
 1149.98        2962.50           2321       64142.00    282300.80
 1150.01        2962.75           2324       80664.00    355907.70
 1150.04        2963.00           2328      105631.00    467846.00
 1150.07        2963.25           2331      124599.00    553465.90
 1150.10        2963.50           2335      146462.00    652782.00
 1150.13        2963.75           2339      168414.00    753189.60
 1150.16        2964.00           2342      185353.00    831145.50
 1150.19        2964.25           2346      209346.00    942287.50
 1150.22        2964.50           2349      227485.00   1026883.00
 1150.25        2964.75           2353      249469.00   1130078.00
 1150.28        2965.00           2356      264254.00   1199899.00
 1150.31        2965.25           2360      285802.00   1302267.00
 1150.34        2965.50           2363      301132.00   1375541.00
 1150.37        2965.75           2367      322561.00   1478599.00
 1150.41        2966.00           2370      337153.00   1549202.00
 1150.44        2966.25           2374      355771.00   1639794.00
 1150.47        2966.50           2378      373076.00   1724516.00
 1150.50        2966.75           2381      378944.00   1753359.00
 1150.53        2967.00           2385      381426.00   1765576.00
 1150.56        2967.25           2388      381937.00   1768093.00
 1150.59        2967.50           2392      381906.00   1767940.00
 1150.62        2967.75           2395      382435.00   1770546.00
 1150.65        2968.00           2399      380088.00   1758989.00
 1150.68        2968.25           2402      372983.00   1724059.00
 1150.71        2968.50           2406      354834.00   1635221.00
 1150.74        2968.75           2409      339745.00   1561780.00
 1150.77        2969.00           2413      320931.00   1470734.00
 1150.80        2969.25           2417      300896.00   1374410.00
 1150.83        2969.50           2420      285013.00   1298506.00
 1150.86        2969.75           2424      262594.00   1192043.00
 1150.89        2970.00           2427      246226.00   1114809.00
 1150.93        2970.25           2431      223305.00   1007344.00
 1150.96        2970.50           2434      205746.00    925556.80
 1150.99        2970.75           2438      182271.00    816930.50
 1151.02        2971.00           2441      164271.00    734186.60
 1151.05        2971.25           2445      141150.00    628589.00
 1151.08        2971.50           2449      116548.00    517063.00
 1151.11        2971.75           2452       97713.00    432253.10
 1151.14        2972.00           2456       73918.00    325809.00
 1151.17        2972.25           2459       58119.00    255559.70
 1151.20        2972.50           2463       38032.00    166728.00
 1151.23        2972.75           2466       23696.00    103656.70
 1151.26        2973.00           2470        8250.00     36003.95
 1151.29        2973.25           2473        3485.00     15196.17
 1151.32        2973.50           2477        2110.00      9197.30
 1151.35        2973.75           2481        1918.00      8359.83
 1151.38        2974.00           2484        1844.00      8037.07
 1151.41        2974.25           2488        1858.00      8098.13
 1151.45        2974.50           2491        1842.00      8028.35
 1151.48        2974.75           2495        1746.00      7609.64
 1151.51        2975.00           2498        1748.00      7618.36
 1151.54        2975.25           2502        1698.00      7400.29
 1151.57        2975.50           2505        1706.00      7435.18
 1151.60        2975.75           2509        1673.00      7291.26
 1151.63        2976.00           2512        1658.00      7225.84
 1151.66        2976.25           2516        1648.00      7182.22
 1151.69        2976.50           2520        1649.00      7186.59
 1151.72        2976.75           2523        1632.00      7112.44
 1151.75        2977.00           2527        1567.00      6828.96
 1151.78        2977.25           2530        1565.00      6820.24
 1151.81        2977.50           2534        1573.00      6855.13
 1151.84        2977.75           2537        1564.00      6815.88
 1151.87        2978.00           2541        1481.00      6453.90
 1151.90        2978.25           2544        1529.00      6663.24
 1151.93        2978.50           2548        1497.00      6523.68
 1151.96        2978.75           2552        1492.00      6501.87
 1152.00        2979.00           2555        1456.00      6344.87
 1152.03        2979.25           2559        1471.00      6410.29
 1152.06        2979.50           2562        1456.00      6344.87
 1152.09        2979.75           2566        1449.00      6314.35
 1152.12        2980.00           2569        1452.00      6327.43
 1152.15        2980.25           2573        1427.00      6218.40
 1152.18        2980.50           2577        1389.00      6052.68
 1152.21        2980.75           2580        1411.00      6148.63
 1152.24        2981.00           2584        1366.00      5952.38
 1152.27        2981.25           2587        1388.00      6048.32
 1152.30        2981.50           2591        1384.00      6030.88
 1152.33        2981.75           2594        1373.00      5982.91
 1152.36        2982.00           2598        1378.00      6004.71
 1152.39        2982.25           2601        1379.00      6009.07
 1152.42        2982.50           2605        1361.00      5930.58
 1152.45        2982.75           2609        1345.00      5860.80
 1152.48        2983.00           2612        1310.00      5708.17
 1152.52        2983.25           2616        1338.00      5830.28
 1152.55        2983.50           2619        1314.00      5725.61
 1152.58        2983.75           2623        1337.00      5825.91
 1152.61        2984.00           2626        1347.00      5869.52
HS scan finished at 19:12:50
end
