************************************************************
  HS Scan of (1) Internal mercury lamp
************************************************************
Integration time is 0.2294 seconds per sample
dh130318Reading 51.44 .94 2.76pr1000
************************************************************
Dead Time -------------------------  3.4E-08 
Number of Cycles Used -------------  4 
Starting Wavelength (Angstroms) ---  2950 
Final Wavelength (Angstoms) -------  2984 
Wavelength Increment (Angstroms) --  .25 
Filter Wheel #1 Position ---------- (1) Ground quartz diffuser (ND=2.32)
Filter Wheel #2 Position ---------- (1) Neutral Density 0.494



************************************************************
HS scan start time = 03:31:42
Dark Count =  .4 


Time (GMT)  Wavelength (Ang)  Step Number  Raw Counts  Counts/Second

  212.59        2950.00           2144         152.00       660.87
  212.78        2950.25           2147         140.00       608.56
  212.81        2950.50           2151         142.00       617.28
  212.85        2950.75           2155         163.00       708.82
  212.88        2951.00           2158         136.00       591.12
  212.91        2951.25           2162         135.00       586.76
  212.94        2951.50           2165         146.00       634.71
  212.97        2951.75           2169         152.00       660.87
  213.00        2952.00           2172         139.00       604.20
  213.03        2952.25           2176         143.00       621.63
  213.06        2952.50           2179         165.00       717.54
  213.09        2952.75           2183         150.00       652.15
  213.12        2953.00           2186         156.00       678.31
  213.15        2953.25           2190         150.00       652.15
  213.18        2953.50           2193         150.00       652.15
  213.21        2953.75           2197         146.00       634.71
  213.24        2954.00           2200         157.00       682.67
  213.27        2954.25           2204         149.00       647.79
  213.30        2954.50           2208         158.00       687.03
  213.33        2954.75           2211         150.00       652.15
  213.37        2955.00           2215         152.00       660.87
  213.40        2955.25           2218         145.00       630.35
  213.43        2955.50           2222         166.00       721.90
  213.46        2955.75           2225         157.00       682.67
  213.49        2956.00           2229         164.00       713.18
  213.52        2956.25           2232         163.00       708.82
  213.55        2956.50           2236         157.00       682.67
  213.58        2956.75           2239         180.00       782.93
  213.61        2957.00           2243         167.00       726.26
  213.64        2957.25           2246         165.00       717.54
  213.67        2957.50           2250         163.00       708.82
  213.70        2957.75           2254         169.00       734.98
  213.73        2958.00           2257         173.00       752.42
  213.76        2958.25           2261         169.00       734.98
  213.79        2958.50           2264         180.00       782.93
  213.82        2958.75           2268         180.00       782.93
  213.85        2959.00           2271         179.00       778.57
  213.89        2959.25           2275         176.00       765.50
  213.92        2959.50           2278         183.00       796.01
  213.95        2959.75           2282         203.00       883.20
  213.98        2960.00           2285         205.00       891.92
  214.01        2960.25           2289         209.00       909.36
  214.04        2960.50           2293         202.00       878.84
  214.07        2960.75           2296         213.00       926.79
  214.10        2961.00           2300         258.00      1122.97
  214.13        2961.25           2303         506.00      2204.18
  214.16        2961.50           2307        2049.00      8932.97
  214.19        2961.75           2310        4040.00     17619.97
  214.22        2962.00           2314        7048.00     30754.03
  214.25        2962.25           2317        9433.00     41176.18
  214.28        2962.50           2321       12497.00     54576.33
  214.31        2962.75           2324       15112.00     66022.50
  214.34        2963.00           2328       18564.00     81145.98
  214.37        2963.25           2331       21282.00     93064.71
  214.41        2963.50           2335       24639.00    107798.90
  214.44        2963.75           2339       28003.00    122578.70
  214.47        2964.00           2342       30525.00    133668.90
  214.50        2964.25           2346       34134.00    149553.60
  214.53        2964.50           2349       36422.00    159633.00
  214.56        2964.75           2353       40089.00    175801.80
  214.59        2965.00           2356       42897.00    188195.10
  214.62        2965.25           2360       46019.00    201986.60
  214.65        2965.50           2363       48434.00    212663.80
  214.68        2965.75           2367       51895.00    227979.20
  214.71        2966.00           2370       54421.00    239167.10
  214.74        2966.25           2374       56575.00    248714.20
  214.77        2966.50           2378       58105.00    255499.40
  214.80        2966.75           2381       58357.00    256617.20
  214.83        2967.00           2385       58474.00    257136.30
  214.86        2967.25           2388       58441.00    256989.90
  214.89        2967.50           2392       58356.00    256612.80
  214.93        2967.75           2395       57723.00    253805.00
  214.96        2968.00           2399       55943.00    245912.40
  214.99        2968.25           2402       53689.00    235924.10
  215.02        2968.50           2406       50686.00    222627.40
  215.05        2968.75           2409       48142.00    211372.40
  215.08        2969.00           2413       44851.00    196825.40
  215.11        2969.25           2417       42028.00    184358.60
  215.14        2969.50           2420       39729.00    174213.70
  215.17        2969.75           2424       36087.00    158156.80
  215.20        2970.00           2427       33257.00    145692.00
  215.23        2970.25           2431       29715.00    130106.10
  215.26        2970.50           2434       27170.00    118917.50
  215.29        2970.75           2438       23940.00    104729.70
  215.32        2971.00           2441       21377.00     93481.49
  215.35        2971.25           2445       18164.00     79392.75
  215.38        2971.50           2449       14981.00     65448.88
  215.41        2971.75           2452       12501.00     54593.83
  215.45        2972.00           2456        9231.00     40293.17
  215.48        2972.25           2459        6859.00     29928.43
  215.51        2972.50           2463        3624.00     15804.48
  215.54        2972.75           2466        1716.00      7480.54
  215.57        2973.00           2470         550.00      2396.01
  215.60        2973.25           2473         301.00      1310.43
  215.63        2973.50           2477         234.00      1018.34
  215.66        2973.75           2481         215.00       935.51
  215.69        2974.00           2484         209.00       909.36
  215.72        2974.25           2488         208.00       905.00
  215.75        2974.50           2491         203.00       883.20
  215.78        2974.75           2495         215.00       935.51
  215.81        2975.00           2498         198.00       861.40
  215.84        2975.25           2502         184.00       800.37
  215.87        2975.50           2505         182.00       791.65
  215.90        2975.75           2509         199.00       865.76
  215.93        2976.00           2512         180.00       782.93
  215.97        2976.25           2516         178.00       774.21
  216.00        2976.50           2520         178.00       774.21
  216.03        2976.75           2523         174.00       756.78
  216.06        2977.00           2527         167.00       726.26
  216.09        2977.25           2530         178.00       774.21
  216.12        2977.50           2534         168.00       730.62
  216.15        2977.75           2537         177.00       769.85
  216.18        2978.00           2541         164.00       713.18
  216.21        2978.25           2544         171.00       743.70
  216.24        2978.50           2548         167.00       726.26
  216.27        2978.75           2552         159.00       691.39
  216.30        2979.00           2555         149.00       647.79
  216.33        2979.25           2559         159.00       691.39
  216.36        2979.50           2562         171.00       743.70
  216.39        2979.75           2566         152.00       660.87
  216.42        2980.00           2569         148.00       643.43
  216.45        2980.25           2573         144.00       625.99
  216.49        2980.50           2577         148.00       643.43
  216.52        2980.75           2580         167.00       726.26
  216.55        2981.00           2584         147.00       639.07
  216.58        2981.25           2587         156.00       678.31
  216.61        2981.50           2591         140.00       608.56
  216.64        2981.75           2594         158.00       687.03
  216.67        2982.00           2598         162.00       704.46
  216.70        2982.25           2601         153.00       665.23
  216.73        2982.50           2605         139.00       604.20
  216.76        2982.75           2609         135.00       586.76
  216.79        2983.00           2612         144.00       625.99
  216.82        2983.25           2616         154.00       669.59
  216.87        2983.50           2619         133.00       578.04
  216.91        2983.75           2623         138.00       599.84
  216.95        2984.00           2626         142.00       617.28
HS scan finished at 03:37:10
end
************************************************************
  HS Scan of (1) Internal mercury lamp
************************************************************
Integration time is 0.2294 seconds per sample
dh130318Reading 51.44 .94 3.05pr1000
************************************************************
Dead Time -------------------------  3.4E-08 
Number of Cycles Used -------------  4 
Starting Wavelength (Angstroms) ---  2950 
Final Wavelength (Angstoms) -------  2984 
Wavelength Increment (Angstroms) --  .25 
Filter Wheel #1 Position ---------- (1) Ground quartz diffuser (ND=2.32)
Filter Wheel #2 Position ---------- (1) Neutral Density 0.494



************************************************************
HS scan start time = 19:07:23
Dark Count =  .9 


Time (GMT)  Wavelength (Ang)  Step Number  Raw Counts  Counts/Second

 1148.29        2950.00           2144         110.00       475.60
 1148.48        2950.25           2147         121.00       523.55
 1148.51        2950.50           2151         138.00       597.66
 1148.54        2950.75           2155         137.00       593.30
 1148.57        2951.00           2158         115.00       497.39
 1148.60        2951.25           2162         131.00       567.14
 1148.63        2951.50           2165         148.00       641.25
 1148.66        2951.75           2169         132.00       571.50
 1148.69        2952.00           2172         113.00       488.67
 1148.72        2952.25           2176         132.00       571.50
 1148.75        2952.50           2179         122.00       527.91
 1148.78        2952.75           2183         107.00       462.52
 1148.82        2953.00           2186         104.00       449.44
 1148.85        2953.25           2190         108.00       466.88
 1148.88        2953.50           2193         131.00       567.14
 1148.91        2953.75           2197         147.00       636.89
 1148.94        2954.00           2200         123.00       532.27
 1148.97        2954.25           2204         156.00       676.13
 1149.00        2954.50           2208         137.00       593.30
 1149.03        2954.75           2211         130.00       562.78
 1149.06        2955.00           2215         119.00       514.83
 1149.09        2955.25           2218         132.00       571.50
 1149.12        2955.50           2222         120.00       519.19
 1149.15        2955.75           2225         131.00       567.14
 1149.18        2956.00           2229         150.00       649.97
 1149.21        2956.25           2232         135.00       584.58
 1149.24        2956.50           2236         129.00       558.42
 1149.27        2956.75           2239         137.00       593.30
 1149.30        2957.00           2243         146.00       632.53
 1149.34        2957.25           2246         147.00       636.89
 1149.37        2957.50           2250         132.00       571.50
 1149.40        2957.75           2254         139.00       602.02
 1149.43        2958.00           2257         148.00       641.25
 1149.46        2958.25           2261         146.00       632.53
 1149.49        2958.50           2264         141.00       610.74
 1149.52        2958.75           2268         149.00       645.61
 1149.55        2959.00           2271         146.00       632.53
 1149.58        2959.25           2275         151.00       654.33
 1149.61        2959.50           2278         146.00       632.53
 1149.64        2959.75           2282         156.00       676.13
 1149.67        2960.00           2285         169.00       732.80
 1149.70        2960.25           2289         149.00       645.61
 1149.73        2960.50           2293         158.00       684.85
 1149.76        2960.75           2296         169.00       732.80
 1149.79        2961.00           2300         203.00       881.02
 1149.82        2961.25           2303         357.00      1552.39
 1149.85        2961.50           2307        1403.00      6113.30
 1149.89        2961.75           2310        2817.00     12281.06
 1149.92        2962.00           2314        5200.00     22681.39
 1149.95        2962.25           2317        7186.00     31354.68
 1149.98        2962.50           2321        9914.00     43276.80
 1150.01        2962.75           2324       12135.00     52990.33
 1150.04        2963.00           2328       14709.00     64255.75
 1150.07        2963.25           2331       16630.00     72668.87
 1150.10        2963.50           2335       19456.00     85054.24
 1150.13        2963.75           2339       22285.00     97463.24
 1150.16        2964.00           2342       24602.00    107634.20
 1150.19        2964.25           2346       27461.00    120194.20
 1150.22        2964.50           2349       29391.00    128679.00
 1150.25        2964.75           2353       31959.00    139976.30
 1150.28        2965.00           2356       34075.00    149291.60
 1150.31        2965.25           2360       36738.00    161023.50
 1150.34        2965.50           2363       38714.00    169734.80
 1150.38        2965.75           2367       41613.00    182524.60
 1150.41        2966.00           2370       43187.00    189473.50
 1150.44        2966.25           2374       45297.00    198793.80
 1150.47        2966.50           2378       46463.00    203946.80
 1150.50        2966.75           2381       46993.00    206289.70
 1150.53        2967.00           2385       46836.00    205595.60
 1150.56        2967.25           2388       47047.00    206528.40
 1150.59        2967.50           2392       46925.00    205989.10
 1150.62        2967.75           2395       46893.00    205847.60
 1150.65        2968.00           2399       45345.00    199005.90
 1150.68        2968.25           2402       43928.00    192745.90
 1150.71        2968.50           2406       41845.00    183548.60
 1150.74        2968.75           2409       39709.00    174123.30
 1150.77        2969.00           2413       37054.00    162416.20
 1150.80        2969.25           2417       34152.00    149630.70
 1150.83        2969.50           2420       32473.00    142238.50
 1150.86        2969.75           2424       29558.00    129413.40
 1150.90        2970.00           2427       27533.00    120510.60
 1150.93        2970.25           2431       24679.00    107972.40
 1150.96        2970.50           2434       22804.00     99740.90
 1150.99        2970.75           2438       20131.00     88014.08
 1151.02        2971.00           2441       17920.00     78321.19
 1151.05        2971.25           2445       15040.00     65705.03
 1151.08        2971.50           2449       12243.00     53462.83
 1151.11        2971.75           2452       10237.00     44689.04
 1151.14        2972.00           2456        7493.00     32695.87
 1151.17        2972.25           2459        5640.00     24602.52
 1151.20        2972.50           2463        3160.00     13777.59
 1151.23        2972.75           2466        1577.00      6872.14
 1151.26        2973.00           2470         437.00      1901.17
 1151.29        2973.25           2473         242.00      1051.04
 1151.32        2973.50           2477         195.00       846.14
 1151.35        2973.75           2481         172.00       745.88
 1151.38        2974.00           2484         167.00       724.08
 1151.41        2974.25           2488         190.00       824.35
 1151.45        2974.50           2491         162.00       702.28
 1151.48        2974.75           2495         155.00       671.77
 1151.51        2975.00           2498         161.00       697.92
 1151.54        2975.25           2502         154.00       667.41
 1151.57        2975.50           2505         155.00       671.77
 1151.60        2975.75           2509         144.00       623.81
 1151.63        2976.00           2512         160.00       693.56
 1151.66        2976.25           2516         139.00       602.02
 1151.69        2976.50           2520         136.00       588.94
 1151.72        2976.75           2523         132.00       571.50
 1151.75        2977.00           2527         149.00       645.61
 1151.78        2977.25           2530         131.00       567.14
 1151.81        2977.50           2534         131.00       567.14
 1151.84        2977.75           2537         122.00       527.91
 1151.88        2978.00           2541         123.00       532.27
 1151.91        2978.25           2544         136.00       588.94
 1151.94        2978.50           2548         139.00       602.02
 1151.97        2978.75           2552         140.00       606.38
 1152.00        2979.00           2555         119.00       514.83
 1152.03        2979.25           2559         119.00       514.83
 1152.06        2979.50           2562         120.00       519.19
 1152.09        2979.75           2566         106.00       458.16
 1152.12        2980.00           2569         131.00       567.14
 1152.15        2980.25           2573         109.00       471.24
 1152.18        2980.50           2577         116.00       501.75
 1152.21        2980.75           2580         125.00       540.99
 1152.24        2981.00           2584         114.00       493.03
 1152.27        2981.25           2587         112.00       484.31
 1152.30        2981.50           2591         128.00       554.06
 1152.33        2981.75           2594         135.00       584.58
 1152.36        2982.00           2598         112.00       484.31
 1152.40        2982.25           2601         130.00       562.78
 1152.43        2982.50           2605         126.00       545.35
 1152.46        2982.75           2609         102.00       440.72
 1152.49        2983.00           2612         102.00       440.72
 1152.52        2983.25           2616         106.00       458.16
 1152.55        2983.50           2619          95.00       410.21
 1152.58        2983.75           2623         107.00       462.52
 1152.61        2984.00           2626         102.00       440.72
HS scan finished at 19:12:50
end
