************************************************************
  HS Scan of (1) Internal mercury lamp
************************************************************
Integration time is 0.2294 seconds per sample
dh230318Reading 51.44 .94 2.82pr1000
************************************************************
Dead Time -------------------------  3.4E-08 
Number of Cycles Used -------------  4 
Starting Wavelength (Angstroms) ---  2950 
Final Wavelength (Angstoms) -------  2984 
Wavelength Increment (Angstroms) --  .25 
Filter Wheel #1 Position ---------- (1) Ground quartz diffuser (ND=2.32)
Filter Wheel #2 Position ---------- (1) Neutral Density 0.494



************************************************************
HS scan start time = 02:57:19
Dark Count =  .5 


Time (GMT)  Wavelength (Ang)  Step Number  Raw Counts  Counts/Second

  178.21        2950.00           2144         134.00       581.96
  178.41        2950.25           2147         155.00       673.51
  178.44        2950.50           2151         135.00       586.32
  178.47        2950.75           2155         148.00       643.00
  178.50        2951.00           2158         133.00       577.61
  178.53        2951.25           2162         171.00       743.26
  178.56        2951.50           2165         136.00       590.68
  178.59        2951.75           2169         142.00       616.84
  178.62        2952.00           2172         157.00       682.23
  178.65        2952.25           2176         153.00       664.79
  178.68        2952.50           2179         138.00       599.40
  178.71        2952.75           2183         142.00       616.84
  178.74        2953.00           2186         139.00       603.76
  178.77        2953.25           2190         156.00       677.87
  178.80        2953.50           2193         141.00       612.48
  178.84        2953.75           2197         151.00       656.07
  178.87        2954.00           2200         147.00       638.64
  178.90        2954.25           2204         156.00       677.87
  178.93        2954.50           2208         153.00       664.79
  178.96        2954.75           2211         150.00       651.71
  178.99        2955.00           2215         164.00       712.75
  179.02        2955.25           2218         154.00       669.15
  179.05        2955.50           2222         164.00       712.75
  179.08        2955.75           2225         155.00       673.51
  179.11        2956.00           2229         151.00       656.07
  179.14        2956.25           2232         158.00       686.59
  179.17        2956.50           2236         158.00       686.59
  179.20        2956.75           2239         168.00       730.18
  179.23        2957.00           2243         157.00       682.23
  179.26        2957.25           2246         171.00       743.26
  179.29        2957.50           2250         173.00       751.98
  179.32        2957.75           2254         165.00       717.11
  179.36        2958.00           2257         161.00       699.67
  179.39        2958.25           2261         175.00       760.70
  179.42        2958.50           2264         170.00       738.90
  179.45        2958.75           2268         173.00       751.98
  179.48        2959.00           2271         171.00       743.26
  179.51        2959.25           2275         191.00       830.45
  179.54        2959.50           2278         180.00       782.50
  179.57        2959.75           2282         189.00       821.73
  179.60        2960.00           2285         175.00       760.70
  179.63        2960.25           2289         187.00       813.01
  179.66        2960.50           2293         191.00       830.45
  179.69        2960.75           2296         197.00       856.61
  179.72        2961.00           2300         257.00      1118.18
  179.75        2961.25           2303         379.00      1650.05
  179.78        2961.50           2307        1396.00      6084.52
  179.81        2961.75           2310        3059.00     13338.66
  179.84        2962.00           2314        5922.00     25835.68
  179.88        2962.25           2317        8330.00     36354.85
  179.91        2962.50           2321       11486.00     50153.02
  179.94        2962.75           2324       13786.00     60216.89
  179.97        2963.00           2328       16838.00     73581.86
  180.00        2963.25           2331       19382.00     84731.54
  180.03        2963.50           2335       22863.00    100001.60
  180.06        2963.75           2339       26342.00    115278.80
  180.09        2964.00           2342       29041.00    127141.70
  180.13        2964.25           2346       32051.00    140382.90
  180.16        2964.50           2349       34305.00    150306.30
  180.19        2964.75           2353       37778.00    165609.50
  180.22        2965.00           2356       40360.00    176997.00
  180.25        2965.25           2360       43721.00    191833.40
  180.28        2965.50           2363       46054.00    202140.90
  180.31        2965.75           2367       48815.00    214348.50
  180.34        2966.00           2370       51140.00    224636.40
  180.37        2966.25           2374       54259.00    238448.90
  180.40        2966.50           2378       56643.00    249015.30
  180.43        2966.75           2381       57233.00    251631.40
  180.46        2967.00           2385       57329.00    252057.20
  180.49        2967.25           2388       57651.00    253485.20
  180.52        2967.50           2392       57677.00    253600.50
  180.55        2967.75           2395       57304.00    251946.30
  180.59        2968.00           2399       56522.00    248478.80
  180.62        2968.25           2402       54789.00    240797.30
  180.65        2968.50           2406       51897.00    227987.60
  180.68        2968.75           2409       49277.00    216392.20
  180.71        2969.00           2413       45361.00    199078.40
  180.74        2969.25           2417       42292.00    185523.60
  180.77        2969.50           2420       39765.00    174372.10
  180.80        2969.75           2424       36432.00    159676.70
  180.83        2970.00           2427       33548.00    146972.80
  180.86        2970.25           2431       29749.00    130255.20
  180.89        2970.50           2434       27226.00    119163.20
  180.92        2970.75           2438       23633.00    103381.50
  180.95        2971.00           2441       21317.00     93217.82
  180.98        2971.25           2445       18071.00     78984.72
  181.01        2971.50           2449       14713.00     64275.01
  181.04        2971.75           2452       12396.00     54133.99
  181.07        2972.00           2456        9326.00     40708.00
  181.10        2972.25           2459        6793.00     29639.71
  181.14        2972.50           2463        3634.00     15847.68
  181.17        2972.75           2466        1835.00      7999.12
  181.20        2973.00           2470         622.00      2709.49
  181.23        2973.25           2473         311.00      1353.59
  181.26        2973.50           2477         270.00      1174.85
  181.29        2973.75           2481         244.00      1061.50
  181.32        2974.00           2484         245.00      1065.86
  181.35        2974.25           2488         213.00       926.36
  181.38        2974.50           2491         198.00       860.97
  181.41        2974.75           2495         204.00       887.12
  181.44        2975.00           2498         172.00       747.62
  181.47        2975.25           2502         166.00       721.46
  181.50        2975.50           2505         188.00       817.37
  181.53        2975.75           2509         179.00       778.14
  181.56        2976.00           2512         178.00       773.78
  181.59        2976.25           2516         174.00       756.34
  181.62        2976.50           2520         172.00       747.62
  181.66        2976.75           2523         175.00       760.70
  181.69        2977.00           2527         162.00       704.03
  181.72        2977.25           2530         156.00       677.87
  181.75        2977.50           2534         169.00       734.54
  181.78        2977.75           2537         155.00       673.51
  181.81        2978.00           2541         162.00       704.03
  181.84        2978.25           2544         171.00       743.26
  181.87        2978.50           2548         169.00       734.54
  181.90        2978.75           2552         152.00       660.43
  181.93        2979.00           2555         153.00       664.79
  181.96        2979.25           2559         171.00       743.26
  181.99        2979.50           2562         159.00       690.95
  182.02        2979.75           2566         157.00       682.23
  182.05        2980.00           2569         162.00       704.03
  182.08        2980.25           2573         137.00       595.04
  182.11        2980.50           2577         154.00       669.15
  182.14        2980.75           2580         139.00       603.76
  182.18        2981.00           2584         141.00       612.48
  182.21        2981.25           2587         150.00       651.71
  182.24        2981.50           2591         151.00       656.07
  182.27        2981.75           2594         153.00       664.79
  182.30        2982.00           2598         129.00       560.17
  182.33        2982.25           2601         131.00       568.89
  182.36        2982.50           2605         155.00       673.51
  182.39        2982.75           2609         149.00       647.36
  182.42        2983.00           2612         149.00       647.36
  182.45        2983.25           2616         143.00       621.20
  182.48        2983.50           2619         146.00       634.28
  182.51        2983.75           2623         121.00       525.29
  182.54        2984.00           2626         131.00       568.89
HS scan finished at 03:02:46
end
************************************************************
  HS Scan of (1) Internal mercury lamp
************************************************************
Integration time is 0.2294 seconds per sample
dh230318Reading 51.44 .94 3.13pr1000
************************************************************
Dead Time -------------------------  3.4E-08 
Number of Cycles Used -------------  4 
Starting Wavelength (Angstroms) ---  2950 
Final Wavelength (Angstoms) -------  2984 
Wavelength Increment (Angstroms) --  .25 
Filter Wheel #1 Position ---------- (1) Ground quartz diffuser (ND=2.32)
Filter Wheel #2 Position ---------- (1) Neutral Density 0.494



************************************************************
HS scan start time = 19:07:30
Dark Count =  1 


Time (GMT)  Wavelength (Ang)  Step Number  Raw Counts  Counts/Second

 1148.41        2950.00           2144         106.00       457.72
 1148.60        2950.25           2147          97.00       418.49
 1148.63        2950.50           2151         105.00       453.36
 1148.66        2950.75           2155         128.00       553.63
 1148.69        2951.00           2158         121.00       523.11
 1148.72        2951.25           2162         110.00       475.16
 1148.75        2951.50           2165         113.00       488.24
 1148.78        2951.75           2169         150.00       649.53
 1148.82        2952.00           2172         105.00       453.36
 1148.85        2952.25           2176          98.00       422.85
 1148.88        2952.50           2179         114.00       492.60
 1148.91        2952.75           2183         109.00       470.80
 1148.94        2953.00           2186         109.00       470.80
 1148.97        2953.25           2190         104.00       449.00
 1149.00        2953.50           2193         123.00       531.83
 1149.03        2953.75           2197         149.00       645.18
 1149.06        2954.00           2200         113.00       488.24
 1149.09        2954.25           2204         125.00       540.55
 1149.12        2954.50           2208         146.00       632.10
 1149.15        2954.75           2211         104.00       449.00
 1149.18        2955.00           2215         110.00       475.16
 1149.21        2955.25           2218         124.00       536.19
 1149.24        2955.50           2222         153.00       662.61
 1149.27        2955.75           2225         135.00       584.14
 1149.30        2956.00           2229         142.00       614.66
 1149.34        2956.25           2232         124.00       536.19
 1149.37        2956.50           2236         126.00       544.91
 1149.40        2956.75           2239         137.00       592.86
 1149.43        2957.00           2243         134.00       579.78
 1149.46        2957.25           2246         143.00       619.02
 1149.49        2957.50           2250         138.00       597.22
 1149.52        2957.75           2254         143.00       619.02
 1149.55        2958.00           2257         131.00       566.71
 1149.58        2958.25           2261         131.00       566.71
 1149.61        2958.50           2264         134.00       579.78
 1149.64        2958.75           2268         148.00       640.82
 1149.67        2959.00           2271         155.00       671.33
 1149.70        2959.25           2275         140.00       605.94
 1149.73        2959.50           2278         166.00       719.29
 1149.76        2959.75           2282         136.00       588.50
 1149.79        2960.00           2285         146.00       632.10
 1149.82        2960.25           2289         148.00       640.82
 1149.86        2960.50           2293         161.00       697.49
 1149.89        2960.75           2296         160.00       693.13
 1149.92        2961.00           2300         179.00       775.96
 1149.95        2961.25           2303         275.00      1194.47
 1149.98        2961.50           2307        1025.00      4464.50
 1150.01        2961.75           2310        2374.00     10348.02
 1150.04        2962.00           2314        4594.00     20035.44
 1150.07        2962.25           2317        6556.00     28602.35
 1150.10        2962.50           2321        9063.00     39556.22
 1150.13        2962.75           2324       10955.00     47828.37
 1150.16        2963.00           2328       13694.00     59812.01
 1150.19        2963.25           2331       15604.00     68174.41
 1150.22        2963.50           2335       18136.00     79267.41
 1150.25        2963.75           2339       20946.00     91588.18
 1150.28        2964.00           2342       23288.00    101864.80
 1150.31        2964.25           2346       26187.00    114595.60
 1150.34        2964.50           2349       28512.00    124813.60
 1150.37        2964.75           2353       31377.00    137414.70
 1150.41        2965.00           2356       33385.00    146252.90
 1150.44        2965.25           2360       35590.00    155964.40
 1150.47        2965.50           2363       37733.00    165408.90
 1150.50        2965.75           2367       40370.00    177038.90
 1150.53        2966.00           2370       42550.00    186660.40
 1150.56        2966.25           2374       44777.00    196495.90
 1150.59        2966.50           2378       46047.00    202107.70
 1150.62        2966.75           2381       46973.00    206200.90
 1150.65        2967.00           2385       46994.00    206293.70
 1150.68        2967.25           2388       46917.00    205953.30
 1150.71        2967.50           2392       46884.00    205807.40
 1150.74        2967.75           2395       46477.00    204008.30
 1150.77        2968.00           2399       45599.00    200127.90
 1150.80        2968.25           2402       43908.00    192657.20
 1150.83        2968.50           2406       41342.00    181328.10
 1150.86        2968.75           2409       39022.00    171092.60
 1150.89        2969.00           2413       37089.00    162570.00
 1150.93        2969.25           2417       34397.00    150709.20
 1150.96        2969.50           2420       32299.00    141472.20
 1150.99        2969.75           2424       29465.00    129004.00
 1151.02        2970.00           2427       27255.00    119288.40
 1151.05        2970.25           2431       24349.00    106522.90
 1151.08        2970.50           2434       22222.00     97186.35
 1151.11        2970.75           2438       19450.00     85027.49
 1151.14        2971.00           2441       17214.00     75227.04
 1151.17        2971.25           2445       14524.00     63445.35
 1151.20        2971.50           2449       12231.00     53409.89
 1151.23        2971.75           2452       10118.00     44168.29
 1151.26        2972.00           2456        7455.00     32529.42
 1151.29        2972.25           2459        5389.00     23506.14
 1151.32        2972.50           2463        3008.00     13113.95
 1151.35        2972.75           2466        1518.00      6614.39
 1151.38        2973.00           2470         438.00      1905.09
 1151.41        2973.25           2473         231.00      1002.65
 1151.45        2973.50           2477         174.00       754.16
 1151.48        2973.75           2481         164.00       710.57
 1151.51        2974.00           2484         167.00       723.64
 1151.54        2974.25           2488         159.00       688.77
 1151.57        2974.50           2491         149.00       645.18
 1151.60        2974.75           2495         163.00       706.21
 1151.63        2975.00           2498         151.00       653.89
 1151.66        2975.25           2502         147.00       636.46
 1151.69        2975.50           2505         152.00       658.25
 1151.72        2975.75           2509         158.00       684.41
 1151.75        2976.00           2512         144.00       623.38
 1151.78        2976.25           2516         147.00       636.46
 1151.81        2976.50           2520         129.00       557.99
 1151.84        2976.75           2523         145.00       627.74
 1151.87        2977.00           2527         127.00       549.27
 1151.90        2977.25           2530         132.00       571.07
 1151.93        2977.50           2534         143.00       619.02
 1151.97        2977.75           2537         141.00       610.30
 1152.00        2978.00           2541         148.00       640.82
 1152.03        2978.25           2544         121.00       523.11
 1152.06        2978.50           2548         122.00       527.47
 1152.09        2978.75           2552         133.00       575.43
 1152.12        2979.00           2555         123.00       531.83
 1152.15        2979.25           2559         137.00       592.86
 1152.18        2979.50           2562         146.00       632.10
 1152.21        2979.75           2566         117.00       505.68
 1152.24        2980.00           2569         118.00       510.03
 1152.27        2980.25           2573         140.00       605.94
 1152.30        2980.50           2577         143.00       619.02
 1152.33        2980.75           2580         108.00       466.44
 1152.36        2981.00           2584         100.00       431.57
 1152.39        2981.25           2587         101.00       435.93
 1152.42        2981.50           2591         113.00       488.24
 1152.45        2981.75           2594          96.00       414.13
 1152.49        2982.00           2598         106.00       457.72
 1152.52        2982.25           2601          97.00       418.49
 1152.55        2982.50           2605         122.00       527.47
 1152.58        2982.75           2609         107.00       462.08
 1152.61        2983.00           2612          98.00       422.85
 1152.64        2983.25           2616         102.00       440.29
 1152.67        2983.50           2619         105.00       453.36
 1152.70        2983.75           2623          98.00       422.85
 1152.73        2984.00           2626         104.00       449.00
HS scan finished at 19:12:57
end
