************************************************************
  HS Scan of (1) Internal mercury lamp
************************************************************
Integration time is 0.2294 seconds per sample
dh270318Reading 51.44 .94 2.78pr1000
************************************************************
Dead Time -------------------------  3.4E-08 
Number of Cycles Used -------------  4 
Starting Wavelength (Angstroms) ---  2950 
Final Wavelength (Angstoms) -------  2984 
Wavelength Increment (Angstroms) --  .25 
Filter Wheel #1 Position ---------- (1) Ground quartz diffuser (ND=2.32)
Filter Wheel #2 Position ---------- (1) Neutral Density 0.494



************************************************************
HS scan start time = 02:41:16
Dark Count =  .6 


Time (GMT)  Wavelength (Ang)  Step Number  Raw Counts  Counts/Second

  162.17        2950.00           2144         171.00       742.83
  162.36        2950.25           2147         163.00       707.95
  162.39        2950.50           2151         168.00       729.75
  162.42        2950.75           2155         163.00       707.95
  162.45        2951.00           2158         166.00       721.03
  162.48        2951.25           2162         161.00       699.23
  162.51        2951.50           2165         173.00       751.54
  162.54        2951.75           2169         167.00       725.39
  162.58        2952.00           2172         172.00       747.19
  162.61        2952.25           2176         180.00       782.06
  162.64        2952.50           2179         175.00       760.26
  162.68        2952.75           2183         173.00       751.54
  162.71        2953.00           2186         183.00       795.14
  162.74        2953.25           2190         179.00       777.70
  162.77        2953.50           2193         174.00       755.90
  162.80        2953.75           2197         184.00       799.50
  162.84        2954.00           2200         180.00       782.06
  162.87        2954.25           2204         157.00       681.79
  162.90        2954.50           2208         179.00       777.70
  162.93        2954.75           2211         174.00       755.90
  162.96        2955.00           2215         194.00       843.09
  162.99        2955.25           2218         184.00       799.50
  163.02        2955.50           2222         194.00       843.09
  163.05        2955.75           2225         187.00       812.58
  163.08        2956.00           2229         186.00       808.22
  163.11        2956.25           2232         184.00       799.50
  163.14        2956.50           2236         195.00       847.45
  163.17        2956.75           2239         194.00       843.09
  163.20        2957.00           2243         190.00       825.66
  163.23        2957.25           2246         195.00       847.45
  163.26        2957.50           2250         181.00       786.42
  163.29        2957.75           2254         199.00       864.89
  163.32        2958.00           2257         200.00       869.25
  163.36        2958.25           2261         193.00       838.73
  163.39        2958.50           2264         211.00       917.20
  163.42        2958.75           2268         232.00      1008.75
  163.45        2959.00           2271         231.00      1004.39
  163.48        2959.25           2275         209.00       908.48
  163.51        2959.50           2278         236.00      1026.19
  163.54        2959.75           2282         262.00      1139.54
  163.57        2960.00           2285         228.00       991.32
  163.60        2960.25           2289         240.00      1043.63
  163.63        2960.50           2293         275.00      1196.21
  163.66        2960.75           2296         252.00      1095.94
  163.69        2961.00           2300         299.00      1300.84
  163.72        2961.25           2303         556.00      2421.30
  163.75        2961.50           2307        2256.00      9835.02
  163.78        2961.75           2310        4754.00     20735.63
  163.81        2962.00           2314        8420.00     36747.72
  163.84        2962.25           2317       11267.00     49194.69
  163.88        2962.50           2321       15133.00     66113.58
  163.91        2962.75           2324       18056.00     78918.54
  163.94        2963.00           2328       22119.00     96736.13
  163.97        2963.25           2331       25419.00    111223.70
  164.00        2963.50           2335       29475.00    129049.70
  164.03        2963.75           2339       33538.00    146928.30
  164.06        2964.00           2342       36781.00    161214.30
  164.09        2964.25           2346       40615.00    178121.70
  164.12        2964.50           2349       43597.00    191285.40
  164.15        2964.75           2353       47719.00    209500.90
  164.18        2965.00           2356       51065.00    224304.00
  164.21        2965.25           2360       54852.00    241076.00
  164.24        2965.50           2363       57524.00    252921.50
  164.27        2965.75           2367       61484.00    270494.60
  164.30        2966.00           2370       64062.00    281946.20
  164.33        2966.25           2374       67227.00    296017.50
  164.36        2966.50           2378       68651.00    302353.00
  164.40        2966.75           2381       69026.00    304021.80
  164.43        2967.00           2385       68887.00    303403.20
  164.46        2967.25           2388       69221.00    304889.70
  164.49        2967.50           2392       69148.00    304564.80
  164.52        2967.75           2395       68061.00    299727.70
  164.55        2968.00           2399       66157.00    291258.90
  164.58        2968.25           2402       63734.00    280488.70
  164.61        2968.50           2406       60177.00    264692.30
  164.64        2968.75           2409       57137.00    251205.30
  164.67        2969.00           2413       53008.00    232906.80
  164.70        2969.25           2417       49695.00    218241.10
  164.73        2969.50           2420       46719.00    205079.80
  164.76        2969.75           2424       43093.00    189059.70
  164.79        2970.00           2427       39751.00    174309.90
  164.82        2970.25           2431       35199.00    154243.60
  164.85        2970.50           2434       32053.00    140391.30
  164.88        2970.75           2438       28000.00    122564.60
  164.92        2971.00           2441       25097.00    109809.40
  164.95        2971.25           2445       21357.00     93392.87
  164.98        2971.50           2449       17024.00     74396.32
  165.01        2971.75           2452       14193.00     61998.03
  165.04        2972.00           2456       10676.00     46609.99
  165.07        2972.25           2459        8105.00     35371.20
  165.10        2972.50           2463        4790.00     20892.78
  165.13        2972.75           2466        2253.00      9821.94
  165.16        2973.00           2470         558.00      2430.02
  165.19        2973.25           2473         329.00      1431.63
  165.22        2973.50           2477         278.00      1209.29
  165.25        2973.75           2481         276.00      1200.57
  165.28        2974.00           2484         271.00      1178.77
  165.31        2974.25           2488         257.00      1117.74
  165.34        2974.50           2491         238.00      1034.91
  165.37        2974.75           2495         227.00       986.96
  165.40        2975.00           2498         246.00      1069.79
  165.44        2975.25           2502         226.00       982.60
  165.47        2975.50           2505         218.00       947.72
  165.50        2975.75           2509         226.00       982.60
  165.53        2976.00           2512         208.00       904.13
  165.56        2976.25           2516         201.00       873.61
  165.59        2976.50           2520         194.00       843.09
  165.62        2976.75           2523         206.00       895.41
  165.65        2977.00           2527         200.00       869.25
  165.68        2977.25           2530         195.00       847.45
  165.71        2977.50           2534         186.00       808.22
  165.74        2977.75           2537         189.00       821.30
  165.77        2978.00           2541         182.00       790.78
  165.80        2978.25           2544         181.00       786.42
  165.83        2978.50           2548         194.00       843.09
  165.86        2978.75           2552         167.00       725.39
  165.89        2979.00           2555         167.00       725.39
  165.92        2979.25           2559         176.00       764.62
  165.95        2979.50           2562         173.00       751.54
  165.99        2979.75           2566         170.00       738.47
  166.02        2980.00           2569         162.00       703.59
  166.05        2980.25           2573         171.00       742.83
  166.08        2980.50           2577         188.00       816.94
  166.11        2980.75           2580         165.00       716.67
  166.14        2981.00           2584         163.00       707.95
  166.17        2981.25           2587         164.00       712.31
  166.20        2981.50           2591         165.00       716.67
  166.23        2981.75           2594         169.00       734.11
  166.26        2982.00           2598         155.00       673.08
  166.29        2982.25           2601         162.00       703.59
  166.32        2982.50           2605         164.00       712.31
  166.35        2982.75           2609         176.00       764.62
  166.38        2983.00           2612         147.00       638.20
  166.41        2983.25           2616         159.00       690.51
  166.44        2983.50           2619         165.00       716.67
  166.47        2983.75           2623         154.00       668.72
  166.51        2984.00           2626         158.00       686.15
HS scan finished at 02:46:44
end
************************************************************
  HS Scan of (1) Internal mercury lamp
************************************************************
Integration time is 0.2294 seconds per sample
dh270318Reading 51.44 .94 3.03pr1000
************************************************************
Dead Time -------------------------  3.4E-08 
Number of Cycles Used -------------  4 
Starting Wavelength (Angstroms) ---  2950 
Final Wavelength (Angstoms) -------  2984 
Wavelength Increment (Angstroms) --  .25 
Filter Wheel #1 Position ---------- (1) Ground quartz diffuser (ND=2.32)
Filter Wheel #2 Position ---------- (1) Neutral Density 0.494



************************************************************
HS scan start time = 19:37:28
Dark Count =  1.1 


Time (GMT)  Wavelength (Ang)  Step Number  Raw Counts  Counts/Second

 1178.36        2950.00           2144         125.00       540.11
 1178.56        2950.25           2147         150.00       649.10
 1178.59        2950.50           2151         141.00       609.86
 1178.62        2950.75           2155         140.00       605.51
 1178.65        2951.00           2158         136.00       588.07
 1178.68        2951.25           2162         132.00       570.63
 1178.71        2951.50           2165         141.00       609.86
 1178.74        2951.75           2169         149.00       644.74
 1178.77        2952.00           2172         140.00       605.51
 1178.80        2952.25           2176         126.00       544.47
 1178.83        2952.50           2179         157.00       679.61
 1178.86        2952.75           2183         155.00       670.90
 1178.89        2953.00           2186         153.00       662.18
 1178.92        2953.25           2190         157.00       679.61
 1178.95        2953.50           2193         129.00       557.55
 1178.98        2953.75           2197         126.00       544.47
 1179.01        2954.00           2200         137.00       592.43
 1179.04        2954.25           2204         139.00       601.15
 1179.08        2954.50           2208         126.00       544.47
 1179.11        2954.75           2211         137.00       592.43
 1179.14        2955.00           2215         152.00       657.82
 1179.17        2955.25           2218         132.00       570.63
 1179.20        2955.50           2222         139.00       601.15
 1179.23        2955.75           2225         167.00       723.21
 1179.26        2956.00           2229         143.00       618.58
 1179.29        2956.25           2232         141.00       609.86
 1179.32        2956.50           2236         137.00       592.43
 1179.35        2956.75           2239         157.00       679.61
 1179.38        2957.00           2243         145.00       627.30
 1179.41        2957.25           2246         152.00       657.82
 1179.44        2957.50           2250         159.00       688.33
 1179.47        2957.75           2254         159.00       688.33
 1179.50        2958.00           2257         148.00       640.38
 1179.53        2958.25           2261         170.00       736.29
 1179.57        2958.50           2264         163.00       705.77
 1179.60        2958.75           2268         164.00       710.13
 1179.63        2959.00           2271         162.00       701.41
 1179.66        2959.25           2275         163.00       705.77
 1179.69        2959.50           2278         155.00       670.90
 1179.72        2959.75           2282         172.00       745.01
 1179.75        2960.00           2285         168.00       727.57
 1179.78        2960.25           2289         172.00       745.01
 1179.81        2960.50           2293         190.00       823.48
 1179.84        2960.75           2296         196.00       849.63
 1179.87        2961.00           2300         271.00      1176.59
 1179.90        2961.25           2303         580.00      2523.76
 1179.93        2961.50           2307        1980.00      8628.95
 1179.96        2961.75           2310        3793.00     16538.94
 1179.99        2962.00           2314        6512.00     28409.73
 1180.02        2962.25           2317        8911.00     38891.42
 1180.05        2962.50           2321       12422.00     54245.12
 1180.09        2962.75           2324       14948.00     65301.32
 1180.12        2963.00           2328       17961.00     78500.00
 1180.15        2963.25           2331       20168.00     88175.46
 1180.18        2963.50           2335       23490.00    102751.10
 1180.21        2963.75           2339       26711.00    116897.40
 1180.24        2964.00           2342       29236.00    127996.50
 1180.27        2964.25           2346       33026.00    144672.00
 1180.30        2964.50           2349       35272.00    154562.90
 1180.33        2964.75           2353       38421.00    168441.90
 1180.36        2965.00           2356       40791.00    178896.10
 1180.39        2965.25           2360       43564.00    191137.40
 1180.42        2965.50           2363       45731.00    200710.70
 1180.45        2965.75           2367       48939.00    214894.40
 1180.48        2966.00           2370       51298.00    225333.10
 1180.51        2966.25           2374       53759.00    236231.10
 1180.54        2966.50           2378       54932.00    241428.30
 1180.57        2966.75           2381       55318.00    243139.00
 1180.60        2967.00           2385       55127.00    242292.50
 1180.64        2967.25           2388       55384.00    243431.50
 1180.67        2967.50           2392       55441.00    243684.20
 1180.70        2967.75           2395       54937.00    241450.50
 1180.73        2968.00           2399       53466.00    234933.20
 1180.76        2968.25           2402       51472.00    226103.40
 1180.79        2968.50           2406       48643.00    213585.10
 1180.82        2968.75           2409       46391.00    203627.70
 1180.85        2969.00           2413       43140.00    189265.00
 1180.88        2969.25           2417       39882.00    174885.50
 1180.91        2969.50           2420       37657.00    165073.40
 1180.94        2969.75           2424       34446.00    150924.60
 1180.97        2970.00           2427       32024.00    140261.50
 1181.00        2970.25           2431       28613.00    125257.20
 1181.03        2970.50           2434       26201.00    114656.70
 1181.06        2970.75           2438       23189.00    101429.80
 1181.09        2971.00           2441       20504.00     89649.04
 1181.12        2971.25           2445       16689.00     72926.46
 1181.16        2971.50           2449       13655.00     59640.88
 1181.19        2971.75           2452       11249.00     49113.78
 1181.22        2972.00           2456        8070.00     35216.08
 1181.25        2972.25           2459        5947.00     25942.23
 1181.28        2972.50           2463        3147.00     13720.00
 1181.31        2972.75           2466        1408.00      6134.24
 1181.34        2973.00           2470         422.00      1834.90
 1181.37        2973.25           2473         285.00      1237.63
 1181.40        2973.50           2477         208.00       901.95
 1181.43        2973.75           2481         184.00       797.32
 1181.46        2974.00           2484         199.00       862.71
 1181.49        2974.25           2488         178.00       771.16
 1181.52        2974.50           2491         187.00       810.40
 1181.55        2974.75           2495         180.00       779.88
 1181.58        2975.00           2498         181.00       784.24
 1181.61        2975.25           2502         171.00       740.65
 1181.64        2975.50           2505         162.00       701.41
 1181.68        2975.75           2509         171.00       740.65
 1181.71        2976.00           2512         159.00       688.33
 1181.74        2976.25           2516         168.00       727.57
 1181.77        2976.50           2520         171.00       740.65
 1181.80        2976.75           2523         159.00       688.33
 1181.83        2977.00           2527         158.00       683.97
 1181.86        2977.25           2530         149.00       644.74
 1181.89        2977.50           2534         173.00       749.37
 1181.92        2977.75           2537         144.00       622.94
 1181.95        2978.00           2541         145.00       627.30
 1181.98        2978.25           2544         149.00       644.74
 1182.01        2978.50           2548         147.00       636.02
 1182.04        2978.75           2552         138.00       596.79
 1182.07        2979.00           2555         133.00       574.99
 1182.10        2979.25           2559         158.00       683.97
 1182.13        2979.50           2562         139.00       601.15
 1182.16        2979.75           2566         133.00       574.99
 1182.20        2980.00           2569         138.00       596.79
 1182.23        2980.25           2573         127.00       548.83
 1182.26        2980.50           2577         132.00       570.63
 1182.29        2980.75           2580         141.00       609.86
 1182.32        2981.00           2584         142.00       614.22
 1182.35        2981.25           2587         125.00       540.11
 1182.38        2981.50           2591         136.00       588.07
 1182.41        2981.75           2594         146.00       631.66
 1182.44        2982.00           2598         118.00       509.60
 1182.47        2982.25           2601         145.00       627.30
 1182.50        2982.50           2605         138.00       596.79
 1182.53        2982.75           2609         176.00       762.44
 1182.56        2983.00           2612         123.00       531.40
 1182.59        2983.25           2616         136.00       588.07
 1182.62        2983.50           2619         159.00       688.33
 1182.65        2983.75           2623         123.00       531.40
 1182.68        2984.00           2626         135.00       583.71
HS scan finished at 19:42:55
end
