************************************************************
  HS Scan of (1) Internal mercury lamp
************************************************************
Integration time is 0.2294 seconds per sample
dh220318Reading 51.44 .94 2.8pr1000
************************************************************
Dead Time -------------------------  3.4E-08 
Number of Cycles Used -------------  4 
Starting Wavelength (Angstroms) ---  2950 
Final Wavelength (Angstoms) -------  2984 
Wavelength Increment (Angstroms) --  .25 
Filter Wheel #1 Position ---------- (1) Ground quartz diffuser (ND=2.32)
Filter Wheel #2 Position ---------- (1) Neutral Density 0.494



************************************************************
HS scan start time = 03:01:09
Dark Count =  .8 


Time (GMT)  Wavelength (Ang)  Step Number  Raw Counts  Counts/Second

  182.05        2950.00           2144         143.00       619.89
  182.25        2950.25           2147         146.00       632.97
  182.28        2950.50           2151         143.00       619.89
  182.31        2950.75           2155         161.00       698.36
  182.34        2951.00           2158         137.00       593.73
  182.37        2951.25           2162         161.00       698.36
  182.40        2951.50           2165         146.00       632.97
  182.43        2951.75           2169         153.00       663.48
  182.46        2952.00           2172         139.00       602.45
  182.49        2952.25           2176         148.00       641.69
  182.52        2952.50           2179         159.00       689.64
  182.55        2952.75           2183         150.00       650.41
  182.58        2953.00           2186         156.00       676.56
  182.61        2953.25           2190         175.00       759.39
  182.64        2953.50           2193         163.00       707.08
  182.68        2953.75           2197         172.00       746.31
  182.71        2954.00           2200         147.00       637.33
  182.74        2954.25           2204         149.00       646.05
  182.77        2954.50           2208         157.00       680.92
  182.80        2954.75           2211         151.00       654.77
  182.83        2955.00           2215         149.00       646.05
  182.86        2955.25           2218         156.00       676.56
  182.89        2955.50           2222         163.00       707.08
  182.92        2955.75           2225         158.00       685.28
  182.95        2956.00           2229         162.00       702.72
  182.98        2956.25           2232         161.00       698.36
  183.01        2956.50           2236         156.00       676.56
  183.04        2956.75           2239         171.00       741.95
  183.07        2957.00           2243         165.00       715.80
  183.10        2957.25           2246         167.00       724.52
  183.13        2957.50           2250         170.00       737.59
  183.16        2957.75           2254         166.00       720.16
  183.20        2958.00           2257         163.00       707.08
  183.23        2958.25           2261         165.00       715.80
  183.26        2958.50           2264         168.00       728.88
  183.29        2958.75           2268         172.00       746.31
  183.32        2959.00           2271         197.00       855.30
  183.35        2959.25           2275         180.00       781.19
  183.38        2959.50           2278         183.00       794.27
  183.41        2959.75           2282         179.00       776.83
  183.44        2960.00           2285         212.00       920.69
  183.47        2960.25           2289         212.00       920.69
  183.50        2960.50           2293         218.00       946.85
  183.53        2960.75           2296         209.00       907.61
  183.56        2961.00           2300         297.00      1291.25
  183.59        2961.25           2303         630.00      2743.06
  183.62        2961.50           2307        2147.00      9358.69
  183.65        2961.75           2310        3986.00     17382.55
  183.68        2962.00           2314        7035.00     30695.49
  183.72        2962.25           2317        9518.00     41546.01
  183.75        2962.50           2321       12887.00     56281.09
  183.78        2962.75           2324       15613.00     68214.70
  183.81        2963.00           2328       18826.00     82292.71
  183.84        2963.25           2331       21286.00     93080.51
  183.87        2963.50           2335       24741.00    108245.10
  183.90        2963.75           2339       28549.00    124977.20
  183.93        2964.00           2342       31177.00    136535.60
  183.96        2964.25           2346       34568.00    151463.30
  183.99        2964.50           2349       37182.00    162980.80
  184.02        2964.75           2353       40488.00    177560.40
  184.05        2965.00           2356       43028.00    188771.80
  184.08        2965.25           2360       46030.00    202033.40
  184.11        2965.50           2363       48430.00    212644.30
  184.14        2965.75           2367       51765.00    227401.80
  184.17        2966.00           2370       53939.00    237029.90
  184.20        2966.25           2374       56931.00    250291.00
  184.24        2966.50           2378       58168.00    255777.10
  184.27        2966.75           2381       58205.00    255941.20
  184.30        2967.00           2385       58504.00    257267.60
  184.33        2967.25           2388       58284.00    256291.60
  184.36        2967.50           2392       58408.00    256841.70
  184.39        2967.75           2395       57846.00    254348.80
  184.42        2968.00           2399       56070.00    246473.60
  184.45        2968.25           2402       53800.00    236414.10
  184.48        2968.50           2406       50704.00    222705.20
  184.51        2968.75           2409       48206.00    211653.70
  184.54        2969.00           2413       44891.00    197000.40
  184.57        2969.25           2417       41636.00    182626.50
  184.60        2969.50           2420       39223.00    171980.00
  184.63        2969.75           2424       35950.00    157551.40
  184.66        2970.00           2427       33094.00    144972.60
  184.69        2970.25           2431       29440.00    128894.90
  184.72        2970.50           2434       26960.00    117992.90
  184.76        2970.75           2438       23620.00    103323.10
  184.79        2971.00           2441       20762.00     90781.96
  184.82        2971.25           2445       17200.00     75166.58
  184.85        2971.50           2449       13870.00     60583.26
  184.88        2971.75           2452       11426.00     49889.26
  184.91        2972.00           2456        8329.00     36349.17
  184.94        2972.25           2459        5904.00     25755.76
  184.97        2972.50           2463        3006.00     13106.10
  185.00        2972.75           2466        1373.00      5982.91
  185.03        2973.00           2470         408.00      1775.17
  185.06        2973.25           2473         291.00      1265.09
  185.09        2973.50           2477         235.00      1020.96
  185.12        2973.75           2481         223.00       968.65
  185.15        2974.00           2484         227.00       986.08
  185.18        2974.25           2488         211.00       916.33
  185.21        2974.50           2491         211.00       916.33
  185.24        2974.75           2495         200.00       868.38
  185.28        2975.00           2498         195.00       846.58
  185.31        2975.25           2502         184.00       798.63
  185.34        2975.50           2505         185.00       802.99
  185.37        2975.75           2509         194.00       842.22
  185.40        2976.00           2512         186.00       807.35
  185.43        2976.25           2516         175.00       759.39
  185.46        2976.50           2520         181.00       785.55
  185.49        2976.75           2523         174.00       755.03
  185.52        2977.00           2527         164.00       711.44
  185.55        2977.25           2530         168.00       728.88
  185.58        2977.50           2534         160.00       694.00
  185.61        2977.75           2537         174.00       755.03
  185.64        2978.00           2541         159.00       689.64
  185.67        2978.25           2544         160.00       694.00
  185.70        2978.50           2548         145.00       628.61
  185.73        2978.75           2552         153.00       663.48
  185.76        2979.00           2555         156.00       676.56
  185.80        2979.25           2559         166.00       720.16
  185.83        2979.50           2562         143.00       619.89
  185.86        2979.75           2566         152.00       659.13
  185.89        2980.00           2569         162.00       702.72
  185.92        2980.25           2573         148.00       641.69
  185.95        2980.50           2577         148.00       641.69
  185.98        2980.75           2580         149.00       646.05
  186.01        2981.00           2584         142.00       615.53
  186.04        2981.25           2587         146.00       632.97
  186.07        2981.50           2591         154.00       667.84
  186.10        2981.75           2594         144.00       624.25
  186.13        2982.00           2598         170.00       737.59
  186.16        2982.25           2601         150.00       650.41
  186.19        2982.50           2605         141.00       611.17
  186.22        2982.75           2609         145.00       628.61
  186.25        2983.00           2612         160.00       694.00
  186.28        2983.25           2616         157.00       680.92
  186.32        2983.50           2619         136.00       589.38
  186.35        2983.75           2623         153.00       663.48
  186.38        2984.00           2626         160.00       694.00
HS scan finished at 03:06:36
end
************************************************************
  HS Scan of (1) Internal mercury lamp
************************************************************
Integration time is 0.2294 seconds per sample
dh220318Reading 51.44 .94 2.98pr1000
************************************************************
Dead Time -------------------------  3.4E-08 
Number of Cycles Used -------------  4 
Starting Wavelength (Angstroms) ---  2950 
Final Wavelength (Angstoms) -------  2984 
Wavelength Increment (Angstroms) --  .25 
Filter Wheel #1 Position ---------- (1) Ground quartz diffuser (ND=2.32)
Filter Wheel #2 Position ---------- (1) Neutral Density 0.494



************************************************************
HS scan start time = 19:07:33
Dark Count =  1 


Time (GMT)  Wavelength (Ang)  Step Number  Raw Counts  Counts/Second

 1148.44        2950.00           2144         109.00       470.80
 1148.64        2950.25           2147         100.00       431.57
 1148.67        2950.50           2151         105.00       453.36
 1148.70        2950.75           2155         107.00       462.08
 1148.73        2951.00           2158         102.00       440.29
 1148.76        2951.25           2162         103.00       444.64
 1148.79        2951.50           2165         117.00       505.68
 1148.82        2951.75           2169          90.00       387.97
 1148.85        2952.00           2172          96.00       414.13
 1148.88        2952.25           2176         103.00       444.64
 1148.91        2952.50           2179         101.00       435.93
 1148.94        2952.75           2183         115.00       496.96
 1148.97        2953.00           2186         119.00       514.39
 1149.00        2953.25           2190          95.00       409.77
 1149.03        2953.50           2193         115.00       496.96
 1149.06        2953.75           2197         100.00       431.57
 1149.09        2954.00           2200         106.00       457.72
 1149.13        2954.25           2204         121.00       523.11
 1149.16        2954.50           2208         120.00       518.75
 1149.19        2954.75           2211         111.00       479.52
 1149.22        2955.00           2215         106.00       457.72
 1149.25        2955.25           2218         130.00       562.35
 1149.28        2955.50           2222         113.00       488.24
 1149.31        2955.75           2225         111.00       479.52
 1149.34        2956.00           2229         159.00       688.77
 1149.37        2956.25           2232         138.00       597.22
 1149.40        2956.50           2236         113.00       488.24
 1149.43        2956.75           2239         153.00       662.61
 1149.46        2957.00           2243         114.00       492.60
 1149.49        2957.25           2246         132.00       571.07
 1149.52        2957.50           2250         154.00       666.97
 1149.55        2957.75           2254         152.00       658.25
 1149.58        2958.00           2257         127.00       549.27
 1149.61        2958.25           2261         129.00       557.99
 1149.65        2958.50           2264         146.00       632.10
 1149.68        2958.75           2268         150.00       649.53
 1149.71        2959.00           2271         134.00       579.78
 1149.74        2959.25           2275         145.00       627.74
 1149.77        2959.50           2278         143.00       619.02
 1149.80        2959.75           2282         138.00       597.22
 1149.83        2960.00           2285         154.00       666.97
 1149.86        2960.25           2289         159.00       688.77
 1149.89        2960.50           2293         160.00       693.13
 1149.92        2960.75           2296         168.00       728.00
 1149.95        2961.00           2300         186.00       806.47
 1149.98        2961.25           2303         330.00      1434.25
 1150.01        2961.50           2307        1209.00      5266.85
 1150.05        2961.75           2310        2662.00     11604.40
 1150.08        2962.00           2314        4856.00     21179.15
 1150.11        2962.25           2317        6494.00     28331.55
 1150.14        2962.50           2321        8871.00     38717.02
 1150.17        2962.75           2324       10911.00     47635.94
 1150.20        2963.00           2328       13716.00     59908.31
 1150.23        2963.25           2331       15754.00     68831.35
 1150.26        2963.50           2335       18212.00     79600.50
 1150.29        2963.75           2339       20923.00     91487.28
 1150.32        2964.00           2342       22750.00     99503.47
 1150.35        2964.25           2346       25455.00    111380.00
 1150.38        2964.50           2349       27306.00    119512.60
 1150.41        2964.75           2353       29761.00    130305.80
 1150.44        2965.00           2356       31490.00    137911.90
 1150.48        2965.25           2360       33751.00    147864.40
 1150.51        2965.50           2363       35659.00    156268.40
 1150.54        2965.75           2367       38059.00    166846.20
 1150.57        2966.00           2370       39944.00    175159.50
 1150.60        2966.25           2374       42405.00    186020.20
 1150.63        2966.50           2378       43767.00    192034.40
 1150.66        2966.75           2381       44156.00    193752.60
 1150.69        2967.00           2385       44109.00    193544.90
 1150.72        2967.25           2388       44211.00    193995.50
 1150.75        2967.50           2392       44257.00    194198.70
 1150.78        2967.75           2395       44149.00    193721.60
 1150.81        2968.00           2399       43201.00    189534.80
 1150.84        2968.25           2402       41451.00    181809.20
 1150.87        2968.50           2406       39683.00    174008.10
 1150.90        2968.75           2409       37361.00    163769.00
 1150.93        2969.00           2413       35079.00    153713.20
 1150.97        2969.25           2417       32918.00    144196.90
 1151.00        2969.50           2420       31013.00    135813.10
 1151.03        2969.75           2424       28162.00    123275.00
 1151.06        2970.00           2427       26172.00    114529.70
 1151.09        2970.25           2431       23377.00    102255.50
 1151.12        2970.50           2434       21456.00     93825.43
 1151.15        2970.75           2438       19158.00     83747.28
 1151.18        2971.00           2441       17306.00     75630.15
 1151.21        2971.25           2445       14318.00     62543.49
 1151.24        2971.50           2449       11421.00     49866.52
 1151.27        2971.75           2452        9225.00     40264.33
 1151.30        2972.00           2456        6682.00     29152.69
 1151.33        2972.25           2459        4944.00     21563.32
 1151.36        2972.50           2463        2694.00     11744.01
 1151.39        2972.75           2466        1326.00      5777.07
 1151.42        2973.00           2470         422.00      1835.34
 1151.45        2973.25           2473         228.00       989.57
 1151.48        2973.50           2477         168.00       728.00
 1151.52        2973.75           2481         165.00       714.93
 1151.55        2974.00           2484         157.00       680.05
 1151.58        2974.25           2488         141.00       610.30
 1151.61        2974.50           2491         144.00       623.38
 1151.64        2974.75           2495         153.00       662.61
 1151.67        2975.00           2498         160.00       693.13
 1151.70        2975.25           2502         148.00       640.82
 1151.73        2975.50           2505         153.00       662.61
 1151.76        2975.75           2509         185.00       802.11
 1151.79        2976.00           2512         139.00       601.58
 1151.82        2976.25           2516         161.00       697.49
 1151.85        2976.50           2520         122.00       527.47
 1151.88        2976.75           2523         131.00       566.71
 1151.91        2977.00           2527         141.00       610.30
 1151.94        2977.25           2530         165.00       714.93
 1151.97        2977.50           2534         118.00       510.03
 1152.00        2977.75           2537         125.00       540.55
 1152.04        2978.00           2541         148.00       640.82
 1152.07        2978.25           2544         143.00       619.02
 1152.10        2978.50           2548         119.00       514.39
 1152.13        2978.75           2552         122.00       527.47
 1152.16        2979.00           2555         129.00       557.99
 1152.19        2979.25           2559         115.00       496.96
 1152.22        2979.50           2562         144.00       623.38
 1152.25        2979.75           2566         111.00       479.52
 1152.28        2980.00           2569         122.00       527.47
 1152.32        2980.25           2573         114.00       492.60
 1152.35        2980.50           2577         106.00       457.72
 1152.38        2980.75           2580         123.00       531.83
 1152.41        2981.00           2584         103.00       444.64
 1152.44        2981.25           2587         105.00       453.36
 1152.47        2981.50           2591         134.00       579.78
 1152.50        2981.75           2594         100.00       431.57
 1152.53        2982.00           2598         117.00       505.68
 1152.56        2982.25           2601         115.00       496.96
 1152.59        2982.50           2605         100.00       431.57
 1152.62        2982.75           2609         119.00       514.39
 1152.65        2983.00           2612          94.00       405.41
 1152.68        2983.25           2616          93.00       401.05
 1152.71        2983.50           2619          89.00       383.61
 1152.75        2983.75           2623         109.00       470.80
 1152.78        2984.00           2626          96.00       414.13
HS scan finished at 19:13:00
end
