************************************************************
  HS Scan of 
************************************************************
Integration time is 0.2294 seconds per sample
dh220317Reading 51.44 .94 2.64pr1000
************************************************************
Dead Time -------------------------  3.4E-08 
Number of Cycles Used -------------  4 
Starting Wavelength (Angstroms) ---  2950 
Final Wavelength (Angstoms) -------  2984 
Wavelength Increment (Angstroms) --  .25 
Filter Wheel #1 Position ---------- (1) Ground quartz diffuser (ND=2.32)
Filter Wheel #2 Position ---------- (1) Neutral Density 0.494



************************************************************
HS scan start time = 03:00:11
Dark Count =  .4 


Time (GMT)  Wavelength (Ang)  Step Number  Raw Counts  Counts/Second

  181.08        2950.00           2144        1039.00      4528.16
  181.27        2950.25           2147        1044.00      4549.96
  181.30        2950.50           2151        1065.00      4641.53
  181.33        2950.75           2155        1087.00      4737.47
  181.37        2951.00           2158        1066.00      4645.90
  181.40        2951.25           2162        1086.00      4733.11
  181.43        2951.50           2165        1073.00      4676.42
  181.46        2951.75           2169        1092.00      4759.27
  181.49        2952.00           2172        1078.00      4698.22
  181.52        2952.25           2176        1073.00      4676.42
  181.55        2952.50           2179        1059.00      4615.37
  181.58        2952.75           2183        1096.00      4776.71
  181.61        2953.00           2186        1089.00      4746.19
  181.64        2953.25           2190        1089.00      4746.19
  181.67        2953.50           2193        1073.00      4676.42
  181.70        2953.75           2197        1108.00      4829.04
  181.73        2954.00           2200        1071.00      4667.70
  181.76        2954.25           2204        1141.00      4972.94
  181.79        2954.50           2208        1107.00      4824.68
  181.82        2954.75           2211        1124.00      4898.81
  181.85        2955.00           2215        1139.00      4964.22
  181.89        2955.25           2218        1163.00      5068.88
  181.92        2955.50           2222        1179.00      5138.65
  181.95        2955.75           2225        1117.00      4868.29
  181.98        2956.00           2229        1167.00      5086.32
  182.01        2956.25           2232        1151.00      5016.55
  182.04        2956.50           2236        1190.00      5186.62
  182.07        2956.75           2239        1173.00      5112.48
  182.10        2957.00           2243        1174.00      5116.84
  182.13        2957.25           2246        1221.00      5321.80
  182.16        2957.50           2250        1216.00      5300.00
  182.19        2957.75           2254        1209.00      5269.47
  182.22        2958.00           2257        1190.00      5186.62
  182.25        2958.25           2261        1225.00      5339.24
  182.28        2958.50           2264        1238.00      5395.93
  182.31        2958.75           2268        1252.00      5456.99
  182.34        2959.00           2271        1237.00      5391.57
  182.37        2959.25           2275        1331.00      5801.49
  182.41        2959.50           2278        1308.00      5701.19
  182.44        2959.75           2282        1325.00      5775.33
  182.47        2960.00           2285        1327.00      5784.05
  182.50        2960.25           2289        1370.00      5971.57
  182.53        2960.50           2293        1390.00      6058.79
  182.56        2960.75           2296        1395.00      6080.59
  182.59        2961.00           2300        1474.00      6425.12
  182.62        2961.25           2303        1555.00      6778.37
  182.65        2961.50           2307        2944.00     12837.34
  182.68        2961.75           2310        7780.00     33951.99
  182.71        2962.00           2314       22006.00     96241.18
  182.74        2962.25           2317       34367.00    150579.80
  182.77        2962.50           2321       50867.00    223428.50
  182.80        2962.75           2324       63501.00    279454.40
  182.83        2963.00           2328       80175.00    353725.60
  182.86        2963.25           2331       93503.00    413365.30
  182.89        2963.50           2335      111617.00    494813.80
  182.93        2963.75           2339      129741.00    576765.20
  182.96        2964.00           2342      142961.00    636834.30
  182.99        2964.25           2346      160103.00    715095.60
  183.02        2964.50           2349      171963.00    769489.80
  183.05        2964.75           2353      188541.00    845865.90
  183.08        2965.00           2356      200789.00    902553.10
  183.11        2965.25           2360      215300.00    970002.60
  183.14        2965.50           2363      226937.00   1024321.00
  183.17        2965.75           2367      243771.00   1103262.00
  183.20        2966.00           2370      255974.00   1160758.00
  183.23        2966.25           2374      271705.00   1235216.00
  183.26        2966.50           2378      281502.00   1281782.00
  183.29        2966.75           2381      284641.00   1296734.00
  183.32        2967.00           2385      285842.00   1302459.00
  183.35        2967.25           2388      285832.00   1302412.00
  183.38        2967.50           2392      285622.00   1301410.00
  183.41        2967.75           2395      284923.00   1298078.00
  183.45        2968.00           2399      279836.00   1273853.00
  183.48        2968.25           2402      272626.00   1239587.00
  183.51        2968.50           2406      258996.00   1175032.00
  183.54        2968.75           2409      247279.00   1119767.00
  183.57        2969.00           2413      231136.00   1043972.00
  183.60        2969.25           2417      213955.00    963737.50
  183.63        2969.50           2420      201521.00    905947.90
  183.66        2969.75           2424      184847.00    828812.50
  183.69        2970.00           2427      172266.00    770882.10
  183.72        2970.25           2431      156499.00    698606.60
  183.75        2970.50           2434      144336.00    643096.30
  183.78        2970.75           2438      128007.00    568904.60
  183.81        2971.00           2441      115146.00    510734.80
  183.84        2971.25           2445       97654.00    431989.90
  183.87        2971.50           2449       79135.00    349082.10
  183.90        2971.75           2452       66216.00    291522.10
  183.93        2972.00           2456       51717.00    227191.10
  183.97        2972.25           2459       41197.00    180690.80
  184.00        2972.50           2463       25614.00    112081.10
  184.03        2972.75           2466       14123.00     61692.48
  184.06        2973.00           2470        4397.00     19178.15
  184.09        2973.25           2473        2140.00      9329.90
  184.12        2973.50           2477        1549.00      6752.20
  184.15        2973.75           2481        1454.00      6337.90
  184.18        2974.00           2484        1428.00      6224.51
  184.21        2974.25           2488        1404.00      6119.84
  184.24        2974.50           2491        1359.00      5923.60
  184.27        2974.75           2495        1346.00      5866.91
  184.30        2975.00           2498        1373.00      5984.65
  184.33        2975.25           2502        1349.00      5879.99
  184.36        2975.50           2505        1290.00      5622.70
  184.39        2975.75           2509        1263.00      5504.95
  184.42        2976.00           2512        1306.00      5692.47
  184.45        2976.25           2516        1227.00      5347.96
  184.48        2976.50           2520        1219.00      5313.08
  184.52        2976.75           2523        1226.00      5343.60
  184.55        2977.00           2527        1180.00      5143.01
  184.58        2977.25           2530        1195.00      5208.42
  184.61        2977.50           2534        1211.00      5278.19
  184.64        2977.75           2537        1180.00      5143.01
  184.67        2978.00           2541        1136.00      4951.14
  184.70        2978.25           2544        1142.00      4977.30
  184.73        2978.50           2548        1131.00      4929.34
  184.76        2978.75           2552        1134.00      4942.42
  184.79        2979.00           2555        1114.00      4855.20
  184.82        2979.25           2559        1097.00      4781.07
  184.85        2979.50           2562        1111.00      4842.12
  184.88        2979.75           2566        1115.00      4859.57
  184.91        2980.00           2569        1091.00      4754.91
  184.94        2980.25           2573        1095.00      4772.35
  184.97        2980.50           2577        1074.00      4680.78
  185.00        2980.75           2580        1077.00      4693.86
  185.04        2981.00           2584        1076.00      4689.50
  185.07        2981.25           2587        1047.00      4563.04
  185.10        2981.50           2591        1048.00      4567.41
  185.13        2981.75           2594        1043.00      4545.60
  185.16        2982.00           2598        1038.00      4523.80
  185.19        2982.25           2601        1037.00      4519.44
  185.22        2982.50           2605        1037.00      4519.44
  185.25        2982.75           2609        1028.00      4480.19
  185.28        2983.00           2612        1056.00      4602.29
  185.31        2983.25           2616        1006.00      4384.26
  185.34        2983.50           2619        1027.00      4475.83
  185.37        2983.75           2623        1044.00      4549.96
  185.40        2984.00           2626        1019.00      4440.95
HS scan finished at 03:05:37
end
************************************************************
  HS Scan of 
************************************************************
Integration time is 0.2294 seconds per sample
dh220317Reading 51.44 .94 3.01pr1000
************************************************************
Dead Time -------------------------  3.4E-08 
Number of Cycles Used -------------  4 
Starting Wavelength (Angstroms) ---  2950 
Final Wavelength (Angstoms) -------  2984 
Wavelength Increment (Angstroms) --  .25 
Filter Wheel #1 Position ---------- (1) Ground quartz diffuser (ND=2.32)
Filter Wheel #2 Position ---------- (1) Neutral Density 0.494



************************************************************
HS scan start time = 19:07:31
Dark Count =  .9 


Time (GMT)  Wavelength (Ang)  Step Number  Raw Counts  Counts/Second

 1148.41        2950.00           2144         962.00      4190.22
 1148.60        2950.25           2147         997.00      4342.84
 1148.63        2950.50           2151        1012.00      4408.25
 1148.67        2950.75           2155         981.00      4273.07
 1148.70        2951.00           2158         990.00      4312.32
 1148.73        2951.25           2162        1018.00      4434.41
 1148.76        2951.50           2165         987.00      4299.23
 1148.79        2951.75           2169         996.00      4338.48
 1148.82        2952.00           2172        1017.00      4430.05
 1148.85        2952.25           2176        1029.00      4482.37
 1148.88        2952.50           2179         986.00      4294.87
 1148.91        2952.75           2183        1015.00      4421.33
 1148.94        2953.00           2186        1001.00      4360.28
 1148.97        2953.25           2190        1002.00      4364.64
 1149.00        2953.50           2193         984.00      4286.15
 1149.03        2953.75           2197        1083.00      4717.84
 1149.06        2954.00           2200        1043.00      4543.42
 1149.09        2954.25           2204        1030.00      4486.74
 1149.12        2954.50           2208        1053.00      4587.03
 1149.15        2954.75           2211        1043.00      4543.42
 1149.18        2955.00           2215        1051.00      4578.31
 1149.22        2955.25           2218        1050.00      4573.95
 1149.25        2955.50           2222        1080.00      4704.76
 1149.28        2955.75           2225        1078.00      4696.04
 1149.31        2956.00           2229        1081.00      4709.12
 1149.34        2956.25           2232        1127.00      4909.71
 1149.38        2956.50           2236        1090.00      4748.37
 1149.41        2956.75           2239        1111.00      4839.94
 1149.44        2957.00           2243        1121.00      4883.55
 1149.48        2957.25           2246        1120.00      4879.19
 1149.51        2957.50           2250        1120.00      4879.19
 1149.54        2957.75           2254        1109.00      4831.22
 1149.57        2958.00           2257        1146.00      4992.57
 1149.60        2958.25           2261        1146.00      4992.57
 1149.63        2958.50           2264        1170.00      5097.22
 1149.66        2958.75           2268        1161.00      5057.98
 1149.69        2959.00           2271        1183.00      5153.91
 1149.72        2959.25           2275        1235.00      5380.67
 1149.75        2959.50           2278        1189.00      5180.08
 1149.78        2959.75           2282        1246.00      5428.64
 1149.81        2960.00           2285        1251.00      5450.44
 1149.84        2960.25           2289        1256.00      5472.25
 1149.87        2960.50           2293        1272.00      5542.02
 1149.90        2960.75           2296        1311.00      5712.09
 1149.93        2961.00           2300        1389.00      6052.25
 1149.96        2961.25           2303        1746.00      7609.21
 1150.00        2961.50           2307        5740.00     25039.18
 1150.03        2961.75           2310       13226.00     57764.17
 1150.06        2962.00           2314       25095.00    109799.30
 1150.09        2962.25           2317       35102.00    153815.00
 1150.12        2962.50           2321       50100.00    220031.80
 1150.15        2962.75           2324       61000.00    268344.30
 1150.18        2963.00           2328       76490.00    337276.70
 1150.21        2963.25           2331       88239.00    389778.80
 1150.24        2963.50           2335      102854.00    455352.50
 1150.27        2963.75           2339      118109.00    524113.60
 1150.30        2964.00           2342      130821.00    581661.00
 1150.33        2964.25           2346      146770.00    654185.50
 1150.36        2964.50           2349      158056.00    705725.50
 1150.39        2964.75           2353      172975.00    774138.30
 1150.42        2965.00           2356      184320.00    826379.00
 1150.45        2965.25           2360      199253.00    895429.50
 1150.48        2965.50           2363      210376.00    947077.40
 1150.52        2965.75           2367      223843.00   1009857.00
 1150.55        2966.00           2370      233675.00   1055864.00
 1150.58        2966.25           2374      245985.00   1113674.00
 1150.61        2966.50           2378      255731.00   1159608.00
 1150.64        2966.75           2381      258327.00   1171868.00
 1150.67        2967.00           2385      258637.00   1173333.00
 1150.70        2967.25           2388      259117.00   1175601.00
 1150.73        2967.50           2392      259100.00   1175521.00
 1150.76        2967.75           2395      258712.00   1173687.00
 1150.79        2968.00           2399      253017.00   1146802.00
 1150.82        2968.25           2402      243973.00   1104210.00
 1150.85        2968.50           2406      231221.00   1044367.00
 1150.88        2968.75           2409      221977.00   1001142.00
 1150.91        2969.00           2413      208877.00    940106.20
 1150.94        2969.25           2417      194519.00    873503.80
 1150.97        2969.50           2420      183392.00    822098.70
 1151.00        2969.75           2424      168748.00    754722.30
 1151.04        2970.00           2427      156600.00    699066.10
 1151.07        2970.25           2431      140740.00    626722.80
 1151.10        2970.50           2434      130494.00    580177.80
 1151.13        2970.75           2438      115511.00    512380.30
 1151.16        2971.00           2441      104685.00    463588.60
 1151.19        2971.25           2445       90042.00    397852.50
 1151.22        2971.50           2449       74551.00    328630.10
 1151.25        2971.75           2452       62862.00    276613.30
 1151.28        2972.00           2456       46650.00    204773.40
 1151.31        2972.25           2459       35576.00    155903.10
 1151.34        2972.50           2463       22264.00     97371.08
 1151.37        2972.75           2466       12996.00     56757.64
 1151.40        2973.00           2470        4421.00     19280.73
 1151.43        2973.25           2473        2028.00      8839.19
 1151.46        2973.50           2477        1388.00      6047.89
 1151.49        2973.75           2481        1328.00      5786.23
 1151.52        2974.00           2484        1309.00      5703.37
 1151.56        2974.25           2488        1280.00      5576.91
 1151.59        2974.50           2491        1229.00      5354.51
 1151.62        2974.75           2495        1240.00      5402.47
 1151.65        2975.00           2498        1211.00      5276.01
 1151.68        2975.25           2502        1219.00      5310.90
 1151.71        2975.50           2505        1177.00      5127.75
 1151.74        2975.75           2509        1206.00      5254.21
 1151.77        2976.00           2512        1168.00      5088.50
 1151.80        2976.25           2516        1137.00      4953.32
 1151.83        2976.50           2520        1132.00      4931.52
 1151.86        2976.75           2523        1106.00      4818.14
 1151.89        2977.00           2527        1090.00      4748.37
 1151.92        2977.25           2530        1097.00      4778.89
 1151.95        2977.50           2534        1045.00      4552.14
 1151.98        2977.75           2537        1074.00      4678.60
 1152.01        2978.00           2541        1066.00      4643.72
 1152.04        2978.25           2544        1040.00      4530.34
 1152.08        2978.50           2548        1051.00      4578.31
 1152.11        2978.75           2552        1035.00      4508.54
 1152.14        2979.00           2555        1014.00      4416.97
 1152.17        2979.25           2559        1050.00      4573.95
 1152.20        2979.50           2562         994.00      4329.76
 1152.23        2979.75           2566        1030.00      4486.74
 1152.26        2980.00           2569         999.00      4351.56
 1152.29        2980.25           2573        1002.00      4364.64
 1152.32        2980.50           2577        1009.00      4395.16
 1152.35        2980.75           2580         954.00      4155.34
 1152.38        2981.00           2584         990.00      4312.32
 1152.41        2981.25           2587         965.00      4203.30
 1152.44        2981.50           2591         951.00      4142.26
 1152.47        2981.75           2594         957.00      4168.42
 1152.50        2982.00           2598         956.00      4164.06
 1152.53        2982.25           2601         987.00      4299.23
 1152.56        2982.50           2605         962.00      4190.22
 1152.59        2982.75           2609         983.00      4281.79
 1152.63        2983.00           2612         935.00      4072.49
 1152.66        2983.25           2616         939.00      4089.93
 1152.69        2983.50           2619         928.00      4041.97
 1152.72        2983.75           2623         947.00      4124.82
 1152.75        2984.00           2626         934.00      4068.13
HS scan finished at 19:12:58
end
