************************************************************
  HS Scan of 
************************************************************
Integration time is 0.2294 seconds per sample
dh240317Reading 51.44 .94 2.72pr1000
************************************************************
Dead Time -------------------------  3.4E-08 
Number of Cycles Used -------------  4 
Starting Wavelength (Angstroms) ---  2950 
Final Wavelength (Angstoms) -------  2984 
Wavelength Increment (Angstroms) --  .25 
Filter Wheel #1 Position ---------- (1) Ground quartz diffuser (ND=2.32)
Filter Wheel #2 Position ---------- (1) Neutral Density 0.494



************************************************************
HS scan start time = 02:52:29
Dark Count =  .6 


Time (GMT)  Wavelength (Ang)  Step Number  Raw Counts  Counts/Second

  173.39        2950.00           2144         985.00      4291.82
  173.58        2950.25           2147         986.00      4296.18
  173.61        2950.50           2151        1056.00      4601.42
  173.64        2950.75           2155        1039.00      4527.29
  173.67        2951.00           2158        1023.00      4457.52
  173.71        2951.25           2162        1056.00      4601.42
  173.74        2951.50           2165        1068.00      4653.74
  173.77        2951.75           2169        1024.00      4461.88
  173.80        2952.00           2172        1071.00      4666.83
  173.83        2952.25           2176        1049.00      4570.89
  173.86        2952.50           2179        1060.00      4618.86
  173.89        2952.75           2183        1040.00      4531.65
  173.92        2953.00           2186        1049.00      4570.89
  173.95        2953.25           2190        1049.00      4570.89
  173.98        2953.50           2193        1054.00      4592.70
  174.01        2953.75           2197        1060.00      4618.86
  174.04        2954.00           2200        1080.00      4706.07
  174.07        2954.25           2204        1073.00      4675.55
  174.10        2954.50           2208        1079.00      4701.71
  174.13        2954.75           2211        1113.00      4849.97
  174.16        2955.00           2215        1111.00      4841.25
  174.19        2955.25           2218        1105.00      4815.09
  174.23        2955.50           2222        1074.00      4679.91
  174.26        2955.75           2225        1076.00      4688.63
  174.29        2956.00           2229        1118.00      4871.78
  174.32        2956.25           2232        1147.00      4998.23
  174.35        2956.50           2236        1122.00      4889.22
  174.38        2956.75           2239        1147.00      4998.23
  174.41        2957.00           2243        1125.00      4902.30
  174.44        2957.25           2246        1140.00      4967.71
  174.47        2957.50           2250        1150.00      5011.32
  174.50        2957.75           2254        1190.00      5185.74
  174.53        2958.00           2257        1199.00      5224.99
  174.56        2958.25           2261        1223.00      5329.65
  174.59        2958.50           2264        1227.00      5347.09
  174.62        2958.75           2268        1232.00      5368.90
  174.65        2959.00           2271        1254.00      5464.83
  174.68        2959.25           2275        1240.00      5403.78
  174.71        2959.50           2278        1284.00      5595.66
  174.74        2959.75           2282        1277.00      5565.13
  174.78        2960.00           2285        1307.00      5695.96
  174.81        2960.25           2289        1349.00      5879.12
  174.84        2960.50           2293        1381.00      6018.67
  174.87        2960.75           2296        1364.00      5944.53
  174.90        2961.00           2300        1481.00      6454.77
  174.93        2961.25           2303        1807.00      7876.57
  174.96        2961.50           2307        4984.00     21739.69
  174.99        2961.75           2310       11716.00     51158.66
  175.02        2962.00           2314       25115.00    109888.40
  175.05        2962.25           2317       37654.00    165062.40
  175.08        2962.50           2321       54735.00    240557.60
  175.11        2962.75           2324       67882.00    298931.30
  175.14        2963.00           2328       84902.00    374849.10
  175.17        2963.25           2331       96470.00    426674.30
  175.20        2963.50           2335      113705.00    504230.80
  175.23        2963.75           2339      131700.00    585650.00
  175.26        2964.00           2342      145166.00    646876.70
  175.30        2964.25           2346      162917.00    727982.30
  175.33        2964.50           2349      174397.00    780677.50
  175.36        2964.75           2353      190474.00    854796.80
  175.39        2965.00           2356      200856.00    902862.90
  175.42        2965.25           2360      216051.00    973501.00
  175.45        2965.50           2363      229515.00   1036382.00
  175.48        2965.75           2367      244624.00   1107273.00
  175.51        2966.00           2370      256816.00   1164732.00
  175.54        2966.25           2374      271168.00   1232667.00
  175.57        2966.50           2378      280218.00   1275670.00
  175.60        2966.75           2381      284823.00   1297601.00
  175.63        2967.00           2385      284444.00   1295795.00
  175.66        2967.25           2388      285741.00   1301977.00
  175.69        2967.50           2392      286076.00   1303574.00
  175.72        2967.75           2395      284302.00   1295118.00
  175.75        2968.00           2399      281055.00   1279653.00
  175.79        2968.25           2402      272994.00   1241333.00
  175.82        2968.50           2406      258862.00   1174397.00
  175.85        2968.75           2409      250224.00   1133637.00
  175.88        2969.00           2413      234367.00   1059109.00
  175.91        2969.25           2417      216965.00    977761.00
  175.94        2969.50           2420      205104.00    922576.20
  175.97        2969.75           2424      189052.00    848225.70
  176.00        2970.00           2427      177319.00    794120.60
  176.03        2970.25           2431      161267.00    720424.20
  176.06        2970.50           2434      149037.00    664525.00
  176.09        2970.75           2438      130320.00    579390.00
  176.12        2971.00           2441      117189.00    519958.80
  176.15        2971.25           2445       99780.00    441537.20
  176.18        2971.50           2449       82827.00    365572.50
  176.21        2971.75           2452       70462.00    310414.10
  176.24        2972.00           2456       54018.00    237380.70
  176.27        2972.25           2459       42189.00    185068.40
  176.30        2972.50           2463       26693.00    116820.50
  176.34        2972.75           2466       15431.00     67418.54
  176.37        2973.00           2470        4691.00     20460.61
  176.40        2973.25           2473        2105.00      9176.36
  176.43        2973.50           2477        1482.00      6459.13
  176.46        2973.75           2481        1415.00      6166.94
  176.49        2974.00           2484        1369.00      5966.34
  176.52        2974.25           2488        1332.00      5804.98
  176.55        2974.50           2491        1329.00      5791.90
  176.58        2974.75           2495        1302.00      5674.16
  176.61        2975.00           2498        1325.00      5774.46
  176.64        2975.25           2502        1260.00      5491.00
  176.67        2975.50           2505        1269.00      5530.25
  176.70        2975.75           2509        1250.00      5447.39
  176.73        2976.00           2512        1216.00      5299.12
  176.76        2976.25           2516        1201.00      5233.71
  176.79        2976.50           2520        1194.00      5203.19
  176.82        2976.75           2523        1186.00      5168.30
  176.86        2977.00           2527        1150.00      5011.32
  176.89        2977.25           2530        1176.00      5124.69
  176.92        2977.50           2534        1134.00      4941.55
  176.95        2977.75           2537        1137.00      4954.63
  176.98        2978.00           2541        1130.00      4924.10
  177.01        2978.25           2544        1105.00      4815.09
  177.04        2978.50           2548        1151.00      5015.68
  177.07        2978.75           2552        1075.00      4684.27
  177.10        2979.00           2555        1085.00      4727.87
  177.13        2979.25           2559        1078.00      4697.35
  177.16        2979.50           2562        1068.00      4653.74
  177.19        2979.75           2566        1090.00      4749.68
  177.22        2980.00           2569        1047.00      4562.17
  177.25        2980.25           2573        1052.00      4583.98
  177.28        2980.50           2577        1034.00      4505.49
  177.31        2980.75           2580        1056.00      4601.42
  177.34        2981.00           2584        1050.00      4575.25
  177.38        2981.25           2587        1042.00      4540.37
  177.41        2981.50           2591        1009.00      4396.47
  177.44        2981.75           2594        1017.00      4431.36
  177.47        2982.00           2598        1031.00      4492.40
  177.50        2982.25           2601        1023.00      4457.52
  177.53        2982.50           2605        1032.00      4496.76
  177.56        2982.75           2609        1001.00      4361.59
  177.59        2983.00           2612         966.00      4208.97
  177.62        2983.25           2616         990.00      4313.62
  177.65        2983.50           2619         985.00      4291.82
  177.68        2983.75           2623         979.00      4265.66
  177.71        2984.00           2626         938.00      4086.88
HS scan finished at 02:57:56
end
************************************************************
  HS Scan of 
************************************************************
Integration time is 0.2294 seconds per sample
dh240317Reading 51.44 .94 3.19pr1000
************************************************************
Dead Time -------------------------  3.4E-08 
Number of Cycles Used -------------  4 
Starting Wavelength (Angstroms) ---  2950 
Final Wavelength (Angstoms) -------  2984 
Wavelength Increment (Angstroms) --  .25 
Filter Wheel #1 Position ---------- (1) Ground quartz diffuser (ND=2.32)
Filter Wheel #2 Position ---------- (1) Neutral Density 0.494



************************************************************
HS scan start time = 19:07:28
Dark Count =  1.1 


Time (GMT)  Wavelength (Ang)  Step Number  Raw Counts  Counts/Second

 1148.36        2950.00           2144         907.00      3949.53
 1148.55        2950.25           2147         900.00      3919.01
 1148.58        2950.50           2151         908.00      3953.89
 1148.61        2950.75           2155         890.00      3875.40
 1148.64        2951.00           2158         943.00      4106.50
 1148.67        2951.25           2162         930.00      4049.82
 1148.70        2951.50           2165         938.00      4084.70
 1148.74        2951.75           2169         957.00      4167.55
 1148.77        2952.00           2172         934.00      4067.26
 1148.80        2952.25           2176         930.00      4049.82
 1148.83        2952.50           2179         954.00      4154.47
 1148.86        2952.75           2183         960.00      4180.63
 1148.89        2953.00           2186         946.00      4119.58
 1148.92        2953.25           2190         948.00      4128.30
 1148.95        2953.50           2193         955.00      4158.83
 1148.98        2953.75           2197         942.00      4102.14
 1149.01        2954.00           2200         993.00      4324.52
 1149.04        2954.25           2204         958.00      4171.91
 1149.07        2954.50           2208         974.00      4241.68
 1149.10        2954.75           2211         998.00      4346.33
 1149.13        2955.00           2215         990.00      4311.44
 1149.16        2955.25           2218        1013.00      4411.73
 1149.19        2955.50           2222         990.00      4311.44
 1149.22        2955.75           2225        1031.00      4490.22
 1149.26        2956.00           2229        1007.00      4385.57
 1149.29        2956.25           2232        1023.00      4455.34
 1149.32        2956.50           2236        1033.00      4498.94
 1149.35        2956.75           2239        1046.00      4555.63
 1149.38        2957.00           2243        1063.00      4629.76
 1149.41        2957.25           2246        1095.00      4769.30
 1149.44        2957.50           2250        1052.00      4581.80
 1149.47        2957.75           2254        1060.00      4616.68
 1149.50        2958.00           2257        1041.00      4533.83
 1149.53        2958.25           2261        1093.00      4760.58
 1149.56        2958.50           2264        1122.00      4887.04
 1149.59        2958.75           2268        1118.00      4869.59
 1149.62        2959.00           2271        1157.00      5039.66
 1149.65        2959.25           2275        1175.00      5118.15
 1149.68        2959.50           2278        1168.00      5087.63
 1149.71        2959.75           2282        1156.00      5035.30
 1149.74        2960.00           2285        1227.00      5344.91
 1149.78        2960.25           2289        1203.00      5240.25
 1149.81        2960.50           2293        1221.00      5318.75
 1149.84        2960.75           2296        1283.00      5589.12
 1149.87        2961.00           2300        1383.00      6025.21
 1149.90        2961.25           2303        1857.00      8092.46
 1149.93        2961.50           2307        6012.00     26226.08
 1149.96        2961.75           2310       13151.00     57435.07
 1149.99        2962.00           2314       26477.00    115869.30
 1150.02        2962.25           2317       37500.00    164381.30
 1150.05        2962.50           2321       54023.00    237400.70
 1150.08        2962.75           2324       66547.00    292991.00
 1150.11        2963.00           2328       81907.00    361459.00
 1150.14        2963.25           2331       93294.00    412425.10
 1150.17        2963.50           2335      108607.00    481244.80
 1150.20        2963.75           2339      126376.00    561511.60
 1150.23        2964.00           2342      139203.00    619730.30
 1150.26        2964.25           2346      155216.00    692738.00
 1150.30        2964.50           2349      166841.00    745970.30
 1150.33        2964.75           2353      180303.00    807859.30
 1150.36        2965.00           2356      191279.00    858515.70
 1150.39        2965.25           2360      204874.00    921505.90
 1150.42        2965.50           2363      217320.00    979413.60
 1150.45        2965.75           2367      232284.00   1049346.00
 1150.48        2966.00           2370      243252.00   1100819.00
 1150.51        2966.25           2374      256605.00   1163734.00
 1150.54        2966.50           2378      264823.00   1202591.00
 1150.57        2966.75           2381      267556.00   1215537.00
 1150.60        2967.00           2385      268590.00   1220438.00
 1150.63        2967.25           2388      268134.00   1218276.00
 1150.66        2967.50           2392      268451.00   1219779.00
 1150.69        2967.75           2395      268331.00   1219210.00
 1150.72        2968.00           2399      263053.00   1194213.00
 1150.75        2968.25           2402      254805.00   1155236.00
 1150.78        2968.50           2406      242017.00   1095014.00
 1150.82        2968.75           2409      231680.00   1046516.00
 1150.85        2969.00           2413      217423.00    979893.80
 1150.88        2969.25           2417      202288.00    909502.90
 1150.91        2969.50           2420      190662.00    855663.50
 1150.94        2969.75           2424      175611.00    786258.80
 1150.97        2970.00           2427      163877.00    732379.20
 1151.00        2970.25           2431      147406.00    657084.30
 1151.03        2970.50           2434      136840.00    608987.70
 1151.06        2970.75           2438      121703.00    540359.70
 1151.09        2971.00           2441      107571.00    476578.60
 1151.12        2971.25           2445       91220.00    403129.00
 1151.15        2971.50           2449       75701.00    333756.80
 1151.18        2971.75           2452       63745.00    280535.40
 1151.21        2972.00           2456       48165.00    211471.00
 1151.24        2972.25           2459       36873.00    161617.60
 1151.27        2972.50           2463       21730.00     95027.11
 1151.30        2972.75           2466       11971.00     52271.99
 1151.33        2973.00           2470        3530.00     15391.23
 1151.37        2973.25           2473        1691.00      7368.45
 1151.40        2973.50           2477        1342.00      5846.41
 1151.43        2973.75           2481        1308.00      5698.14
 1151.46        2974.00           2484        1225.00      5336.19
 1151.49        2974.25           2488        1189.00      5179.20
 1151.52        2974.50           2491        1215.00      5292.58
 1151.55        2974.75           2495        1181.00      5144.32
 1151.58        2975.00           2498        1160.00      5052.74
 1151.61        2975.25           2502        1122.00      4887.04
 1151.64        2975.50           2505        1134.00      4939.37
 1151.67        2975.75           2509        1116.00      4860.87
 1151.70        2976.00           2512        1099.00      4786.74
 1151.73        2976.25           2516        1089.00      4743.14
 1151.76        2976.50           2520        1085.00      4725.69
 1151.79        2976.75           2523        1042.00      4538.19
 1151.82        2977.00           2527        1055.00      4594.88
 1151.86        2977.25           2530        1058.00      4607.96
 1151.89        2977.50           2534        1056.00      4599.24
 1151.92        2977.75           2537        1025.00      4464.06
 1151.95        2978.00           2541        1030.00      4485.86
 1151.98        2978.25           2544        1005.00      4376.85
 1152.01        2978.50           2548         974.00      4241.68
 1152.04        2978.75           2552        1010.00      4398.65
 1152.07        2979.00           2555         948.00      4128.30
 1152.10        2979.25           2559         967.00      4211.15
 1152.13        2979.50           2562         985.00      4289.64
 1152.16        2979.75           2566         951.00      4141.39
 1152.19        2980.00           2569         965.00      4202.43
 1152.22        2980.25           2573         927.00      4036.74
 1152.25        2980.50           2577         949.00      4132.66
 1152.28        2980.75           2580         991.00      4315.80
 1152.31        2981.00           2584         922.00      4014.93
 1152.34        2981.25           2587         928.00      4041.10
 1152.38        2981.50           2591         937.00      4080.34
 1152.41        2981.75           2594         937.00      4080.34
 1152.44        2982.00           2598         917.00      3993.13
 1152.47        2982.25           2601         899.00      3914.65
 1152.50        2982.50           2605         928.00      4041.10
 1152.53        2982.75           2609         908.00      3953.89
 1152.56        2983.00           2612         929.00      4045.46
 1152.59        2983.25           2616         919.00      4001.85
 1152.62        2983.50           2619         911.00      3966.97
 1152.65        2983.75           2623         885.00      3853.60
 1152.68        2984.00           2626         880.00      3831.80
HS scan finished at 19:12:54
end
