************************************************************
  HS Scan of (1) Internal mercury lamp
************************************************************
Integration time is 0.2294 seconds per sample
dh260319Reading 51.44 .94 2.56pr1000
************************************************************
Dead Time -------------------------  3.4E-08 
Number of Cycles Used -------------  4 
Starting Wavelength (Angstroms) ---  2950 
Final Wavelength (Angstoms) -------  2984 
Wavelength Increment (Angstroms) --  .25 
Filter Wheel #1 Position ---------- (1) Ground quartz diffuser (ND=2.32)
Filter Wheel #2 Position ---------- (1) Neutral Density 0.494



************************************************************
HS scan start time = 02:46:23
Dark Count =  .2 


Time (GMT)  Wavelength (Ang)  Step Number  Raw Counts  Counts/Second

  167.28        2950.00           2144        1702.00      7420.36
  167.48        2950.25           2147        1677.00      7311.32
  167.51        2950.50           2151        1754.00      7647.15
  167.54        2950.75           2155        1738.00      7577.37
  167.57        2951.00           2158        1715.00      7477.05
  167.60        2951.25           2162        1737.00      7573.01
  167.63        2951.50           2165        1749.00      7625.34
  167.66        2951.75           2169        1775.00      7738.74
  167.69        2952.00           2172        1741.00      7590.45
  167.72        2952.25           2176        1766.00      7699.49
  167.75        2952.50           2179        1769.00      7712.57
  167.78        2952.75           2183        1758.00      7664.60
  167.81        2953.00           2186        1764.00      7690.76
  167.84        2953.25           2190        1766.00      7699.49
  167.87        2953.50           2193        1802.00      7856.50
  167.90        2953.75           2197        1782.00      7769.27
  167.93        2954.00           2200        1786.00      7786.72
  167.96        2954.25           2204        1800.00      7847.78
  168.00        2954.50           2208        1785.00      7782.36
  168.03        2954.75           2211        1826.00      7961.18
  168.06        2955.00           2215        1797.00      7834.69
  168.09        2955.25           2218        1805.00      7869.59
  168.12        2955.50           2222        1825.00      7956.82
  168.15        2955.75           2225        1834.00      7996.07
  168.18        2956.00           2229        1840.00      8022.24
  168.21        2956.25           2232        1859.00      8105.11
  168.24        2956.50           2236        1842.00      8030.96
  168.27        2956.75           2239        1880.00      8196.71
  168.30        2957.00           2243        1847.00      8052.77
  168.33        2957.25           2246        1927.00      8401.70
  168.36        2957.50           2250        1907.00      8314.47
  168.39        2957.75           2254        1972.00      8597.98
  168.42        2958.00           2257        1938.00      8449.68
  168.45        2958.25           2261        1973.00      8602.34
  168.48        2958.50           2264        1989.00      8672.13
  168.52        2958.75           2268        2017.00      8794.26
  168.55        2959.00           2271        1981.00      8637.24
  168.58        2959.25           2275        2045.00      8916.39
  168.61        2959.50           2278        2086.00      9095.23
  168.64        2959.75           2282        2140.00      9330.77
  168.67        2960.00           2285        2120.00      9243.53
  168.70        2960.25           2289        2129.00      9282.79
  168.73        2960.50           2293        2229.00      9718.99
  168.76        2960.75           2296        2192.00      9557.60
  168.79        2961.00           2300        2368.00     10325.33
  168.82        2961.25           2303        3193.00     13924.64
  168.85        2961.50           2307        9925.00     43327.95
  168.88        2961.75           2310       20750.00     90731.96
  168.91        2962.00           2314       38960.00    170822.80
  168.94        2962.25           2317       54795.00    240825.20
  168.97        2962.50           2321       75858.00    334461.00
  169.01        2962.75           2324       90658.00    400615.00
  169.04        2963.00           2328      112773.00    500028.10
  169.07        2963.25           2331      132504.00    589300.10
  169.10        2963.50           2335      159146.00    710716.20
  169.13        2963.75           2339      184101.00    825372.00
  169.16        2964.00           2342      202178.00    908996.70
  169.19        2964.25           2346      225505.00   1017627.00
  169.22        2964.50           2349      241581.00   1092969.00
  169.25        2964.75           2353      265430.00   1205470.00
  169.28        2965.00           2356      283200.00   1289869.00
  169.31        2965.25           2360      304299.00   1390729.00
  169.34        2965.50           2363      320100.00   1466729.00
  169.37        2965.75           2367      342258.00   1573988.00
  169.40        2966.00           2370      355947.00   1640656.00
  169.43        2966.25           2374      375791.00   1737857.00
  169.46        2966.50           2378      392431.00   1819877.00
  169.49        2966.75           2381      398603.00   1850420.00
  169.52        2967.00           2385      399795.00   1856326.00
  169.56        2967.25           2388      399655.00   1855632.00
  169.59        2967.50           2392      400171.00   1858190.00
  169.62        2967.75           2395      399368.00   1854210.00
  169.65        2968.00           2399      394767.00   1831429.00
  169.68        2968.25           2402      385990.00   1788073.00
  169.71        2968.50           2406      367703.00   1698160.00
  169.74        2968.75           2409      350856.00   1615826.00
  169.77        2969.00           2413      328489.00   1507243.00
  169.80        2969.25           2417      303777.00   1388225.00
  169.83        2969.50           2420      285513.00   1300892.00
  169.86        2969.75           2424      262963.00   1193792.00
  169.89        2970.00           2427      245915.00   1113348.00
  169.92        2970.25           2431      220112.00    992440.10
  169.95        2970.50           2434      200762.00    902428.80
  169.98        2970.75           2438      175604.00    786230.70
  170.01        2971.00           2441      157094.00    701328.50
  170.04        2971.25           2445      134280.00    597362.50
  170.08        2971.50           2449      112654.00    499491.30
  170.11        2971.75           2452       94205.00    416514.30
  170.14        2972.00           2456       69114.00    304415.20
  170.17        2972.25           2459       51311.00    225394.60
  170.20        2972.50           2463       29757.00    130291.70
  170.23        2972.75           2466       15611.00     68208.57
  170.26        2973.00           2470        5251.00     22907.11
  170.29        2973.25           2473        2903.00     12659.33
  170.32        2973.50           2477        2278.00      9932.74
  170.35        2973.75           2481        2205.00      9614.30
  170.38        2974.00           2484        2206.00      9618.67
  170.41        2974.25           2488        2097.00      9143.21
  170.44        2974.50           2491        2129.00      9282.79
  170.47        2974.75           2495        2018.00      8798.62
  170.50        2975.00           2498        2062.00      8990.54
  170.53        2975.25           2502        1996.00      8702.66
  170.56        2975.50           2505        2009.00      8759.37
  170.60        2975.75           2509        1939.00      8454.04
  170.63        2976.00           2512        1957.00      8532.55
  170.66        2976.25           2516        1962.00      8554.36
  170.69        2976.50           2520        1908.00      8318.83
  170.72        2976.75           2523        1911.00      8331.92
  170.75        2977.00           2527        1869.00      8148.73
  170.78        2977.25           2530        1843.00      8035.33
  170.81        2977.50           2534        1795.00      7825.97
  170.84        2977.75           2537        1802.00      7856.50
  170.87        2978.00           2541        1796.00      7830.33
  170.90        2978.25           2544        1822.00      7943.73
  170.93        2978.50           2548        1778.00      7751.82
  170.96        2978.75           2552        1764.00      7690.76
  171.00        2979.00           2555        1738.00      7577.37
  171.03        2979.25           2559        1717.00      7485.78
  171.06        2979.50           2562        1721.00      7503.22
  171.09        2979.75           2566        1752.00      7638.43
  171.12        2980.00           2569        1704.00      7429.08
  171.15        2980.25           2573        1685.00      7346.21
  171.18        2980.50           2577        1695.00      7389.83
  171.21        2980.75           2580        1710.00      7455.25
  171.24        2981.00           2584        1671.00      7285.15
  171.27        2981.25           2587        1677.00      7311.32
  171.31        2981.50           2591        1642.00      7158.67
  171.34        2981.75           2594        1670.00      7280.79
  171.37        2982.00           2598        1645.00      7171.76
  171.40        2982.25           2601        1658.00      7228.46
  171.43        2982.50           2605        1652.00      7202.29
  171.46        2982.75           2609        1638.00      7141.23
  171.49        2983.00           2612        1629.00      7101.98
  171.52        2983.25           2616        1642.00      7158.67
  171.55        2983.50           2619        1646.00      7176.12
  171.58        2983.75           2623        1600.00      6975.50
  171.61        2984.00           2626        1582.00      6897.00
HS scan finished at 02:51:50
end
************************************************************
  HS Scan of (1) Internal mercury lamp
************************************************************
Integration time is 0.2294 seconds per sample
dh260319Reading 51.44 .94 3.29pr1000
************************************************************
Dead Time -------------------------  3.4E-08 
Number of Cycles Used -------------  4 
Starting Wavelength (Angstroms) ---  2950 
Final Wavelength (Angstoms) -------  2984 
Wavelength Increment (Angstroms) --  .25 
Filter Wheel #1 Position ---------- (1) Ground quartz diffuser (ND=2.32)
Filter Wheel #2 Position ---------- (1) Neutral Density 0.494



************************************************************
HS scan start time = 19:07:25
Dark Count =  2 


Time (GMT)  Wavelength (Ang)  Step Number  Raw Counts  Counts/Second

 1148.31        2950.00           2144        1207.00      5253.77
 1148.51        2950.25           2147        1194.00      5197.08
 1148.54        2950.50           2151        1203.00      5236.33
 1148.57        2950.75           2155        1204.00      5240.69
 1148.60        2951.00           2158        1212.00      5275.58
 1148.63        2951.25           2162        1232.00      5362.79
 1148.66        2951.50           2165        1241.00      5402.04
 1148.69        2951.75           2169        1227.00      5340.99
 1148.73        2952.00           2172        1257.00      5471.81
 1148.76        2952.25           2176        1245.00      5419.48
 1148.79        2952.50           2179        1268.00      5519.78
 1148.82        2952.75           2183        1228.00      5345.35
 1148.85        2953.00           2186        1283.00      5585.19
 1148.88        2953.25           2190        1259.00      5480.53
 1148.91        2953.50           2193        1275.00      5550.31
 1148.94        2953.75           2197        1280.00      5572.11
 1148.97        2954.00           2200        1280.00      5572.11
 1149.00        2954.25           2204        1271.00      5532.86
 1149.03        2954.50           2208        1266.00      5511.06
 1149.07        2954.75           2211        1315.00      5724.74
 1149.10        2955.00           2215        1304.00      5676.77
 1149.13        2955.25           2218        1322.00      5755.27
 1149.16        2955.50           2222        1304.00      5676.77
 1149.19        2955.75           2225        1302.00      5668.05
 1149.22        2956.00           2229        1340.00      5833.76
 1149.25        2956.25           2232        1320.00      5746.55
 1149.28        2956.50           2236        1332.00      5798.88
 1149.31        2956.75           2239        1367.00      5951.51
 1149.34        2957.00           2243        1370.00      5964.59
 1149.37        2957.25           2246        1399.00      6091.06
 1149.40        2957.50           2250        1390.00      6051.81
 1149.43        2957.75           2254        1400.00      6095.42
 1149.46        2958.00           2257        1418.00      6173.92
 1149.49        2958.25           2261        1421.00      6187.00
 1149.52        2958.50           2264        1440.00      6269.86
 1149.55        2958.75           2268        1450.00      6313.47
 1149.59        2959.00           2271        1483.00      6457.39
 1149.62        2959.25           2275        1443.00      6282.95
 1149.65        2959.50           2278        1534.00      6679.81
 1149.68        2959.75           2282        1500.00      6531.53
 1149.71        2960.00           2285        1535.00      6684.17
 1149.74        2960.25           2289        1604.00      6985.09
 1149.77        2960.50           2293        1621.00      7059.24
 1149.80        2960.75           2296        1650.00      7185.71
 1149.83        2961.00           2300        1689.00      7355.81
 1149.86        2961.25           2303        1924.00      8380.77
 1149.89        2961.50           2307        4581.00     19974.33
 1149.92        2961.75           2310       10888.00     47530.98
 1149.95        2962.00           2314       24969.00    109241.10
 1149.98        2962.25           2317       40118.00    175922.70
 1150.01        2962.50           2321       62215.00    273734.60
 1150.04        2962.75           2324       77816.00    343187.80
 1150.07        2963.00           2328       98067.00    433837.10
 1150.11        2963.25           2331      114318.00    506990.60
 1150.14        2963.50           2335      136915.00    609324.50
 1150.17        2963.75           2339      159827.00    713824.90
 1150.20        2964.00           2342      175443.00    785481.80
 1150.23        2964.25           2346      197240.00    886097.10
 1150.26        2964.50           2349      212962.00    959106.40
 1150.29        2964.75           2353      234932.00   1061752.00
 1150.32        2965.00           2356      251436.00   1139342.00
 1150.35        2965.25           2360      274684.00   1249352.00
 1150.38        2965.50           2363      290519.00   1324768.00
 1150.41        2965.75           2367      310069.00   1418426.00
 1150.44        2966.00           2370      323874.00   1484932.00
 1150.47        2966.25           2374      344875.00   1586701.00
 1150.51        2966.50           2378      358736.00   1654269.00
 1150.54        2966.75           2381      362388.00   1672125.00
 1150.57        2967.00           2385      365455.00   1687137.00
 1150.60        2967.25           2388      366053.00   1690066.00
 1150.63        2967.50           2392      361929.00   1669879.00
 1150.66        2967.75           2395      364931.00   1684571.00
 1150.70        2968.00           2399      360030.00   1660593.00
 1150.73        2968.25           2402      350576.00   1614453.00
 1150.76        2968.50           2406      332921.00   1528684.00
 1150.79        2968.75           2409      319193.00   1462346.00
 1150.82        2969.00           2413      298820.00   1364461.00
 1150.85        2969.25           2417      278438.00   1267195.00
 1150.88        2969.50           2420      264719.00   1202094.00
 1150.91        2969.75           2424      245766.00   1112639.00
 1150.94        2970.00           2427      228566.00   1031934.00
 1150.97        2970.25           2431      204729.00    920828.30
 1151.00        2970.50           2434      186394.00    835944.40
 1151.03        2970.75           2438      164376.00    734662.30
 1151.06        2971.00           2441      147870.00    659195.90
 1151.09        2971.25           2445      126314.00    561226.60
 1151.12        2971.50           2449      104010.00    460546.90
 1151.15        2971.75           2452       87348.00    385785.70
 1151.18        2972.00           2456       64821.00    285313.20
 1151.21        2972.25           2459       49230.00    216177.70
 1151.25        2972.50           2463       29039.00    127126.30
 1151.28        2972.75           2466       15912.00     69518.97
 1151.31        2973.00           2470        5299.00     23108.82
 1151.34        2973.25           2473        2621.00     11421.17
 1151.37        2973.50           2477        1835.00      7992.58
 1151.40        2973.75           2481        1674.00      7290.39
 1151.43        2974.00           2484        1662.00      7238.05
 1151.46        2974.25           2488        1598.00      6958.93
 1151.49        2974.50           2491        1621.00      7059.24
 1151.52        2974.75           2495        1571.00      6841.17
 1151.55        2975.00           2498        1562.00      6801.92
 1151.58        2975.25           2502        1515.00      6596.95
 1151.61        2975.50           2505        1503.00      6544.61
 1151.64        2975.75           2509        1467.00      6387.61
 1151.67        2976.00           2512        1503.00      6544.61
 1151.70        2976.25           2516        1444.00      6287.31
 1151.73        2976.50           2520        1432.00      6234.97
 1151.77        2976.75           2523        1414.00      6156.48
 1151.80        2977.00           2527        1369.00      5960.23
 1151.83        2977.25           2530        1369.00      5960.23
 1151.86        2977.50           2534        1348.00      5868.65
 1151.89        2977.75           2537        1389.00      6047.45
 1151.92        2978.00           2541        1323.00      5759.63
 1151.95        2978.25           2544        1310.00      5702.94
 1151.98        2978.50           2548        1325.00      5768.35
 1152.01        2978.75           2552        1278.00      5563.39
 1152.04        2979.00           2555        1339.00      5829.40
 1152.07        2979.25           2559        1317.00      5733.46
 1152.10        2979.50           2562        1282.00      5580.83
 1152.13        2979.75           2566        1237.00      5384.60
 1152.16        2980.00           2569        1253.00      5454.37
 1152.19        2980.25           2573        1233.00      5367.15
 1152.22        2980.50           2577        1265.00      5506.70
 1152.25        2980.75           2580        1273.00      5541.59
 1152.29        2981.00           2584        1212.00      5275.58
 1152.32        2981.25           2587        1233.00      5367.15
 1152.35        2981.50           2591        1221.00      5314.82
 1152.38        2981.75           2594        1228.00      5345.35
 1152.41        2982.00           2598        1219.00      5306.10
 1152.44        2982.25           2601        1194.00      5197.08
 1152.48        2982.50           2605        1194.00      5197.08
 1152.51        2982.75           2609        1196.00      5205.80
 1152.54        2983.00           2612        1175.00      5114.23
 1152.57        2983.25           2616        1179.00      5131.67
 1152.60        2983.50           2619        1186.00      5162.20
 1152.63        2983.75           2623        1146.00      4987.77
 1152.66        2984.00           2626        1171.00      5096.79
HS scan finished at 19:12:53
end
