************************************************************
  HS Scan of 
************************************************************
Integration time is 0.2294 seconds per sample
dh260317Reading 51.44 .94 2.66pr1000
************************************************************
Dead Time -------------------------  3.4E-08 
Number of Cycles Used -------------  4 
Starting Wavelength (Angstroms) ---  2950 
Final Wavelength (Angstoms) -------  2984 
Wavelength Increment (Angstroms) --  .25 
Filter Wheel #1 Position ---------- (1) Ground quartz diffuser (ND=2.32)
Filter Wheel #2 Position ---------- (1) Neutral Density 0.494



************************************************************
HS scan start time = 02:44:27
Dark Count =  .5 


Time (GMT)  Wavelength (Ang)  Step Number  Raw Counts  Counts/Second

  165.34        2950.00           2144        1015.00      4423.07
  165.54        2950.25           2147        1016.00      4427.43
  165.57        2950.50           2151        1045.00      4553.89
  165.60        2950.75           2155        1040.00      4532.08
  165.63        2951.00           2158        1079.00      4702.15
  165.66        2951.25           2162        1053.00      4588.77
  165.69        2951.50           2165        1014.00      4418.71
  165.72        2951.75           2169        1030.00      4488.48
  165.75        2952.00           2172        1064.00      4636.74
  165.78        2952.25           2176        1054.00      4593.13
  165.81        2952.50           2179        1056.00      4601.85
  165.84        2952.75           2183        1095.00      4771.92
  165.87        2953.00           2186        1084.00      4723.95
  165.90        2953.25           2190        1051.00      4580.05
  165.93        2953.50           2193        1079.00      4702.15
  165.96        2953.75           2197        1074.00      4680.34
  165.99        2954.00           2200        1072.00      4671.62
  166.03        2954.25           2204        1080.00      4706.51
  166.06        2954.50           2208        1110.00      4837.33
  166.09        2954.75           2211        1115.00      4859.13
  166.12        2955.00           2215        1096.00      4776.28
  166.15        2955.25           2218        1112.00      4846.05
  166.18        2955.50           2222        1125.00      4902.74
  166.21        2955.75           2225        1119.00      4876.57
  166.24        2956.00           2229        1139.00      4963.78
  166.27        2956.25           2232        1166.00      5081.52
  166.30        2956.50           2236        1145.00      4989.95
  166.33        2956.75           2239        1151.00      5016.11
  166.36        2957.00           2243        1177.00      5129.49
  166.39        2957.25           2246        1173.00      5112.05
  166.42        2957.50           2250        1193.00      5199.26
  166.45        2957.75           2254        1174.00      5116.41
  166.48        2958.00           2257        1199.00      5225.43
  166.51        2958.25           2261        1245.00      5426.02
  166.55        2958.50           2264        1227.00      5347.53
  166.58        2958.75           2268        1248.00      5439.11
  166.61        2959.00           2271        1233.00      5373.69
  166.64        2959.25           2275        1266.00      5517.60
  166.67        2959.50           2278        1236.00      5386.78
  166.70        2959.75           2282        1283.00      5591.73
  166.73        2960.00           2285        1320.00      5753.09
  166.76        2960.25           2289        1313.00      5722.56
  166.79        2960.50           2293        1356.00      5910.08
  166.82        2960.75           2296        1414.00      6163.02
  166.85        2961.00           2300        1498.00      6529.35
  166.88        2961.25           2303        1846.00      8047.10
  166.91        2961.50           2307        5892.00     25704.67
  166.94        2961.75           2310       13921.00     60807.80
  166.97        2962.00           2314       27554.00    120604.70
  167.00        2962.25           2317       38049.00    166804.30
  167.03        2962.50           2321       52891.00    232389.10
  167.07        2962.75           2324       64456.00    283697.60
  167.10        2963.00           2328       81980.00    361787.90
  167.13        2963.25           2331       95945.00    424318.70
  167.16        2963.50           2335      114347.00    507128.20
  167.19        2963.75           2339      130584.00    580587.70
  167.22        2964.00           2342      142926.00    636674.50
  167.25        2964.25           2346      159688.00    713195.50
  167.28        2964.50           2349      171435.00    767063.50
  167.31        2964.75           2353      189669.00    851076.90
  167.34        2965.00           2356      201087.00    903934.60
  167.37        2965.25           2360      216171.00    974060.70
  167.40        2965.50           2363      227617.00   1027502.00
  167.43        2965.75           2367      242623.00   1097865.00
  167.46        2966.00           2370      251952.00   1141782.00
  167.49        2966.25           2374      267359.00   1214606.00
  167.52        2966.50           2378      280679.00   1277864.00
  167.55        2966.75           2381      284597.00   1296524.00
  167.59        2967.00           2385      285820.00   1302354.00
  167.62        2967.25           2388      285921.00   1302836.00
  167.65        2967.50           2392      285409.00   1300395.00
  167.68        2967.75           2395      285707.00   1301815.00
  167.71        2968.00           2399      282818.00   1288049.00
  167.74        2968.25           2402      275642.00   1253910.00
  167.77        2968.50           2406      260984.00   1184429.00
  167.80        2968.75           2409      249766.00   1131479.00
  167.83        2969.00           2413      233475.00   1054929.00
  167.86        2969.25           2417      217394.00    979761.40
  167.89        2969.50           2420      205631.00    925024.10
  167.92        2969.75           2424      190589.00    855328.80
  167.95        2970.00           2427      177485.00    794885.00
  167.98        2970.25           2431      160140.00    715264.50
  168.01        2970.50           2434      146191.00    651548.10
  168.04        2970.75           2438      127550.00    566833.10
  168.07        2971.00           2441      114340.00    507096.60
  168.11        2971.25           2445       98609.00    436277.70
  168.14        2971.50           2449       81227.00    358423.80
  168.17        2971.75           2452       67669.00    297984.20
  168.20        2972.00           2456       50806.00    223158.00
  168.23        2972.25           2459       37958.00    166403.10
  168.26        2972.50           2463       22204.00     97109.56
  168.29        2972.75           2466       12430.00     54282.74
  168.32        2973.00           2470        4104.00     17898.86
  168.35        2973.25           2473        2053.00      8949.98
  168.38        2973.50           2477        1488.00      6485.74
  168.41        2973.75           2481        1410.00      6145.57
  168.44        2974.00           2484        1377.00      6001.66
  168.47        2974.25           2488        1365.00      5949.33
  168.50        2974.50           2491        1323.00      5766.17
  168.53        2974.75           2495        1322.00      5761.81
  168.56        2975.00           2498        1317.00      5740.00
  168.59        2975.25           2502        1274.00      5552.49
  168.63        2975.50           2505        1247.00      5434.74
  168.66        2975.75           2509        1247.00      5434.74
  168.69        2976.00           2512        1212.00      5282.12
  168.72        2976.25           2516        1227.00      5347.53
  168.75        2976.50           2520        1170.00      5098.97
  168.78        2976.75           2523        1193.00      5199.26
  168.81        2977.00           2527        1168.00      5090.24
  168.84        2977.25           2530        1163.00      5068.44
  168.87        2977.50           2534        1122.00      4889.65
  168.90        2977.75           2537        1139.00      4963.78
  168.93        2978.00           2541        1158.00      5046.64
  168.96        2978.25           2544        1068.00      4654.18
  168.99        2978.50           2548        1103.00      4806.80
  169.02        2978.75           2552        1095.00      4771.92
  169.05        2979.00           2555        1079.00      4702.15
  169.08        2979.25           2559        1120.00      4880.93
  169.11        2979.50           2562        1110.00      4837.33
  169.15        2979.75           2566        1066.00      4645.46
  169.18        2980.00           2569        1055.00      4597.49
  169.21        2980.25           2573        1055.00      4597.49
  169.24        2980.50           2577        1077.00      4693.43
  169.27        2980.75           2580        1028.00      4479.76
  169.30        2981.00           2584        1025.00      4466.68
  169.33        2981.25           2587        1006.00      4383.83
  169.36        2981.50           2591        1074.00      4680.34
  169.39        2981.75           2594        1043.00      4545.17
  169.42        2982.00           2598        1022.00      4453.60
  169.45        2982.25           2601         996.00      4340.22
  169.48        2982.50           2605        1013.00      4414.35
  169.51        2982.75           2609        1017.00      4431.79
  169.54        2983.00           2612        1007.00      4388.19
  169.57        2983.25           2616        1026.00      4471.04
  169.60        2983.50           2619        1002.00      4366.39
  169.63        2983.75           2623         992.00      4322.78
  169.67        2984.00           2626        1011.00      4405.63
HS scan finished at 02:49:53
end
************************************************************
  HS Scan of 
************************************************************
Integration time is 0.2294 seconds per sample
dh260317Reading 51.44 .94 3.19pr1000
************************************************************
Dead Time -------------------------  3.4E-08 
Number of Cycles Used -------------  4 
Starting Wavelength (Angstroms) ---  2950 
Final Wavelength (Angstoms) -------  2984 
Wavelength Increment (Angstroms) --  .25 
Filter Wheel #1 Position ---------- (1) Ground quartz diffuser (ND=2.32)
Filter Wheel #2 Position ---------- (1) Neutral Density 0.494



************************************************************
HS scan start time = 19:37:36
Dark Count =  1.4 


Time (GMT)  Wavelength (Ang)  Step Number  Raw Counts  Counts/Second

 1178.51        2950.00           2144         902.00      3926.42
 1178.70        2950.25           2147         895.00      3895.90
 1178.73        2950.50           2151         856.00      3725.84
 1178.76        2950.75           2155         878.00      3821.77
 1178.79        2951.00           2158         864.00      3760.73
 1178.82        2951.25           2162         899.00      3913.34
 1178.85        2951.50           2165         889.00      3869.73
 1178.88        2951.75           2169         864.00      3760.73
 1178.91        2952.00           2172         879.00      3826.13
 1178.94        2952.25           2176         888.00      3865.37
 1178.97        2952.50           2179         911.00      3965.66
 1179.00        2952.75           2183         890.00      3874.09
 1179.03        2953.00           2186         919.00      4000.54
 1179.07        2953.25           2190         921.00      4009.27
 1179.10        2953.50           2193         884.00      3847.93
 1179.13        2953.75           2197         897.00      3904.62
 1179.16        2954.00           2200         943.00      4105.19
 1179.19        2954.25           2204         939.00      4087.75
 1179.22        2954.50           2208         938.00      4083.39
 1179.25        2954.75           2211         935.00      4070.31
 1179.28        2955.00           2215         932.00      4057.23
 1179.31        2955.25           2218         935.00      4070.31
 1179.34        2955.50           2222         946.00      4118.28
 1179.37        2955.75           2225         953.00      4148.80
 1179.40        2956.00           2229         989.00      4305.77
 1179.43        2956.25           2232         952.00      4144.44
 1179.46        2956.50           2236         989.00      4305.77
 1179.49        2956.75           2239         995.00      4331.94
 1179.52        2957.00           2243         986.00      4292.69
 1179.55        2957.25           2246         975.00      4244.73
 1179.58        2957.50           2250         986.00      4292.69
 1179.62        2957.75           2254         979.00      4262.17
 1179.65        2958.00           2257        1030.00      4484.55
 1179.68        2958.25           2261        1045.00      4549.96
 1179.71        2958.50           2264        1069.00      4654.62
 1179.74        2958.75           2268        1066.00      4641.53
 1179.77        2959.00           2271        1083.00      4715.66
 1179.80        2959.25           2275        1087.00      4733.11
 1179.83        2959.50           2278        1118.00      4868.29
 1179.86        2959.75           2282        1151.00      5012.19
 1179.89        2960.00           2285        1151.00      5012.19
 1179.92        2960.25           2289        1132.00      4929.34
 1179.95        2960.50           2293        1188.00      5173.53
 1179.98        2960.75           2296        1226.00      5339.24
 1180.01        2961.00           2300        1301.00      5666.31
 1180.04        2961.25           2303        1698.00      7397.68
 1180.07        2961.50           2307        5934.00     25884.15
 1180.10        2961.75           2310       13759.00     60094.76
 1180.14        2962.00           2314       26910.00    117770.60
 1180.17        2962.25           2317       37887.00    166086.10
 1180.20        2962.50           2321       52793.00    231951.10
 1180.23        2962.75           2324       63769.00    280640.70
 1180.26        2963.00           2328       79978.00    352841.50
 1180.29        2963.25           2331       92376.00    408308.40
 1180.32        2963.50           2335      107445.00    476009.90
 1180.35        2963.75           2339      122380.00    543420.80
 1180.38        2964.00           2342      133337.00    593075.60
 1180.41        2964.25           2346      149674.00    667427.60
 1180.44        2964.50           2349      161782.00    722779.10
 1180.47        2964.75           2353      176378.00    789786.30
 1180.50        2965.00           2356      185647.00    832499.50
 1180.53        2965.25           2360      198789.00    893276.70
 1180.56        2965.50           2363      208706.00    939308.90
 1180.59        2965.75           2367      224422.00   1012560.00
 1180.63        2966.00           2370      234949.00   1061834.00
 1180.66        2966.25           2374      248669.00   1126307.00
 1180.69        2966.50           2378      256514.00   1163302.00
 1180.72        2966.75           2381      258495.00   1172659.00
 1180.75        2967.00           2385      259258.00   1176265.00
 1180.78        2967.25           2388      259010.00   1175093.00
 1180.81        2967.50           2392      259135.00   1175684.00
 1180.84        2967.75           2395      258103.00   1170808.00
 1180.87        2968.00           2399      254046.00   1151654.00
 1180.90        2968.25           2402      245665.00   1112166.00
 1180.93        2968.50           2406      232180.00   1048857.00
 1180.96        2968.75           2409      220906.00    996140.00
 1180.99        2969.00           2413      207543.00    933903.00
 1181.02        2969.25           2417      194546.00    873626.40
 1181.05        2969.50           2420      183959.00    824711.50
 1181.08        2969.75           2424      167271.00    747941.70
 1181.11        2970.00           2427      155693.00    694917.00
 1181.14        2970.25           2431      139318.00    620251.90
 1181.18        2970.50           2434      128354.00    570472.80
 1181.21        2970.75           2438      113399.00    502846.60
 1181.24        2971.00           2441      101394.00    448786.40
 1181.27        2971.25           2445       86211.00    380700.70
 1181.30        2971.50           2449       69349.00    305455.90
 1181.33        2971.75           2452       57758.00    253955.80
 1181.36        2972.00           2456       42764.00    187603.50
 1181.39        2972.25           2459       31963.00    139991.70
 1181.42        2972.50           2463       18717.00     81812.26
 1181.45        2972.75           2466       10639.00     46444.69
 1181.48        2973.00           2470        3491.00     15219.73
 1181.51        2973.25           2473        1782.00      7764.04
 1181.54        2973.50           2477        1305.00      5683.75
 1181.57        2973.75           2481        1218.00      5304.36
 1181.60        2974.00           2484        1211.00      5273.83
 1181.63        2974.25           2488        1165.00      5073.24
 1181.66        2974.50           2491        1135.00      4942.42
 1181.70        2974.75           2495        1137.00      4951.14
 1181.73        2975.00           2498        1105.00      4811.60
 1181.76        2975.25           2502        1098.00      4781.07
 1181.79        2975.50           2505        1110.00      4833.40
 1181.82        2975.75           2509        1047.00      4558.68
 1181.85        2976.00           2512        1114.00      4850.84
 1181.88        2976.25           2516        1084.00      4720.03
 1181.91        2976.50           2520        1052.00      4580.49
 1181.94        2976.75           2523        1002.00      4362.46
 1181.97        2977.00           2527         970.00      4222.93
 1182.00        2977.25           2530        1012.00      4406.07
 1182.03        2977.50           2534         995.00      4331.94
 1182.06        2977.75           2537         982.00      4275.25
 1182.09        2978.00           2541         972.00      4231.65
 1182.12        2978.25           2544         977.00      4253.45
 1182.15        2978.50           2548         953.00      4148.80
 1182.18        2978.75           2552         980.00      4266.53
 1182.22        2979.00           2555         936.00      4074.67
 1182.25        2979.25           2559         928.00      4039.79
 1182.28        2979.50           2562         952.00      4144.44
 1182.31        2979.75           2566         946.00      4118.28
 1182.34        2980.00           2569         928.00      4039.79
 1182.37        2980.25           2573         906.00      3943.86
 1182.40        2980.50           2577         922.00      4013.63
 1182.43        2980.75           2580         910.00      3961.30
 1182.46        2981.00           2584         881.00      3834.85
 1182.49        2981.25           2587         878.00      3821.77
 1182.52        2981.50           2591         886.00      3856.65
 1182.55        2981.75           2594         882.00      3839.21
 1182.58        2982.00           2598         897.00      3904.62
 1182.61        2982.25           2601         894.00      3891.54
 1182.64        2982.50           2605         912.00      3970.02
 1182.67        2982.75           2609         853.00      3712.76
 1182.70        2983.00           2612         927.00      4035.43
 1182.74        2983.25           2616         835.00      3634.28
 1182.77        2983.50           2619         850.00      3699.68
 1182.80        2983.75           2623         867.00      3773.81
 1182.83        2984.00           2626         867.00      3773.81
HS scan finished at 19:43:03
end
