************************************************************
  HS Scan of (1) Internal mercury lamp
************************************************************
Integration time is 0.2294 seconds per sample
dh230319Reading 51.44 .94 3pr1000
************************************************************
Dead Time -------------------------  3.4E-08 
Number of Cycles Used -------------  4 
Starting Wavelength (Angstroms) ---  2950 
Final Wavelength (Angstoms) -------  2984 
Wavelength Increment (Angstroms) --  .25 
Filter Wheel #1 Position ---------- (1) Ground quartz diffuser (ND=2.32)
Filter Wheel #2 Position ---------- (1) Neutral Density 0.494



************************************************************
HS scan start time = 02:58:15
Dark Count =  .8 


Time (GMT)  Wavelength (Ang)  Step Number  Raw Counts  Counts/Second

  179.14        2950.00           2144        1695.00      7387.21
  179.33        2950.25           2147        1690.00      7365.40
  179.37        2950.50           2151        1674.00      7295.62
  179.40        2950.75           2155        1638.00      7138.61
  179.43        2951.00           2158        1617.00      7047.02
  179.46        2951.25           2162        1656.00      7217.12
  179.49        2951.50           2165        1669.00      7273.81
  179.52        2951.75           2169        1713.00      7465.71
  179.55        2952.00           2172        1659.00      7230.20
  179.58        2952.25           2176        1657.00      7221.48
  179.61        2952.50           2179        1685.00      7343.59
  179.64        2952.75           2183        1691.00      7369.76
  179.67        2953.00           2186        1702.00      7417.74
  179.70        2953.25           2190        1702.00      7417.74
  179.73        2953.50           2193        1716.00      7478.80
  179.76        2953.75           2197        1734.00      7557.30
  179.79        2954.00           2200        1719.00      7491.88
  179.82        2954.25           2204        1714.00      7470.07
  179.85        2954.50           2208        1747.00      7614.00
  179.89        2954.75           2211        1778.00      7749.21
  179.92        2955.00           2215        1765.00      7692.51
  179.95        2955.25           2218        1772.00      7723.04
  179.98        2955.50           2222        1786.00      7784.10
  180.01        2955.75           2225        1780.00      7757.93
  180.04        2956.00           2229        1811.00      7893.14
  180.07        2956.25           2232        1842.00      8028.35
  180.10        2956.50           2236        1793.00      7814.63
  180.13        2956.75           2239        1839.00      8015.26
  180.16        2957.00           2243        1824.00      7949.84
  180.19        2957.25           2246        1844.00      8037.07
  180.22        2957.50           2250        1897.00      8268.24
  180.25        2957.75           2254        1881.00      8198.45
  180.28        2958.00           2257        1866.00      8133.02
  180.31        2958.25           2261        1909.00      8320.57
  180.34        2958.50           2264        1921.00      8372.92
  180.37        2958.75           2268        1957.00      8529.94
  180.41        2959.00           2271        1991.00      8678.24
  180.44        2959.25           2275        2011.00      8765.47
  180.47        2959.50           2278        2020.00      8804.73
  180.50        2959.75           2282        2068.00      9014.10
  180.53        2960.00           2285        2093.00      9123.14
  180.56        2960.25           2289        2118.00      9232.19
  180.59        2960.50           2293        2149.00      9367.41
  180.62        2960.75           2296        2170.00      9459.01
  180.65        2961.00           2300        2290.00      9982.46
  180.68        2961.25           2303        2935.00     12796.32
  180.71        2961.50           2307        8130.00     35479.57
  180.74        2961.75           2310       19318.00     84449.63
  180.77        2962.00           2314       40492.00    177578.10
  180.80        2962.25           2317       57600.00    253257.70
  180.83        2962.50           2321       84162.00    371539.30
  180.86        2962.75           2324      105174.00    465789.40
  180.89        2963.00           2328      132198.00    587908.80
  180.93        2963.25           2331      150474.00    671081.00
  180.96        2963.50           2335      177058.00    792918.30
  180.99        2963.75           2339      205803.00    925821.60
  181.02        2964.00           2342      228297.00   1030681.00
  181.05        2964.25           2346      255903.00   1160421.00
  181.08        2964.50           2349      275616.00   1253785.00
  181.11        2964.75           2353      298662.00   1363710.00
  181.14        2965.00           2356      317745.00   1455373.00
  181.17        2965.25           2360      344392.00   1584358.00
  181.20        2965.50           2363      362839.00   1674337.00
  181.23        2965.75           2367      387173.00   1793906.00
  181.26        2966.00           2370      403878.00   1876573.00
  181.29        2966.25           2374      427522.00   1994407.00
  181.32        2966.50           2378      445182.00   2083061.00
  181.35        2966.75           2381      451012.00   2112450.00
  181.38        2967.00           2385      453184.00   2123414.00
  181.41        2967.25           2388      453565.00   2125339.00
  181.44        2967.50           2392      454546.00   2130295.00
  181.48        2967.75           2395      451973.00   2117300.00
  181.51        2968.00           2399      445765.00   2085997.00
  181.54        2968.25           2402      433987.00   2026797.00
  181.57        2968.50           2406      414130.00   1927545.00
  181.60        2968.75           2409      399667.00   1855689.00
  181.63        2969.00           2413      374797.00   1732969.00
  181.66        2969.25           2417      347887.00   1601362.00
  181.69        2969.50           2420      327942.00   1504594.00
  181.72        2969.75           2424      303575.00   1387253.00
  181.75        2970.00           2427      284932.00   1298119.00
  181.78        2970.25           2431      258576.00   1173045.00
  181.81        2970.50           2434      237767.00   1075056.00
  181.84        2970.75           2438      210022.00    945431.40
  181.87        2971.00           2441      188103.00    843841.10
  181.90        2971.25           2445      159931.00    714306.40
  181.93        2971.50           2449      134019.00    596174.70
  181.96        2971.75           2452      114092.00    505976.10
  182.00        2972.00           2456       86484.00    381924.80
  182.03        2972.25           2459       66995.00    294984.80
  182.06        2972.50           2463       40802.00    178945.90
  182.09        2972.75           2466       23501.00    102800.70
  182.12        2973.00           2470        7789.00     33989.57
  182.15        2973.25           2473        3475.00     15152.53
  182.18        2973.50           2477        2390.00     10418.69
  182.21        2973.75           2481        2262.00      9860.32
  182.24        2974.00           2484        2209.00      9629.13
  182.27        2974.25           2488        2143.00      9341.24
  182.30        2974.50           2491        2104.00      9171.12
  182.33        2974.75           2495        2099.00      9149.31
  182.36        2975.00           2498        2061.00      8983.56
  182.39        2975.25           2502        2017.00      8791.64
  182.42        2975.50           2505        1993.00      8686.96
  182.45        2975.75           2509        2001.00      8721.85
  182.48        2976.00           2512        1963.00      8556.11
  182.52        2976.25           2516        1924.00      8386.00
  182.55        2976.50           2520        1921.00      8372.92
  182.58        2976.75           2523        1869.00      8146.11
  182.61        2977.00           2527        1891.00      8242.07
  182.64        2977.25           2530        1849.00      8058.88
  182.67        2977.50           2534        1800.00      7845.16
  182.70        2977.75           2537        1813.00      7901.86
  182.73        2978.00           2541        1781.00      7762.29
  182.76        2978.25           2544        1773.00      7727.40
  182.79        2978.50           2548        1753.00      7640.17
  182.82        2978.75           2552        1780.00      7757.93
  182.85        2979.00           2555        1723.00      7509.33
  182.88        2979.25           2559        1695.00      7387.21
  182.91        2979.50           2562        1663.00      7247.64
  182.94        2979.75           2566        1700.00      7409.01
  182.97        2980.00           2569        1653.00      7204.03
  183.00        2980.25           2573        1692.00      7374.12
  183.04        2980.50           2577        1650.00      7190.95
  183.07        2980.75           2580        1660.00      7234.56
  183.10        2981.00           2584        1637.00      7134.25
  183.13        2981.25           2587        1628.00      7095.00
  183.16        2981.50           2591        1616.00      7042.66
  183.19        2981.75           2594        1616.00      7042.66
  183.22        2982.00           2598        1610.00      7016.49
  183.25        2982.25           2601        1632.00      7112.44
  183.28        2982.50           2605        1589.00      6924.91
  183.31        2982.75           2609        1575.00      6863.85
  183.34        2983.00           2612        1574.00      6859.49
  183.37        2983.25           2616        1599.00      6968.52
  183.40        2983.50           2619        1608.00      7007.77
  183.43        2983.75           2623        1560.00      6798.43
  183.46        2984.00           2626        1578.00      6876.94
HS scan finished at 03:03:41
end
************************************************************
  HS Scan of (1) Internal mercury lamp
************************************************************
Integration time is 0.2294 seconds per sample
dh230319Reading 51.44 .94 3.25pr1000
************************************************************
Dead Time -------------------------  3.4E-08 
Number of Cycles Used -------------  4 
Starting Wavelength (Angstroms) ---  2950 
Final Wavelength (Angstoms) -------  2984 
Wavelength Increment (Angstroms) --  .25 
Filter Wheel #1 Position ---------- (1) Ground quartz diffuser (ND=2.32)
Filter Wheel #2 Position ---------- (1) Neutral Density 0.494



************************************************************
HS scan start time = 19:07:28
Dark Count =  1.6 


Time (GMT)  Wavelength (Ang)  Step Number  Raw Counts  Counts/Second

 1148.37        2950.00           2144        1088.00      4736.60
 1148.57        2950.25           2147        1121.00      4880.50
 1148.60        2950.50           2151        1159.00      5046.20
 1148.63        2950.75           2155        1114.00      4849.97
 1148.66        2951.00           2158        1136.00      4945.91
 1148.69        2951.25           2162        1145.00      4985.15
 1148.72        2951.50           2165        1142.00      4972.07
 1148.75        2951.75           2169        1117.00      4863.05
 1148.78        2952.00           2172        1139.00      4958.99
 1148.81        2952.25           2176        1136.00      4945.91
 1148.84        2952.50           2179        1145.00      4985.15
 1148.87        2952.75           2183        1136.00      4945.91
 1148.90        2953.00           2186        1190.00      5181.38
 1148.93        2953.25           2190        1174.00      5111.61
 1148.96        2953.50           2193        1191.00      5185.74
 1149.00        2953.75           2197        1173.00      5107.25
 1149.03        2954.00           2200        1161.00      5054.92
 1149.06        2954.25           2204        1173.00      5107.25
 1149.09        2954.50           2208        1179.00      5133.42
 1149.12        2954.75           2211        1177.00      5124.69
 1149.15        2955.00           2215        1192.00      5190.11
 1149.18        2955.25           2218        1191.00      5185.74
 1149.21        2955.50           2222        1205.00      5246.80
 1149.24        2955.75           2225        1215.00      5290.40
 1149.27        2956.00           2229        1220.00      5312.21
 1149.30        2956.25           2232        1211.00      5272.96
 1149.33        2956.50           2236        1249.00      5438.67
 1149.36        2956.75           2239        1260.00      5486.64
 1149.39        2957.00           2243        1272.00      5538.97
 1149.42        2957.25           2246        1249.00      5438.67
 1149.45        2957.50           2250        1277.00      5560.77
 1149.48        2957.75           2254        1267.00      5517.16
 1149.52        2958.00           2257        1309.00      5700.32
 1149.55        2958.25           2261        1313.00      5717.76
 1149.58        2958.50           2264        1309.00      5700.32
 1149.61        2958.75           2268        1334.00      5809.34
 1149.64        2959.00           2271        1330.00      5791.90
 1149.67        2959.25           2275        1358.00      5914.01
 1149.70        2959.50           2278        1400.00      6097.17
 1149.73        2959.75           2282        1408.00      6132.05
 1149.76        2960.00           2285        1417.00      6171.30
 1149.79        2960.25           2289        1449.00      6310.86
 1149.82        2960.50           2293        1463.00      6371.91
 1149.85        2960.75           2296        1511.00      6581.25
 1149.88        2961.00           2300        1581.00      6886.53
 1149.91        2961.25           2303        1819.00      7924.54
 1149.94        2961.50           2307        4517.00     19696.71
 1149.97        2961.75           2310       11689.00     51036.18
 1150.00        2962.00           2314       25736.00    112611.70
 1150.04        2962.25           2317       38350.00    168126.60
 1150.07        2962.50           2321       55652.00    244617.20
 1150.10        2962.75           2324       70145.00    308998.30
 1150.13        2963.00           2328       91822.00    405824.40
 1150.16        2963.25           2331      107645.00    476909.60
 1150.19        2963.50           2335      127542.00    566791.90
 1150.22        2963.75           2339      145507.00    648426.00
 1150.25        2964.00           2342      160610.00    717411.30
 1150.28        2964.25           2346      181467.00    813220.80
 1150.31        2964.50           2349      198273.00    890884.70
 1150.34        2964.75           2353      217849.00    981877.80
 1150.37        2965.00           2356      231835.00   1047240.00
 1150.40        2965.25           2360      248419.00   1125129.00
 1150.43        2965.50           2363      263297.00   1195365.00
 1150.46        2965.75           2367      281855.00   1283457.00
 1150.49        2966.00           2370      296009.00   1351009.00
 1150.52        2966.25           2374      313617.00   1435491.00
 1150.55        2966.50           2378      326809.00   1499113.00
 1150.59        2966.75           2381      332471.00   1526507.00
 1150.62        2967.00           2385      334651.00   1537068.00
 1150.65        2967.25           2388      334971.00   1538619.00
 1150.68        2967.50           2392      335127.00   1539375.00
 1150.71        2967.75           2395      334465.00   1536167.00
 1150.74        2968.00           2399      333169.00   1529887.00
 1150.77        2968.25           2402      326375.00   1497015.00
 1150.80        2968.50           2406      311063.00   1423206.00
 1150.83        2968.75           2409      298437.00   1362629.00
 1150.86        2969.00           2413      281953.00   1283924.00
 1150.89        2969.25           2417      263287.00   1195318.00
 1150.92        2969.50           2420      249188.00   1128751.00
 1150.95        2969.75           2424      228986.00   1033901.00
 1150.98        2970.00           2427      213410.00    961194.20
 1151.01        2970.25           2431      193863.00    870464.90
 1151.04        2970.50           2434      179522.00    804259.40
 1151.07        2970.75           2438      160106.00    715103.80
 1151.11        2971.00           2441      145145.00    646776.50
 1151.14        2971.25           2445      125070.00    555594.80
 1151.17        2971.50           2449      102013.00    451568.00
 1151.20        2971.75           2452       85222.00    376275.80
 1151.23        2972.00           2456       64093.00    282079.50
 1151.26        2972.25           2459       49784.00    218630.50
 1151.29        2972.50           2463       31124.00    136298.90
 1151.32        2972.75           2466       19187.00     83871.79
 1151.35        2973.00           2470        6861.00     29931.93
 1151.38        2973.25           2473        3109.00     13552.01
 1151.41        2973.50           2477        1726.00      7518.92
 1151.44        2973.75           2481        1585.00      6903.97
 1151.47        2974.00           2484        1509.00      6572.52
 1151.50        2974.25           2488        1477.00      6432.97
 1151.53        2974.50           2491        1486.00      6472.22
 1151.56        2974.75           2495        1437.00      6258.52
 1151.60        2975.00           2498        1440.00      6271.61
 1151.63        2975.25           2502        1396.00      6079.72
 1151.66        2975.50           2505        1401.00      6101.53
 1151.69        2975.75           2509        1370.00      5966.34
 1151.72        2976.00           2512        1349.00      5874.76
 1151.75        2976.25           2516        1350.00      5879.12
 1151.78        2976.50           2520        1315.00      5726.49
 1151.81        2976.75           2523        1299.00      5656.71
 1151.84        2977.00           2527        1237.00      5386.34
 1151.87        2977.25           2530        1263.00      5499.72
 1151.90        2977.50           2534        1275.00      5552.05
 1151.93        2977.75           2537        1243.00      5412.50
 1151.96        2978.00           2541        1230.00      5355.81
 1151.99        2978.25           2544        1220.00      5312.21
 1152.02        2978.50           2548        1207.00      5255.52
 1152.05        2978.75           2552        1188.00      5172.66
 1152.08        2979.00           2555        1174.00      5111.61
 1152.11        2979.25           2559        1155.00      5028.76
 1152.15        2979.50           2562        1184.00      5155.22
 1152.18        2979.75           2566        1138.00      4954.63
 1152.21        2980.00           2569        1136.00      4945.91
 1152.24        2980.25           2573        1143.00      4976.43
 1152.27        2980.50           2577        1126.00      4902.30
 1152.30        2980.75           2580        1110.00      4832.53
 1152.33        2981.00           2584        1134.00      4937.18
 1152.36        2981.25           2587        1109.00      4828.17
 1152.39        2981.50           2591        1114.00      4849.97
 1152.42        2981.75           2594        1109.00      4828.17
 1152.45        2982.00           2598        1140.00      4963.35
 1152.48        2982.25           2601        1123.00      4889.22
 1152.51        2982.50           2605        1071.00      4662.47
 1152.54        2982.75           2609        1107.00      4819.45
 1152.57        2983.00           2612        1068.00      4649.38
 1152.60        2983.25           2616        1113.00      4845.61
 1152.63        2983.50           2619        1072.00      4666.83
 1152.67        2983.75           2623        1082.00      4710.43
 1152.70        2984.00           2626        1068.00      4649.38
HS scan finished at 19:12:55
end
