************************************************************
  HS Scan of 
************************************************************
Integration time is 0.2294 seconds per sample
dh300317Reading 51.44 .94 3.07pr1000
************************************************************
Dead Time -------------------------  3.4E-08 
Number of Cycles Used -------------  4 
Starting Wavelength (Angstroms) ---  2950 
Final Wavelength (Angstoms) -------  2984 
Wavelength Increment (Angstroms) --  .25 
Filter Wheel #1 Position ---------- (1) Ground quartz diffuser (ND=2.32)
Filter Wheel #2 Position ---------- (1) Neutral Density 0.494



************************************************************
HS scan start time = 02:26:48
Dark Count =  1.1 


Time (GMT)  Wavelength (Ang)  Step Number  Raw Counts  Counts/Second

  147.69        2950.00           2144         805.00      3504.78
  147.89        2950.25           2147         828.00      3605.06
  147.92        2950.50           2151         842.00      3666.11
  147.95        2950.75           2155         799.00      3478.62
  147.98        2951.00           2158         806.00      3509.14
  148.01        2951.25           2162         810.00      3526.58
  148.04        2951.50           2165         824.00      3587.62
  148.07        2951.75           2169         831.00      3618.14
  148.10        2952.00           2172         866.00      3770.75
  148.13        2952.25           2176         844.00      3674.83
  148.16        2952.50           2179         849.00      3696.63
  148.19        2952.75           2183         874.00      3805.64
  148.22        2953.00           2186         828.00      3605.06
  148.25        2953.25           2190         859.00      3740.23
  148.28        2953.50           2193         865.00      3766.39
  148.31        2953.75           2197         866.00      3770.75
  148.34        2954.00           2200         900.00      3919.01
  148.37        2954.25           2204         865.00      3766.39
  148.40        2954.50           2208         879.00      3827.44
  148.44        2954.75           2211         890.00      3875.40
  148.47        2955.00           2215         908.00      3953.89
  148.50        2955.25           2218         891.00      3879.76
  148.53        2955.50           2222         921.00      4010.57
  148.56        2955.75           2225         889.00      3871.04
  148.59        2956.00           2229         916.00      3988.77
  148.62        2956.25           2232         950.00      4137.03
  148.65        2956.50           2236         898.00      3910.28
  148.68        2956.75           2239         949.00      4132.66
  148.71        2957.00           2243         962.00      4189.35
  148.74        2957.25           2246         954.00      4154.47
  148.77        2957.50           2250         945.00      4115.22
  148.80        2957.75           2254         975.00      4246.04
  148.83        2958.00           2257         954.00      4154.47
  148.86        2958.25           2261         993.00      4324.52
  148.89        2958.50           2264         972.00      4232.95
  148.92        2958.75           2268         990.00      4311.44
  148.96        2959.00           2271        1015.00      4420.46
  148.99        2959.25           2275        1029.00      4481.50
  149.02        2959.50           2278        1021.00      4446.62
  149.05        2959.75           2282        1066.00      4642.84
  149.08        2960.00           2285        1114.00      4852.15
  149.11        2960.25           2289        1107.00      4821.63
  149.14        2960.50           2293        1135.00      4943.73
  149.17        2960.75           2296        1172.00      5105.07
  149.20        2961.00           2300        1241.00      5405.96
  149.23        2961.25           2303        1531.00      6670.65
  149.26        2961.50           2307        4692.00     20462.79
  149.29        2961.75           2310       11411.00     49822.34
  149.32        2962.00           2314       24605.00    107646.50
  149.35        2962.25           2317       35507.00    155598.20
  149.38        2962.50           2321       49681.00    218177.00
  149.41        2962.75           2324       59852.00    263247.60
  149.44        2963.00           2328       74318.00    327590.50
  149.48        2963.25           2331       85790.00    378818.60
  149.51        2963.50           2335      102546.00    453966.70
  149.54        2963.75           2339      118045.00    523823.40
  149.57        2964.00           2342      129708.00    576612.40
  149.60        2964.25           2346      145647.00    649066.30
  149.63        2964.50           2349      156954.00    700684.10
  149.66        2964.75           2353      172926.00    773912.30
  149.69        2965.00           2356      183498.00    822586.80
  149.72        2965.25           2360      197011.00    885040.60
  149.75        2965.50           2363      207887.00    935503.20
  149.78        2965.75           2367      222522.00   1003686.00
  149.81        2966.00           2370      232365.00   1049725.00
  149.84        2966.25           2374      245721.00   1112431.00
  149.87        2966.50           2378      256922.00   1165231.00
  149.90        2966.75           2381      260611.00   1182662.00
  149.93        2967.00           2385      262410.00   1191171.00
  149.96        2967.25           2388      262492.00   1191559.00
  150.00        2967.50           2392      262363.00   1190948.00
  150.03        2967.75           2395      261690.00   1187765.00
  150.06        2968.00           2399      259107.00   1175553.00
  150.09        2968.25           2402      252902.00   1146259.00
  150.12        2968.50           2406      240081.00   1085918.00
  150.15        2968.75           2409      229364.00   1035673.00
  150.18        2969.00           2413      213922.00    963580.60
  150.21        2969.25           2417      198578.00    892300.30
  150.24        2969.50           2420      187213.00    839729.70
  150.27        2969.75           2424      170916.00    764676.50
  150.30        2970.00           2427      158592.00    708177.00
  150.33        2970.25           2431      142702.00    635651.90
  150.36        2970.50           2434      133026.00    591665.30
  150.39        2970.75           2438      116806.00    518226.80
  150.42        2971.00           2441      105231.00    466044.50
  150.45        2971.25           2445       89598.00    395863.00
  150.48        2971.50           2449       74447.00    328165.60
  150.52        2971.75           2452       63185.00    278047.30
  150.55        2972.00           2456       47398.00    208079.40
  150.58        2972.25           2459       34868.00    152783.30
  150.61        2972.50           2463       19429.00     84934.99
  150.64        2972.75           2466       10392.00     45365.92
  150.67        2973.00           2470        3547.00     15465.41
  150.70        2973.25           2473        1739.00      7577.80
  150.73        2973.50           2477        1290.00      5619.64
  150.76        2973.75           2481        1212.00      5279.50
  150.79        2974.00           2484        1167.00      5083.27
  150.82        2974.25           2488        1144.00      4982.97
  150.85        2974.50           2491        1119.00      4873.96
  150.88        2974.75           2495        1089.00      4743.14
  150.91        2975.00           2498        1091.00      4751.86
  150.94        2975.25           2502        1045.00      4551.27
  150.97        2975.50           2505        1046.00      4555.63
  151.00        2975.75           2509        1053.00      4586.16
  151.04        2976.00           2512        1034.00      4503.30
  151.07        2976.25           2516        1005.00      4376.85
  151.10        2976.50           2520         981.00      4272.20
  151.13        2976.75           2523        1000.00      4355.05
  151.16        2977.00           2527         988.00      4302.72
  151.19        2977.25           2530         956.00      4163.19
  151.22        2977.50           2534         948.00      4128.30
  151.25        2977.75           2537         948.00      4128.30
  151.28        2978.00           2541         918.00      3997.49
  151.31        2978.25           2544         931.00      4054.18
  151.34        2978.50           2548         911.00      3966.97
  151.37        2978.75           2552         922.00      4014.93
  151.40        2979.00           2555         906.00      3945.17
  151.43        2979.25           2559         910.00      3962.61
  151.46        2979.50           2562         895.00      3897.20
  151.49        2979.75           2566         864.00      3762.03
  151.52        2980.00           2569         865.00      3766.39
  151.55        2980.25           2573         862.00      3753.31
  151.59        2980.50           2577         892.00      3884.12
  151.62        2980.75           2580         864.00      3762.03
  151.65        2981.00           2584         871.00      3792.56
  151.68        2981.25           2587         819.00      3565.82
  151.71        2981.50           2591         835.00      3635.58
  151.74        2981.75           2594         843.00      3670.47
  151.77        2982.00           2598         842.00      3666.11
  151.80        2982.25           2601         827.00      3600.70
  151.83        2982.50           2605         805.00      3504.78
  151.86        2982.75           2609         822.00      3578.90
  151.89        2983.00           2612         840.00      3657.39
  151.92        2983.25           2616         811.00      3530.94
  151.95        2983.50           2619         813.00      3539.66
  151.98        2983.75           2623         817.00      3557.10
  152.01        2984.00           2626         827.00      3600.70
HS scan finished at 02:32:14
end
************************************************************
  HS Scan of 
************************************************************
Integration time is 0.2294 seconds per sample
dh300317Reading 51.44 .94 3.54pr1000
************************************************************
Dead Time -------------------------  3.4E-08 
Number of Cycles Used -------------  4 
Starting Wavelength (Angstroms) ---  2950 
Final Wavelength (Angstoms) -------  2984 
Wavelength Increment (Angstroms) --  .25 
Filter Wheel #1 Position ---------- (1) Ground quartz diffuser (ND=2.32)
Filter Wheel #2 Position ---------- (1) Neutral Density 0.494



************************************************************
HS scan start time = 19:37:30
Dark Count =  2.9 


Time (GMT)  Wavelength (Ang)  Step Number  Raw Counts  Counts/Second

 1178.40        2950.00           2144         722.00      3135.03
 1178.60        2950.25           2147         718.00      3117.59
 1178.63        2950.50           2151         730.00      3169.91
 1178.66        2950.75           2155         721.00      3130.67
 1178.69        2951.00           2158         737.00      3200.44
 1178.72        2951.25           2162         755.00      3278.92
 1178.75        2951.50           2165         748.00      3248.40
 1178.78        2951.75           2169         745.00      3235.32
 1178.81        2952.00           2172         740.00      3213.52
 1178.84        2952.25           2176         764.00      3318.16
 1178.87        2952.50           2179         754.00      3274.56
 1178.90        2952.75           2183         793.00      3444.61
 1178.93        2953.00           2186         774.00      3361.76
 1178.96        2953.25           2190         797.00      3462.05
 1178.99        2953.50           2193         807.00      3505.65
 1179.03        2953.75           2197         774.00      3361.76
 1179.06        2954.00           2200         793.00      3444.61
 1179.09        2954.25           2204         794.00      3448.97
 1179.12        2954.50           2208         799.00      3470.77
 1179.15        2954.75           2211         782.00      3396.64
 1179.18        2955.00           2215         790.00      3431.53
 1179.21        2955.25           2218         813.00      3531.81
 1179.24        2955.50           2222         808.00      3510.01
 1179.27        2955.75           2225         808.00      3510.01
 1179.30        2956.00           2229         810.00      3518.73
 1179.33        2956.25           2232         846.00      3675.70
 1179.36        2956.50           2236         825.00      3584.13
 1179.39        2956.75           2239         846.00      3675.70
 1179.42        2957.00           2243         823.00      3575.41
 1179.45        2957.25           2246         861.00      3741.10
 1179.48        2957.50           2250         868.00      3771.63
 1179.51        2957.75           2254         861.00      3741.10
 1179.55        2958.00           2257         876.00      3806.51
 1179.58        2958.25           2261         921.00      4002.72
 1179.61        2958.50           2264         933.00      4055.05
 1179.64        2958.75           2268         917.00      3985.28
 1179.67        2959.00           2271         940.00      4085.57
 1179.70        2959.25           2275         932.00      4050.69
 1179.73        2959.50           2278         930.00      4041.97
 1179.76        2959.75           2282         950.00      4129.18
 1179.79        2960.00           2285         969.00      4212.02
 1179.82        2960.25           2289        1052.00      4573.95
 1179.85        2960.50           2293        1020.00      4434.41
 1179.88        2960.75           2296        1063.00      4621.91
 1179.91        2961.00           2300        1141.00      4962.04
 1179.94        2961.25           2303        1580.00      6876.50
 1179.97        2961.50           2307        4785.00     20860.91
 1180.00        2961.75           2310       12066.00     52679.71
 1180.03        2962.00           2314       26027.00    113884.30
 1180.07        2962.25           2317       37564.00    164655.50
 1180.10        2962.50           2321       52417.00    230279.40
 1180.13        2962.75           2324       63623.00    279985.30
 1180.16        2963.00           2328       77672.00    342541.20
 1180.19        2963.25           2331       89110.00    393669.60
 1180.22        2963.50           2335      105356.00    466598.90
 1180.25        2963.75           2339      122091.00    542106.60
 1180.28        2964.00           2342      133901.00    595629.30
 1180.31        2964.25           2346      148805.00    663456.10
 1180.34        2964.50           2349      160191.00    715487.00
 1180.37        2964.75           2353      174795.00    782497.10
 1180.40        2965.00           2356      185479.00    831717.20
 1180.43        2965.25           2360      199574.00    896908.20
 1180.46        2965.50           2363      211379.00    951734.40
 1180.49        2965.75           2367      224653.00   1013632.00
 1180.52        2966.00           2370      235065.00   1062371.00
 1180.55        2966.25           2374      248537.00   1125679.00
 1180.58        2966.50           2378      256120.00   1161435.00
 1180.62        2966.75           2381      258623.00   1173257.00
 1180.65        2967.00           2385      259441.00   1177123.00
 1180.68        2967.25           2388      259233.00   1176140.00
 1180.72        2967.50           2392      258899.00   1174561.00
 1180.75        2967.75           2395      257794.00   1169341.00
 1180.78        2968.00           2399      253263.00   1147953.00
 1180.81        2968.25           2402      245934.00   1113425.00
 1180.84        2968.50           2406      233397.00   1054552.00
 1180.87        2968.75           2409      222434.00   1003267.00
 1180.90        2969.00           2413      207879.00    935457.70
 1180.93        2969.25           2417      193814.00    870232.10
 1180.96        2969.50           2420      183541.00    822776.60
 1181.00        2969.75           2424      168917.00    755488.80
 1181.03        2970.00           2427      157280.00    702166.80
 1181.06        2970.25           2431      142640.00    635361.50
 1181.09        2970.50           2434      131225.00    583484.50
 1181.12        2970.75           2438      114341.00    507090.30
 1181.15        2971.00           2441      102585.00    454133.90
 1181.18        2971.25           2445       87091.00    384631.50
 1181.21        2971.50           2449       72292.00    318554.10
 1181.24        2971.75           2452       61490.00    270511.00
 1181.27        2972.00           2456       46769.00    205290.60
 1181.30        2972.25           2459       36463.00    159802.70
 1181.33        2972.50           2463       22596.00     98819.26
 1181.37        2972.75           2466       12835.00     56044.36
 1181.40        2973.00           2470        4128.00     17993.13
 1181.43        2973.25           2473        1764.00      7678.99
 1181.46        2973.50           2477        1180.00      5132.11
 1181.49        2973.75           2481        1097.00      4770.17
 1181.52        2974.00           2484        1069.00      4648.08
 1181.55        2974.25           2488        1073.00      4665.52
 1181.58        2974.50           2491        1053.00      4578.31
 1181.61        2974.75           2495        1025.00      4456.21
 1181.64        2975.00           2498         990.00      4303.59
 1181.67        2975.25           2502         967.00      4203.30
 1181.70        2975.50           2505         963.00      4185.86
 1181.73        2975.75           2509         934.00      4059.41
 1181.76        2976.00           2512         966.00      4198.94
 1181.79        2976.25           2516         938.00      4076.85
 1181.82        2976.50           2520         904.00      3928.60
 1181.85        2976.75           2523         920.00      3998.36
 1181.89        2977.00           2527         909.00      3950.40
 1181.92        2977.25           2530         904.00      3928.60
 1181.95        2977.50           2534         872.00      3789.07
 1181.98        2977.75           2537         857.00      3723.66
 1182.01        2978.00           2541         857.00      3723.66
 1182.04        2978.25           2544         866.00      3762.90
 1182.07        2978.50           2548         854.00      3710.58
 1182.10        2978.75           2552         833.00      3619.02
 1182.13        2979.00           2555         836.00      3632.10
 1182.16        2979.25           2559         810.00      3518.73
 1182.19        2979.50           2562         824.00      3579.77
 1182.22        2979.75           2566         818.00      3553.61
 1182.25        2980.00           2569         801.00      3479.49
 1182.28        2980.25           2573         818.00      3553.61
 1182.31        2980.50           2577         775.00      3366.12
 1182.34        2980.75           2580         781.00      3392.28
 1182.37        2981.00           2584         782.00      3396.64
 1182.40        2981.25           2587         765.00      3322.52
 1182.44        2981.50           2591         797.00      3462.05
 1182.47        2981.75           2594         767.00      3331.24
 1182.50        2982.00           2598         788.00      3422.80
 1182.53        2982.25           2601         767.00      3331.24
 1182.56        2982.50           2605         776.00      3370.48
 1182.59        2982.75           2609         777.00      3374.84
 1182.62        2983.00           2612         728.00      3161.19
 1182.65        2983.25           2616         755.00      3278.92
 1182.68        2983.50           2619         753.00      3270.20
 1182.71        2983.75           2623         738.00      3204.80
 1182.74        2984.00           2626         720.00      3126.31
HS scan finished at 19:42:58
end
