************************************************************
  HS Scan of (1) Internal mercury lamp
************************************************************
Integration time is 0.2294 seconds per sample
dh220319Reading 51.44 .94 3.17pr1000
************************************************************
Dead Time -------------------------  3.4E-08 
Number of Cycles Used -------------  4 
Starting Wavelength (Angstroms) ---  2950 
Final Wavelength (Angstoms) -------  2984 
Wavelength Increment (Angstroms) --  .25 
Filter Wheel #1 Position ---------- (1) Ground quartz diffuser (ND=2.32)
Filter Wheel #2 Position ---------- (1) Neutral Density 0.494



************************************************************
HS scan start time = 03:01:59
Dark Count =  1.3 


Time (GMT)  Wavelength (Ang)  Step Number  Raw Counts  Counts/Second

  182.89        2950.00           2144        1577.00      6870.39
  183.08        2950.25           2147        1570.00      6839.86
  183.11        2950.50           2151        1586.00      6909.64
  183.14        2950.75           2155        1538.00      6700.31
  183.17        2951.00           2158        1570.00      6839.86
  183.20        2951.25           2162        1595.00      6948.90
  183.23        2951.50           2165        1571.00      6844.23
  183.26        2951.75           2169        1627.00      7088.46
  183.29        2952.00           2172        1603.00      6983.79
  183.32        2952.25           2176        1612.00      7023.04
  183.35        2952.50           2179        1626.00      7084.09
  183.38        2952.75           2183        1639.00      7140.79
  183.41        2953.00           2186        1627.00      7088.46
  183.45        2953.25           2190        1683.00      7332.69
  183.48        2953.50           2193        1674.00      7293.44
  183.51        2953.75           2197        1660.00      7232.38
  183.54        2954.00           2200        1681.00      7323.97
  183.57        2954.25           2204        1699.00      7402.47
  183.60        2954.50           2208        1697.00      7393.75
  183.63        2954.75           2211        1710.00      7450.45
  183.66        2955.00           2215        1726.00      7520.23
  183.69        2955.25           2218        1695.00      7385.03
  183.72        2955.50           2222        1716.00      7476.62
  183.75        2955.75           2225        1706.00      7433.00
  183.78        2956.00           2229        1763.00      7681.61
  183.81        2956.25           2232        1760.00      7668.52
  183.84        2956.50           2236        1768.00      7703.41
  183.87        2956.75           2239        1822.00      7938.93
  183.90        2957.00           2243        1787.00      7786.28
  183.93        2957.25           2246        1824.00      7947.66
  183.97        2957.50           2250        1825.00      7952.02
  184.00        2957.75           2254        1841.00      8021.80
  184.03        2958.00           2257        1867.00      8135.21
  184.06        2958.25           2261        1903.00      8292.22
  184.09        2958.50           2264        1911.00      8327.12
  184.12        2958.75           2268        1922.00      8375.10
  184.15        2959.00           2271        1946.00      8479.78
  184.18        2959.25           2275        2017.00      8789.46
  184.21        2959.50           2278        2019.00      8798.19
  184.24        2959.75           2282        1999.00      8710.95
  184.27        2960.00           2285        2065.00      8998.83
  184.30        2960.25           2289        2085.00      9086.07
  184.33        2960.50           2293        2143.00      9339.06
  184.36        2960.75           2296        2194.00      9561.52
  184.39        2961.00           2300        2340.00     10198.39
  184.42        2961.25           2303        2909.00     12680.71
  184.45        2961.50           2307        7733.00     33742.70
  184.49        2961.75           2310       18242.00     79730.66
  184.52        2962.00           2314       40226.00    176402.30
  184.55        2962.25           2317       58727.00    258254.70
  184.58        2962.50           2321       86125.00    380316.40
  184.61        2962.75           2324      107042.00    474195.70
  184.64        2963.00           2328      133790.00    595132.60
  184.67        2963.25           2331      153512.00    684950.60
  184.70        2963.50           2335      182889.00    819777.40
  184.73        2963.75           2339      211578.00    952667.90
  184.76        2964.00           2342      233811.00   1056500.00
  184.79        2964.25           2346      260435.00   1181829.00
  184.82        2964.50           2349      282062.00   1284444.00
  184.85        2964.75           2353      309293.00   1414700.00
  184.88        2965.00           2356      328578.00   1507668.00
  184.91        2965.25           2360      353801.00   1630179.00
  184.94        2965.50           2363      376012.00   1738937.00
  184.97        2965.75           2367      402476.00   1869614.00
  185.01        2966.00           2370      420426.00   1958937.00
  185.04        2966.25           2374      442018.00   2067134.00
  185.07        2966.50           2378      457952.00   2147511.00
  185.10        2966.75           2381      462744.00   2171774.00
  185.13        2967.00           2385      464558.00   2180969.00
  185.16        2967.25           2388      465312.00   2184793.00
  185.19        2967.50           2392      465978.00   2188171.00
  185.22        2967.75           2395      464581.00   2181086.00
  185.25        2968.00           2399      459587.00   2155785.00
  185.28        2968.25           2402      446195.00   2088160.00
  185.31        2968.50           2406      426533.00   1989455.00
  185.34        2968.75           2409      409821.00   1906096.00
  185.37        2969.00           2413      388283.00   1799381.00
  185.40        2969.25           2417      362649.00   1673405.00
  185.43        2969.50           2420      342105.00   1573239.00
  185.46        2969.75           2424      314064.00   1437644.00
  185.49        2970.00           2427      294282.00   1342751.00
  185.53        2970.25           2431      267308.00   1214361.00
  185.56        2970.50           2434      248545.00   1125724.00
  185.59        2970.75           2438      219615.00    990116.10
  185.62        2971.00           2441      195873.00    879769.70
  185.65        2971.25           2445      165962.00    741937.50
  185.68        2971.50           2449      138818.00    617978.60
  185.71        2971.75           2452      117773.00    522593.70
  185.74        2972.00           2456       91348.00    403701.70
  185.77        2972.25           2459       70890.00    312316.80
  185.80        2972.50           2463       43959.00    192881.10
  185.83        2972.75           2466       25261.00    110526.60
  185.86        2973.00           2470        8282.00     36141.60
  185.89        2973.25           2473        3831.00     16703.90
  185.92        2973.50           2477        2453.00     10691.33
  185.95        2973.75           2481        2245.00      9783.99
  185.98        2974.00           2484        2133.00      9295.44
  186.01        2974.25           2488        2128.00      9273.63
  186.04        2974.50           2491        2064.00      8994.47
  186.08        2974.75           2495        2061.00      8981.38
  186.11        2975.00           2498        2057.00      8963.93
  186.14        2975.25           2502        1974.00      8601.91
  186.17        2975.50           2505        1955.00      8519.03
  186.20        2975.75           2509        1932.00      8418.71
  186.23        2976.00           2512        1919.00      8362.01
  186.26        2976.25           2516        1914.00      8340.20
  186.29        2976.50           2520        1893.00      8248.61
  186.32        2976.75           2523        1820.00      7930.21
  186.35        2977.00           2527        1769.00      7707.77
  186.38        2977.25           2530        1795.00      7821.17
  186.41        2977.50           2534        1782.00      7764.47
  186.44        2977.75           2537        1800.00      7842.98
  186.47        2978.00           2541        1752.00      7633.63
  186.50        2978.25           2544        1742.00      7590.01
  186.53        2978.50           2548        1721.00      7498.42
  186.57        2978.75           2552        1670.00      7275.99
  186.60        2979.00           2555        1703.00      7419.92
  186.63        2979.25           2559        1622.00      7066.65
  186.66        2979.50           2562        1674.00      7293.44
  186.69        2979.75           2566        1677.00      7306.52
  186.72        2980.00           2569        1649.00      7184.41
  186.76        2980.25           2573        1630.00      7101.54
  186.79        2980.50           2577        1644.00      7162.60
  186.82        2980.75           2580        1586.00      6909.64
  186.85        2981.00           2584        1606.00      6996.87
  186.88        2981.25           2587        1604.00      6988.15
  186.91        2981.50           2591        1610.00      7014.31
  186.94        2981.75           2594        1597.00      6957.62
  186.97        2982.00           2598        1564.00      6813.70
  187.00        2982.25           2601        1581.00      6887.84
  187.03        2982.50           2605        1581.00      6887.84
  187.06        2982.75           2609        1520.00      6621.80
  187.09        2983.00           2612        1566.00      6822.42
  187.12        2983.25           2616        1526.00      6647.97
  187.15        2983.50           2619        1558.00      6787.53
  187.18        2983.75           2623        1528.00      6656.69
  187.21        2984.00           2626        1537.00      6695.95
HS scan finished at 03:07:26
end
************************************************************
  HS Scan of (1) Internal mercury lamp
************************************************************
Integration time is 0.2294 seconds per sample
dh220319Reading 51.44 .94 3.19pr1000
************************************************************
Dead Time -------------------------  3.4E-08 
Number of Cycles Used -------------  4 
Starting Wavelength (Angstroms) ---  2950 
Final Wavelength (Angstoms) -------  2984 
Wavelength Increment (Angstroms) --  .25 
Filter Wheel #1 Position ---------- (1) Ground quartz diffuser (ND=2.32)
Filter Wheel #2 Position ---------- (1) Neutral Density 0.494



************************************************************
HS scan start time = 19:07:28
Dark Count =  1.5 


Time (GMT)  Wavelength (Ang)  Step Number  Raw Counts  Counts/Second

 1148.37        2950.00           2144        1437.00      6258.96
 1148.56        2950.25           2147        1466.00      6385.43
 1148.59        2950.50           2151        1472.00      6411.60
 1148.62        2950.75           2155        1443.00      6285.13
 1148.65        2951.00           2158        1441.00      6276.40
 1148.68        2951.25           2162        1457.00      6346.18
 1148.71        2951.50           2165        1488.00      6481.38
 1148.74        2951.75           2169        1445.00      6293.85
 1148.77        2952.00           2172        1457.00      6346.18
 1148.80        2952.25           2176        1478.00      6437.76
 1148.84        2952.50           2179        1485.00      6468.29
 1148.87        2952.75           2183        1467.00      6389.79
 1148.90        2953.00           2186        1555.00      6773.57
 1148.93        2953.25           2190        1478.00      6437.76
 1148.96        2953.50           2193        1505.00      6555.52
 1148.99        2953.75           2197        1534.00      6681.99
 1149.02        2954.00           2200        1535.00      6686.35
 1149.05        2954.25           2204        1573.00      6852.08
 1149.08        2954.50           2208        1536.00      6690.71
 1149.11        2954.75           2211        1566.00      6821.55
 1149.14        2955.00           2215        1549.00      6747.41
 1149.17        2955.25           2218        1582.00      6891.33
 1149.20        2955.50           2222        1547.00      6738.68
 1149.23        2955.75           2225        1595.00      6948.02
 1149.26        2956.00           2229        1535.00      6686.35
 1149.29        2956.25           2232        1607.00      7000.36
 1149.32        2956.50           2236        1578.00      6873.88
 1149.35        2956.75           2239        1580.00      6882.60
 1149.39        2957.00           2243        1577.00      6869.52
 1149.42        2957.25           2246        1645.00      7166.09
 1149.45        2957.50           2250        1638.00      7135.56
 1149.48        2957.75           2254        1664.00      7248.95
 1149.51        2958.00           2257        1692.00      7371.07
 1149.54        2958.25           2261        1688.00      7353.63
 1149.57        2958.50           2264        1717.00      7480.11
 1149.60        2958.75           2268        1742.00      7589.14
 1149.63        2959.00           2271        1746.00      7606.59
 1149.66        2959.25           2275        1834.00      7990.40
 1149.69        2959.50           2278        1820.00      7929.34
 1149.72        2959.75           2282        1799.00      7837.75
 1149.75        2960.00           2285        1829.00      7968.59
 1149.78        2960.25           2289        1875.00      8169.23
 1149.81        2960.50           2293        1927.00      8396.03
 1149.84        2960.75           2296        1963.00      8553.06
 1149.88        2961.00           2300        2059.00      8971.79
 1149.91        2961.25           2303        2429.00     10585.76
 1149.94        2961.50           2307        5513.00     24045.37
 1149.97        2961.75           2310       13241.00     57827.19
 1150.00        2962.00           2314       31084.00    136123.30
 1150.03        2962.25           2317       48032.00    210881.10
 1150.06        2962.50           2321       72214.00    318212.90
 1150.09        2962.75           2324       90277.00    398902.50
 1150.12        2963.00           2328      116500.00    516843.00
 1150.15        2963.25           2331      136023.00    605273.50
 1150.18        2963.50           2335      159574.00    712669.10
 1150.21        2963.75           2339      182056.00    815936.10
 1150.24        2964.00           2342      201789.00    907186.10
 1150.27        2964.25           2346      227892.00   1028783.00
 1150.30        2964.50           2349      247997.00   1123142.00
 1150.33        2964.75           2353      272980.00   1241262.00
 1150.36        2965.00           2356      289456.00   1319695.00
 1150.40        2965.25           2360      312187.00   1428612.00
 1150.43        2965.50           2363      330544.00   1517178.00
 1150.46        2965.75           2367      355319.00   1637585.00
 1150.49        2966.00           2370      371718.00   1717846.00
 1150.52        2966.25           2374      392015.00   1817814.00
 1150.55        2966.50           2378      408406.00   1899060.00
 1150.58        2966.75           2381      415333.00   1933535.00
 1150.61        2967.00           2385      413868.00   1926237.00
 1150.64        2967.25           2388      418287.00   1948263.00
 1150.67        2967.50           2392      418209.00   1947873.00
 1150.70        2967.75           2395      417946.00   1946562.00
 1150.73        2968.00           2399      414356.00   1928668.00
 1150.76        2968.25           2402      406609.00   1890130.00
 1150.79        2968.50           2406      387628.00   1796148.00
 1150.82        2968.75           2409      373566.00   1726919.00
 1150.85        2969.00           2413      353234.00   1627412.00
 1150.88        2969.25           2417      330183.00   1515431.00
 1150.92        2969.50           2420      311315.00   1424418.00
 1150.95        2969.75           2424      287361.00   1309698.00
 1150.98        2970.00           2427      268564.00   1220313.00
 1151.01        2970.25           2431      245102.00   1109517.00
 1151.04        2970.50           2434      227888.00   1028765.00
 1151.07        2970.75           2438      203190.00    913686.60
 1151.10        2971.00           2441      181646.00    814046.30
 1151.13        2971.25           2445      155345.00    693325.70
 1151.16        2971.50           2449      128702.00    572049.60
 1151.19        2971.75           2452      109868.00    486924.70
 1151.22        2972.00           2456       85823.00    378964.50
 1151.25        2972.25           2459       67325.00    296449.50
 1151.28        2972.50           2463       42469.00    186300.60
 1151.31        2972.75           2466       26595.00    116386.00
 1151.34        2973.00           2470        9775.00     42666.48
 1151.37        2973.25           2473        3971.00     17314.03
 1151.40        2973.50           2477        2205.00      9608.63
 1151.44        2973.75           2481        1959.00      8535.61
 1151.47        2974.00           2484        2003.00      8727.52
 1151.50        2974.25           2488        1938.00      8444.01
 1151.53        2974.50           2491        1896.00      8260.82
 1151.56        2974.75           2495        1871.00      8151.78
 1151.59        2975.00           2498        1858.00      8095.08
 1151.62        2975.25           2502        1767.00      7698.18
 1151.65        2975.50           2505        1779.00      7750.52
 1151.68        2975.75           2509        1723.00      7506.27
 1151.71        2976.00           2512        1727.00      7523.72
 1151.74        2976.25           2516        1679.00      7314.37
 1151.77        2976.50           2520        1676.00      7301.29
 1151.80        2976.75           2523        1685.00      7340.54
 1151.83        2977.00           2527        1641.00      7148.64
 1151.86        2977.25           2530        1583.00      6895.69
 1151.91        2977.50           2534        1619.00      7052.69
 1151.94        2977.75           2537        1560.00      6795.38
 1151.97        2978.00           2541        1594.00      6943.66
 1152.00        2978.25           2544        1626.00      7083.22
 1152.03        2978.50           2548        1591.00      6930.58
 1152.06        2978.75           2552        1544.00      6725.60
 1152.09        2979.00           2555        1578.00      6873.88
 1152.12        2979.25           2559        1546.00      6734.32
 1152.15        2979.50           2562        1472.00      6411.60
 1152.18        2979.75           2566        1477.00      6433.40
 1152.21        2980.00           2569        1497.00      6520.63
 1152.25        2980.25           2573        1463.00      6372.35
 1152.28        2980.50           2577        1491.00      6494.46
 1152.31        2980.75           2580        1489.00      6485.74
 1152.34        2981.00           2584        1484.00      6463.93
 1152.37        2981.25           2587        1398.00      6088.88
 1152.40        2981.50           2591        1414.00      6158.66
 1152.43        2981.75           2594        1432.00      6237.16
 1152.46        2982.00           2598        1401.00      6101.96
 1152.49        2982.25           2601        1443.00      6285.13
 1152.52        2982.50           2605        1430.00      6228.43
 1152.55        2982.75           2609        1421.00      6189.18
 1152.58        2983.00           2612        1435.00      6250.24
 1152.61        2983.25           2616        1397.00      6084.52
 1152.64        2983.50           2619        1383.00      6023.47
 1152.67        2983.75           2623        1384.00      6027.83
 1152.70        2984.00           2626        1394.00      6071.44
HS scan finished at 19:12:56
end
