************************************************************
  HS Scan of (1) Internal mercury lamp
************************************************************
Integration time is 0.2294 seconds per sample
dh290319Reading 51.44 .94 2.76pr1000
************************************************************
Dead Time -------------------------  3.4E-08 
Number of Cycles Used -------------  4 
Starting Wavelength (Angstroms) ---  2950 
Final Wavelength (Angstoms) -------  2984 
Wavelength Increment (Angstroms) --  .25 
Filter Wheel #1 Position ---------- (1) Ground quartz diffuser (ND=2.32)
Filter Wheel #2 Position ---------- (1) Neutral Density 0.494



************************************************************
HS scan start time = 02:33:36
Dark Count =  .3 


Time (GMT)  Wavelength (Ang)  Step Number  Raw Counts  Counts/Second

  154.50        2950.00           2144        1728.00      7533.32
  154.69        2950.25           2147        1706.00      7437.36
  154.72        2950.50           2151        1725.00      7520.23
  154.75        2950.75           2155        1755.00      7651.07
  154.78        2951.00           2158        1741.00      7590.01
  154.81        2951.25           2162        1750.00      7629.27
  154.84        2951.50           2165        1740.00      7585.65
  154.87        2951.75           2169        1734.00      7559.48
  154.90        2952.00           2172        1754.00      7646.71
  154.94        2952.25           2176        1766.00      7699.05
  154.97        2952.50           2179        1773.00      7729.58
  155.00        2952.75           2183        1804.00      7864.79
  155.03        2953.00           2186        1821.00      7938.93
  155.06        2953.25           2190        1754.00      7646.71
  155.09        2953.50           2193        1800.00      7847.34
  155.12        2953.75           2197        1789.00      7799.37
  155.15        2954.00           2200        1790.00      7803.73
  155.18        2954.25           2204        1819.00      7930.21
  155.21        2954.50           2208        1784.00      7777.56
  155.24        2954.75           2211        1819.00      7930.21
  155.27        2955.00           2215        1809.00      7886.60
  155.30        2955.25           2218        1839.00      8017.44
  155.33        2955.50           2222        1828.00      7969.47
  155.36        2955.75           2225        1833.00      7991.27
  155.39        2956.00           2229        1862.00      8117.76
  155.42        2956.25           2232        1874.00      8170.10
  155.46        2956.50           2236        1857.00      8095.95
  155.49        2956.75           2239        1876.00      8178.82
  155.52        2957.00           2243        1896.00      8266.06
  155.55        2957.25           2246        1925.00      8392.54
  155.58        2957.50           2250        1925.00      8392.54
  155.61        2957.75           2254        1971.00      8593.18
  155.64        2958.00           2257        1961.00      8549.56
  155.67        2958.25           2261        1995.00      8697.86
  155.70        2958.50           2264        1984.00      8649.88
  155.73        2958.75           2268        1998.00      8710.95
  155.76        2959.00           2271        2022.00      8815.63
  155.79        2959.25           2275        2045.00      8915.95
  155.82        2959.50           2278        2086.00      9094.79
  155.85        2959.75           2282        2101.00      9160.22
  155.88        2960.00           2285        2126.00      9269.27
  155.91        2960.25           2289        2178.00      9496.09
  155.94        2960.50           2293        2242.00      9775.26
  155.98        2960.75           2296        2275.00      9919.21
  156.01        2961.00           2300        2355.00     10268.19
  156.04        2961.25           2303        2832.00     12349.13
  156.07        2961.50           2307        7120.00     31068.99
  156.10        2961.75           2310       17226.00     75282.68
  156.13        2962.00           2314       36949.00    161956.10
  156.16        2962.25           2317       53818.00    236496.00
  156.19        2962.50           2321       77879.00    343476.50
  156.22        2962.75           2324       96053.00    424804.30
  156.25        2963.00           2328      119780.00    531667.90
  156.28        2963.25           2331      137733.00    613050.10
  156.31        2963.50           2335      164816.00    736687.20
  156.34        2963.75           2339      192098.00    862306.30
  156.37        2964.00           2342      214075.00    964296.90
  156.40        2964.25           2346      239941.00   1085265.00
  156.43        2964.50           2349      258408.00   1172254.00
  156.46        2964.75           2353      282410.00   1286106.00
  156.49        2965.00           2356      302502.00   1382110.00
  156.53        2965.25           2360      327052.00   1500294.00
  156.56        2965.50           2363      345116.00   1587881.00
  156.59        2965.75           2367      369451.00   1706730.00
  156.62        2966.00           2370      387412.00   1795087.00
  156.65        2966.25           2374      406817.00   1891169.00
  156.69        2966.50           2378      424051.00   1977049.00
  156.72        2966.75           2381      430219.00   2007912.00
  156.75        2967.00           2385      433857.00   2026147.00
  156.78        2967.25           2388      434097.00   2027351.00
  156.81        2967.50           2392      434538.00   2029564.00
  156.84        2967.75           2395      433580.00   2024758.00
  156.87        2968.00           2399      429080.00   2002208.00
  156.90        2968.25           2402      419350.00   1953572.00
  156.93        2968.50           2406      401258.00   1863578.00
  156.96        2968.75           2409      385141.00   1783885.00
  156.99        2969.00           2413      358777.00   1654477.00
  157.02        2969.25           2417      331912.00   1523806.00
  157.05        2969.50           2420      312965.00   1432360.00
  157.08        2969.75           2424      289041.00   1317720.00
  157.11        2970.00           2427      269671.00   1225567.00
  157.14        2970.25           2431      242765.00   1098533.00
  157.17        2970.50           2434      222239.00   1002368.00
  157.20        2970.75           2438      196869.00    884386.60
  157.24        2971.00           2441      178036.00    797422.40
  157.27        2971.25           2445      152028.00    678177.40
  157.30        2971.50           2449      126115.00    560333.00
  157.33        2971.75           2452      106650.00    472435.20
  157.36        2972.00           2456       82529.00    364242.00
  157.39        2972.25           2459       63163.00    277953.10
  157.42        2972.50           2463       36968.00    162039.80
  157.45        2972.75           2466       18841.00     82360.65
  157.48        2973.00           2470        6307.00     27517.89
  157.51        2973.25           2473        3311.00     14439.08
  157.54        2973.50           2477        2452.00     10691.33
  157.57        2973.75           2481        2261.00      9858.14
  157.60        2974.00           2484        2262.00      9862.50
  157.63        2974.25           2488        2206.00      9618.23
  157.66        2974.50           2491        2146.00      9356.51
  157.69        2974.75           2495        2118.00      9234.37
  157.72        2975.00           2498        2080.00      9068.62
  157.76        2975.25           2502        2019.00      8802.55
  157.79        2975.50           2505        2033.00      8863.61
  157.82        2975.75           2509        1990.00      8676.06
  157.85        2976.00           2512        1990.00      8676.06
  157.88        2976.25           2516        1935.00      8436.16
  157.91        2976.50           2520        1901.00      8287.86
  157.94        2976.75           2523        1907.00      8314.03
  157.97        2977.00           2527        1894.00      8257.33
  158.00        2977.25           2530        1907.00      8314.03
  158.03        2977.50           2534        1846.00      8047.97
  158.06        2977.75           2537        1857.00      8095.95
  158.09        2978.00           2541        1813.00      7904.04
  158.12        2978.25           2544        1815.00      7912.76
  158.15        2978.50           2548        1817.00      7921.49
  158.18        2978.75           2552        1772.00      7725.22
  158.21        2979.00           2555        1786.00      7786.28
  158.25        2979.25           2559        1733.00      7555.12
  158.28        2979.50           2562        1773.00      7729.58
  158.31        2979.75           2566        1693.00      7380.67
  158.34        2980.00           2569        1751.00      7633.63
  158.37        2980.25           2573        1703.00      7424.28
  158.40        2980.50           2577        1700.00      7411.20
  158.43        2980.75           2580        1696.00      7393.75
  158.47        2981.00           2584        1739.00      7581.29
  158.50        2981.25           2587        1678.00      7315.25
  158.53        2981.50           2591        1650.00      7193.13
  158.56        2981.75           2594        1693.00      7380.67
  158.59        2982.00           2598        1687.00      7354.50
  158.62        2982.25           2601        1657.00      7223.66
  158.65        2982.50           2605        1634.00      7123.35
  158.68        2982.75           2609        1634.00      7123.35
  158.71        2983.00           2612        1665.00      7258.55
  158.74        2983.25           2616        1607.00      7005.59
  158.77        2983.50           2619        1661.00      7241.10
  158.80        2983.75           2623        1648.00      7184.41
  158.83        2984.00           2626        1606.00      7001.23
HS scan finished at 02:39:03
end
************************************************************
  HS Scan of (1) Internal mercury lamp
************************************************************
Integration time is 0.2294 seconds per sample
dh290319Reading 51.44 .94 3.41pr1000
************************************************************
Dead Time -------------------------  3.4E-08 
Number of Cycles Used -------------  4 
Starting Wavelength (Angstroms) ---  2950 
Final Wavelength (Angstoms) -------  2984 
Wavelength Increment (Angstroms) --  .25 
Filter Wheel #1 Position ---------- (1) Ground quartz diffuser (ND=2.32)
Filter Wheel #2 Position ---------- (1) Neutral Density 0.494



************************************************************
HS scan start time = 19:37:28
Dark Count =  3 


Time (GMT)  Wavelength (Ang)  Step Number  Raw Counts  Counts/Second

 1178.36        2950.00           2144        1354.00      5890.46
 1178.56        2950.25           2147        1310.00      5698.58
 1178.59        2950.50           2151        1365.00      5938.43
 1178.62        2950.75           2155        1349.00      5868.65
 1178.65        2951.00           2158        1328.00      5777.07
 1178.68        2951.25           2162        1391.00      6051.81
 1178.71        2951.50           2165        1383.00      6016.92
 1178.74        2951.75           2169        1343.00      5842.49
 1178.77        2952.00           2172        1443.00      6278.59
 1178.80        2952.25           2176        1361.00      5920.98
 1178.83        2952.50           2179        1421.00      6182.64
 1178.88        2952.75           2183        1378.00      5995.12
 1178.91        2953.00           2186        1426.00      6204.45
 1178.94        2953.25           2190        1458.00      6344.00
 1178.97        2953.50           2193        1418.00      6169.56
 1179.00        2953.75           2197        1399.00      6086.70
 1179.03        2954.00           2200        1416.00      6160.84
 1179.07        2954.25           2204        1444.00      6282.95
 1179.10        2954.50           2208        1470.00      6396.33
 1179.13        2954.75           2211        1458.00      6344.00
 1179.16        2955.00           2215        1452.00      6317.84
 1179.19        2955.25           2218        1517.00      6601.31
 1179.22        2955.50           2222        1459.00      6348.36
 1179.25        2955.75           2225        1490.00      6483.56
 1179.28        2956.00           2229        1507.00      6557.70
 1179.31        2956.25           2232        1489.00      6479.20
 1179.34        2956.50           2236        1467.00      6383.25
 1179.37        2956.75           2239        1536.00      6684.17
 1179.41        2957.00           2243        1480.00      6439.95
 1179.44        2957.25           2246        1564.00      6806.28
 1179.47        2957.50           2250        1515.00      6592.58
 1179.50        2957.75           2254        1559.00      6784.48
 1179.53        2958.00           2257        1605.00      6985.09
 1179.56        2958.25           2261        1612.00      7015.62
 1179.59        2958.50           2264        1603.00      6976.37
 1179.62        2958.75           2268        1642.00      7146.46
 1179.65        2959.00           2271        1665.00      7246.77
 1179.68        2959.25           2275        1671.00      7272.94
 1179.71        2959.50           2278        1715.00      7464.84
 1179.74        2959.75           2282        1697.00      7386.34
 1179.77        2960.00           2285        1710.00      7443.03
 1179.80        2960.25           2289        1790.00      7791.95
 1179.83        2960.50           2293        1787.00      7778.87
 1179.86        2960.75           2296        1902.00      8280.45
 1179.89        2961.00           2300        1895.00      8249.92
 1179.93        2961.25           2303        2157.00      9392.71
 1179.96        2961.50           2307        4705.00     20511.25
 1179.99        2961.75           2310       11915.00     52018.69
 1180.02        2962.00           2314       29248.00    128041.00
 1180.05        2962.25           2317       45974.00    201776.20
 1180.09        2962.50           2321       71904.00    316825.20
 1180.12        2962.75           2324       90286.00    398936.00
 1180.15        2963.00           2328      113510.00    503340.20
 1180.19        2963.25           2331      132016.00    587072.90
 1180.22        2963.50           2335      160364.00    716278.60
 1180.25        2963.75           2339      186248.00    835265.90
 1180.28        2964.00           2342      204246.00    918581.20
 1180.31        2964.25           2346      230159.00   1039385.00
 1180.34        2964.50           2349      248404.00   1125052.00
 1180.37        2964.75           2353      272853.00   1240652.00
 1180.40        2965.00           2356      291011.00   1327112.00
 1180.43        2965.25           2360      313757.00   1436158.00
 1180.46        2965.50           2363      330013.00   1514601.00
 1180.49        2965.75           2367      352388.00   1623280.00
 1180.52        2966.00           2370      369751.00   1708188.00
 1180.55        2966.25           2374      392471.00   1820061.00
 1180.58        2966.50           2378      408051.00   1897288.00
 1180.61        2966.75           2381      413234.00   1923072.00
 1180.64        2967.00           2385      414466.00   1929208.00
 1180.67        2967.25           2388      415412.00   1933921.00
 1180.71        2967.50           2392      414545.00   1929602.00
 1180.74        2967.75           2395      413982.00   1926797.00
 1180.77        2968.00           2399      408361.00   1898829.00
 1180.80        2968.25           2402      398039.00   1847612.00
 1180.83        2968.50           2406      380307.00   1760056.00
 1180.86        2968.75           2409      363907.00   1679553.00
 1180.89        2969.00           2413      340328.00   1564600.00
 1180.92        2969.25           2417      317663.00   1454967.00
 1180.95        2969.50           2420      301078.00   1375272.00
 1180.98        2969.75           2424      276172.00   1256417.00
 1181.01        2970.00           2427      256854.00   1164901.00
 1181.04        2970.25           2431      232377.00   1049772.00
 1181.07        2970.50           2434      215078.00    968956.10
 1181.10        2970.75           2438      193155.00    867182.80
 1181.13        2971.00           2441      173610.00    777047.80
 1181.16        2971.25           2445      148213.00    660755.60
 1181.19        2971.50           2449      121127.00    537746.00
 1181.23        2971.75           2452      102328.00    452977.90
 1181.26        2972.00           2456       78661.00    346954.60
 1181.29        2972.25           2459       61223.00    269325.10
 1181.32        2972.50           2463       38112.00    167071.00
 1181.35        2972.75           2466       22489.00     98349.24
 1181.38        2973.00           2470        7301.00     31847.90
 1181.41        2973.25           2473        3354.00     14614.93
 1181.44        2973.50           2477        2145.00      9340.37
 1181.47        2973.75           2481        1958.00      8524.70
 1181.50        2974.00           2484        1890.00      8228.11
 1181.53        2974.25           2488        1810.00      7879.18
 1181.56        2974.50           2491        1819.00      7918.44
 1181.59        2974.75           2495        1721.00      7491.01
 1181.62        2975.00           2498        1732.00      7538.99
 1181.65        2975.25           2502        1743.00      7586.96
 1181.68        2975.50           2505        1732.00      7538.99
 1181.71        2975.75           2509        1690.00      7355.81
 1181.74        2976.00           2512        1645.00      7159.55
 1181.78        2976.25           2516        1642.00      7146.46
 1181.81        2976.50           2520        1559.00      6784.48
 1181.84        2976.75           2523        1589.00      6915.31
 1181.87        2977.00           2527        1615.00      7028.71
 1181.90        2977.25           2530        1502.00      6535.89
 1181.93        2977.50           2534        1516.00      6596.95
 1181.96        2977.75           2537        1520.00      6614.39
 1181.99        2978.00           2541        1485.00      6461.75
 1182.02        2978.25           2544        1511.00      6575.14
 1182.05        2978.50           2548        1492.00      6492.28
 1182.08        2978.75           2552        1459.00      6348.36
 1182.11        2979.00           2555        1476.00      6422.50
 1182.14        2979.25           2559        1444.00      6282.95
 1182.17        2979.50           2562        1444.00      6282.95
 1182.20        2979.75           2566        1436.00      6248.06
 1182.23        2980.00           2569        1426.00      6204.45
 1182.27        2980.25           2573        1378.00      5995.12
 1182.30        2980.50           2577        1368.00      5951.51
 1182.33        2980.75           2580        1394.00      6064.90
 1182.36        2981.00           2584        1370.00      5960.23
 1182.39        2981.25           2587        1406.00      6117.23
 1182.42        2981.50           2591        1373.00      5973.31
 1182.45        2981.75           2594        1343.00      5842.49
 1182.48        2982.00           2598        1398.00      6082.34
 1182.51        2982.25           2601        1327.00      5772.71
 1182.54        2982.50           2605        1305.00      5676.77
 1182.57        2982.75           2609        1325.00      5763.99
 1182.60        2983.00           2612        1325.00      5763.99
 1182.63        2983.25           2616        1321.00      5746.55
 1182.66        2983.50           2619        1294.00      5628.80
 1182.69        2983.75           2623        1332.00      5794.52
 1182.72        2984.00           2626        1310.00      5698.58
HS scan finished at 19:42:57
end
