************************************************************
  HS Scan of 
************************************************************
Integration time is 0.2294 seconds per sample
dh280317Reading 51.44 .94 3.05pr1000
************************************************************
Dead Time -------------------------  3.4E-08 
Number of Cycles Used -------------  4 
Starting Wavelength (Angstroms) ---  2950 
Final Wavelength (Angstoms) -------  2984 
Wavelength Increment (Angstroms) --  .25 
Filter Wheel #1 Position ---------- (1) Ground quartz diffuser (ND=2.32)
Filter Wheel #2 Position ---------- (1) Neutral Density 0.494



************************************************************
HS scan start time = 02:40:40
Dark Count =  1.1 


Time (GMT)  Wavelength (Ang)  Step Number  Raw Counts  Counts/Second

  161.57        2950.00           2144         932.00      4058.54
  161.76        2950.25           2147         915.00      3984.41
  161.79        2950.50           2151         920.00      4006.21
  161.82        2950.75           2155         950.00      4137.03
  161.85        2951.00           2158         920.00      4006.21
  161.88        2951.25           2162         929.00      4045.46
  161.91        2951.50           2165         926.00      4032.38
  161.95        2951.75           2169         934.00      4067.26
  161.98        2952.00           2172         961.00      4184.99
  162.01        2952.25           2176         968.00      4215.51
  162.04        2952.50           2179         967.00      4211.15
  162.07        2952.75           2183         956.00      4163.19
  162.10        2953.00           2186         954.00      4154.47
  162.13        2953.25           2190         978.00      4259.12
  162.16        2953.50           2193         980.00      4267.84
  162.19        2953.75           2197         996.00      4337.61
  162.22        2954.00           2200         994.00      4328.89
  162.25        2954.25           2204         984.00      4285.28
  162.28        2954.50           2208         993.00      4324.52
  162.31        2954.75           2211        1006.00      4381.21
  162.34        2955.00           2215         998.00      4346.33
  162.37        2955.25           2218        1001.00      4359.41
  162.40        2955.50           2222        1007.00      4385.57
  162.43        2955.75           2225        1024.00      4459.70
  162.47        2956.00           2229        1066.00      4642.84
  162.50        2956.25           2232        1016.00      4424.82
  162.53        2956.50           2236        1045.00      4551.27
  162.56        2956.75           2239        1093.00      4760.58
  162.59        2957.00           2243        1088.00      4738.78
  162.62        2957.25           2246        1087.00      4734.42
  162.65        2957.50           2250        1086.00      4730.05
  162.68        2957.75           2254        1105.00      4812.91
  162.72        2958.00           2257        1113.00      4847.79
  162.76        2958.25           2261        1130.00      4921.92
  162.79        2958.50           2264        1159.00      5048.38
  162.82        2958.75           2268        1165.00      5074.55
  162.85        2959.00           2271        1153.00      5022.22
  162.88        2959.25           2275        1224.00      5331.83
  162.91        2959.50           2278        1228.00      5349.27
  162.94        2959.75           2282        1207.00      5257.70
  162.97        2960.00           2285        1213.00      5283.86
  163.00        2960.25           2289        1244.00      5419.05
  163.03        2960.50           2293        1315.00      5728.67
  163.06        2960.75           2296        1343.00      5850.77
  163.09        2961.00           2300        1397.00      6086.26
  163.12        2961.25           2303        1760.00      7669.39
  163.15        2961.50           2307        5194.00     22654.32
  163.18        2961.75           2310       12231.00     53409.46
  163.22        2962.00           2314       25769.00    112758.90
  163.25        2962.25           2317       39893.00    174934.10
  163.28        2962.50           2321       59175.00    260243.30
  163.31        2962.75           2324       73554.00    324185.30
  163.34        2963.00           2328       92193.00    407489.50
  163.37        2963.25           2331      105998.00    469496.50
  163.40        2963.50           2335      125270.00    556502.60
  163.43        2963.75           2339      144813.00    645266.10
  163.46        2964.00           2342      159318.00    711499.30
  163.49        2964.25           2346      177664.00    795706.30
  163.52        2964.50           2349      191510.00    859583.80
  163.55        2964.75           2353      212261.00    955847.50
  163.58        2965.00           2356      227663.00   1027714.00
  163.61        2965.25           2360      246386.00   1115560.00
  163.64        2965.50           2363      259512.00   1177467.00
  163.67        2965.75           2367      275189.00   1251755.00
  163.70        2966.00           2370      287067.00   1308298.00
  163.73        2966.25           2374      304602.00   1392178.00
  163.77        2966.50           2378      314983.00   1442068.00
  163.80        2966.75           2381      316511.00   1449426.00
  163.83        2967.00           2385      317503.00   1454205.00
  163.86        2967.25           2388      317595.00   1454649.00
  163.89        2967.50           2392      317576.00   1454557.00
  163.92        2967.75           2395      316333.00   1448569.00
  163.95        2968.00           2399      309448.00   1415446.00
  163.98        2968.25           2402      297843.00   1359788.00
  164.01        2968.50           2406      281583.00   1282165.00
  164.04        2968.75           2409      268714.00   1221026.00
  164.07        2969.00           2413      252287.00   1143359.00
  164.10        2969.25           2417      236743.00   1070250.00
  164.13        2969.50           2420      224927.00   1014921.00
  164.16        2969.75           2424      207273.00    932649.80
  164.19        2970.00           2427      192366.00    863542.00
  164.22        2970.25           2431      170315.00    761916.10
  164.25        2970.50           2434      154920.00    691385.10
  164.29        2970.75           2438      135369.00    602304.30
  164.32        2971.00           2441      120846.00    536483.80
  164.35        2971.25           2445      102497.00    453746.30
  164.38        2971.50           2449       83791.00    369879.20
  164.41        2971.75           2452       69209.00    304834.00
  164.44        2972.00           2456       51589.00    226621.30
  164.47        2972.25           2459       38705.00    169694.20
  164.50        2972.50           2463       21535.00     94171.58
  164.53        2972.75           2466       11082.00     48383.37
  164.56        2973.00           2470        3485.00     15194.86
  164.59        2973.25           2473        1881.00      8197.14
  164.62        2973.50           2477        1452.00      6326.12
  164.65        2973.75           2481        1403.00      6112.43
  164.68        2974.00           2484        1335.00      5815.88
  164.71        2974.25           2488        1335.00      5815.88
  164.74        2974.50           2491        1284.00      5593.48
  164.77        2974.75           2495        1250.00      5445.21
  164.81        2975.00           2498        1257.00      5475.74
  164.84        2975.25           2502        1214.00      5288.22
  164.87        2975.50           2505        1191.00      5187.93
  164.90        2975.75           2509        1167.00      5083.27
  164.93        2976.00           2512        1190.00      5183.56
  164.96        2976.25           2516        1149.00      5004.78
  164.99        2976.50           2520        1127.00      4908.84
  165.02        2976.75           2523        1122.00      4887.04
  165.05        2977.00           2527        1087.00      4734.42
  165.08        2977.25           2530        1094.00      4764.94
  165.11        2977.50           2534        1079.00      4699.53
  165.14        2977.75           2537        1060.00      4616.68
  165.17        2978.00           2541        1035.00      4507.67
  165.20        2978.25           2544        1044.00      4546.91
  165.23        2978.50           2548        1030.00      4485.86
  165.26        2978.75           2552        1028.00      4477.14
  165.29        2979.00           2555        1045.00      4551.27
  165.33        2979.25           2559        1014.00      4416.09
  165.36        2979.50           2562        1023.00      4455.34
  165.39        2979.75           2566         987.00      4298.36
  165.42        2980.00           2569        1001.00      4359.41
  165.45        2980.25           2573         962.00      4189.35
  165.48        2980.50           2577         985.00      4289.64
  165.51        2980.75           2580         994.00      4328.89
  165.54        2981.00           2584         971.00      4228.59
  165.57        2981.25           2587         991.00      4315.80
  165.60        2981.50           2591         951.00      4141.39
  165.63        2981.75           2594         948.00      4128.30
  165.66        2982.00           2598         957.00      4167.55
  165.69        2982.25           2601         943.00      4106.50
  165.72        2982.50           2605         944.00      4110.86
  165.75        2982.75           2609         940.00      4093.42
  165.78        2983.00           2612         974.00      4241.68
  165.81        2983.25           2616         942.00      4102.14
  165.85        2983.50           2619         903.00      3932.09
  165.88        2983.75           2623         912.00      3971.33
  165.91        2984.00           2626         941.00      4097.78
HS scan finished at 02:46:08
end
************************************************************
  HS Scan of 
************************************************************
Integration time is 0.2294 seconds per sample
dh280317Reading 51.44 .94 3.27pr1000
************************************************************
Dead Time -------------------------  3.4E-08 
Number of Cycles Used -------------  4 
Starting Wavelength (Angstroms) ---  2950 
Final Wavelength (Angstoms) -------  2984 
Wavelength Increment (Angstroms) --  .25 
Filter Wheel #1 Position ---------- (1) Ground quartz diffuser (ND=2.32)
Filter Wheel #2 Position ---------- (1) Neutral Density 0.494



************************************************************
HS scan start time = 19:37:32
Dark Count =  1.6 


Time (GMT)  Wavelength (Ang)  Step Number  Raw Counts  Counts/Second

 1178.43        2950.00           2144         809.00      3520.04
 1178.62        2950.25           2147         816.00      3550.56
 1178.65        2950.50           2151         845.00      3677.01
 1178.68        2950.75           2155         828.00      3602.88
 1178.71        2951.00           2158         838.00      3646.49
 1178.74        2951.25           2162         831.00      3615.96
 1178.77        2951.50           2165         821.00      3572.36
 1178.80        2951.75           2169         819.00      3563.64
 1178.83        2952.00           2172         840.00      3655.21
 1178.87        2952.25           2176         831.00      3615.96
 1178.90        2952.50           2179         872.00      3794.74
 1178.93        2952.75           2183         852.00      3707.53
 1178.96        2953.00           2186         853.00      3711.89
 1178.99        2953.25           2190         858.00      3733.69
 1179.02        2953.50           2193         901.00      3921.19
 1179.05        2953.75           2197         908.00      3951.71
 1179.08        2954.00           2200         888.00      3864.50
 1179.11        2954.25           2204         899.00      3912.46
 1179.14        2954.50           2208         885.00      3851.42
 1179.17        2954.75           2211         909.00      3956.07
 1179.20        2955.00           2215         898.00      3908.10
 1179.23        2955.25           2218         882.00      3838.34
 1179.26        2955.50           2222         904.00      3934.27
 1179.29        2955.75           2225         925.00      4025.83
 1179.32        2956.00           2229         918.00      3995.31
 1179.35        2956.25           2232         927.00      4034.56
 1179.39        2956.50           2236         952.00      4143.57
 1179.42        2956.75           2239         944.00      4108.68
 1179.45        2957.00           2243         960.00      4178.45
 1179.48        2957.25           2246         978.00      4256.94
 1179.51        2957.50           2250         937.00      4078.16
 1179.54        2957.75           2254         977.00      4252.58
 1179.57        2958.00           2257         987.00      4296.18
 1179.60        2958.25           2261         988.00      4300.54
 1179.63        2958.50           2264         998.00      4344.15
 1179.66        2958.75           2268         983.00      4278.74
 1179.69        2959.00           2271        1026.00      4466.24
 1179.72        2959.25           2275        1011.00      4400.83
 1179.75        2959.50           2278        1023.00      4453.16
 1179.78        2959.75           2282        1066.00      4640.66
 1179.81        2960.00           2285        1110.00      4832.53
 1179.84        2960.25           2289        1094.00      4762.76
 1179.87        2960.50           2293        1114.00      4849.97
 1179.91        2960.75           2296        1140.00      4963.35
 1179.94        2961.00           2300        1248.00      5434.31
 1179.97        2961.25           2303        1737.00      7566.90
 1180.00        2961.50           2307        5459.00     23809.15
 1180.03        2961.75           2310       12805.00     55918.78
 1180.06        2962.00           2314       26699.00    116842.50
 1180.09        2962.25           2317       38446.00    168549.90
 1180.12        2962.50           2321       52201.00    229328.70
 1180.15        2962.75           2324       62379.00    274464.80
 1180.18        2963.00           2328       77519.00    341864.30
 1180.21        2963.25           2331       89299.00    394521.70
 1180.24        2963.50           2335      106048.00    469719.30
 1180.27        2963.75           2339      121639.00    540067.90
 1180.31        2964.00           2342      131987.00    586947.60
 1180.35        2964.25           2346      147411.00    657104.80
 1180.38        2964.50           2349      159172.00    710828.80
 1180.41        2964.75           2353      174917.00    783064.30
 1180.44        2965.00           2356      185659.00    832554.00
 1180.47        2965.25           2360      201001.00    903530.60
 1180.50        2965.50           2363      211866.00    954006.80
 1180.53        2965.75           2367      225920.00   1019561.00
 1180.56        2966.00           2370      235774.00   1065702.00
 1180.59        2966.25           2374      248180.00   1124003.00
 1180.62        2966.50           2378      255995.00   1160851.00
 1180.65        2966.75           2381      258322.00   1171841.00
 1180.69        2967.00           2385      258191.00   1171222.00
 1180.72        2967.25           2388      259218.00   1176075.00
 1180.75        2967.50           2392      258660.00   1173438.00
 1180.78        2967.75           2395      258053.00   1170570.00
 1180.81        2968.00           2399      253752.00   1150266.00
 1180.84        2968.25           2402      245935.00   1113436.00
 1180.87        2968.50           2406      233043.00   1052899.00
 1180.90        2968.75           2409      221304.00    997996.90
 1180.93        2969.00           2413      207350.00    933005.20
 1180.96        2969.25           2417      192942.00    866203.90
 1180.99        2969.50           2420      182718.00    818987.60
 1181.02        2969.75           2424      168141.00    751933.00
 1181.05        2970.00           2427      156712.00    699575.20
 1181.08        2970.25           2431      142212.00    633418.90
 1181.11        2970.50           2434      131728.00    585772.50
 1181.14        2970.75           2438      115115.00    510589.50
 1181.17        2971.00           2441      102300.00    452858.30
 1181.20        2971.25           2445       86747.00    383098.00
 1181.24        2971.50           2449       73380.00    323407.60
 1181.27        2971.75           2452       63451.00    279226.90
 1181.30        2972.00           2456       49639.00    217988.90
 1181.33        2972.25           2459       38824.00    170216.80
 1181.36        2972.50           2463       22581.00     98759.14
 1181.39        2972.75           2466       11971.00     52269.80
 1181.42        2973.00           2470        3930.00     17134.65
 1181.45        2973.25           2473        1872.00      8155.70
 1181.48        2973.50           2477        1250.00      5443.03
 1181.51        2973.75           2481        1169.00      5089.81
 1181.54        2974.00           2484        1165.00      5072.37
 1181.57        2974.25           2488        1134.00      4937.18
 1181.60        2974.50           2491        1099.00      4784.56
 1181.63        2974.75           2495        1085.00      4723.51
 1181.66        2975.00           2498        1088.00      4736.60
 1181.69        2975.25           2502        1040.00      4527.29
 1181.73        2975.50           2505        1050.00      4570.89
 1181.76        2975.75           2509        1015.00      4418.28
 1181.79        2976.00           2512        1045.00      4549.09
 1181.82        2976.25           2516        1000.00      4352.87
 1181.85        2976.50           2520         947.00      4121.76
 1181.88        2976.75           2523         964.00      4195.89
 1181.91        2977.00           2527         970.00      4222.05
 1181.94        2977.25           2530         964.00      4195.89
 1181.97        2977.50           2534         976.00      4248.22
 1182.00        2977.75           2537         944.00      4108.68
 1182.03        2978.00           2541         958.00      4169.73
 1182.06        2978.25           2544         958.00      4169.73
 1182.09        2978.50           2548         904.00      3934.27
 1182.12        2978.75           2552         909.00      3956.07
 1182.15        2979.00           2555         935.00      4069.44
 1182.18        2979.25           2559         892.00      3881.94
 1182.21        2979.50           2562         877.00      3816.54
 1182.25        2979.75           2566         906.00      3942.99
 1182.28        2980.00           2569         900.00      3916.83
 1182.31        2980.25           2573         905.00      3938.63
 1182.34        2980.50           2577         838.00      3646.49
 1182.37        2980.75           2580         888.00      3864.50
 1182.40        2981.00           2584         852.00      3707.53
 1182.43        2981.25           2587         854.00      3716.25
 1182.46        2981.50           2591         856.00      3724.97
 1182.49        2981.75           2594         823.00      3581.08
 1182.52        2982.00           2598         793.00      3450.27
 1182.55        2982.25           2601         820.00      3568.00
 1182.58        2982.50           2605         804.00      3498.24
 1182.61        2982.75           2609         838.00      3646.49
 1182.64        2983.00           2612         867.00      3772.93
 1182.67        2983.25           2616         808.00      3515.68
 1182.70        2983.50           2619         811.00      3528.76
 1182.73        2983.75           2623         810.00      3524.40
 1182.76        2984.00           2626         817.00      3554.92
HS scan finished at 19:42:59
end
