************************************************************
  HS Scan of (1) Internal mercury lamp
************************************************************
Integration time is 0.2294 seconds per sample
dh240318Reading 51.44 .94 2.8pr1000
************************************************************
Dead Time -------------------------  3.4E-08 
Number of Cycles Used -------------  4 
Starting Wavelength (Angstroms) ---  2950 
Final Wavelength (Angstoms) -------  2984 
Wavelength Increment (Angstroms) --  .25 
Filter Wheel #1 Position ---------- (1) Ground quartz diffuser (ND=2.32)
Filter Wheel #2 Position ---------- (1) Neutral Density 0.494



************************************************************
HS scan start time = 02:53:29
Dark Count =  .7 


Time (GMT)  Wavelength (Ang)  Step Number  Raw Counts  Counts/Second

  174.37        2950.00           2144         132.00       572.37
  174.57        2950.25           2147         155.00       672.64
  174.60        2950.50           2151         146.00       633.41
  174.63        2950.75           2155         131.00       568.01
  174.66        2951.00           2158         130.00       563.66
  174.69        2951.25           2162         134.00       581.09
  174.72        2951.50           2165         123.00       533.14
  174.75        2951.75           2169         124.00       537.50
  174.78        2952.00           2172         121.00       524.42
  174.81        2952.25           2176         178.00       772.91
  174.84        2952.50           2179         138.00       598.53
  174.87        2952.75           2183         131.00       568.01
  174.90        2953.00           2186         150.00       650.84
  174.93        2953.25           2190         134.00       581.09
  174.96        2953.50           2193         162.00       703.16
  174.99        2953.75           2197         135.00       585.45
  175.03        2954.00           2200         125.00       541.86
  175.06        2954.25           2204         142.00       615.97
  175.09        2954.50           2208         148.00       642.12
  175.12        2954.75           2211         161.00       698.80
  175.15        2955.00           2215         152.00       659.56
  175.18        2955.25           2218         147.00       637.76
  175.21        2955.50           2222         147.00       637.76
  175.24        2955.75           2225         158.00       685.72
  175.27        2956.00           2229         171.00       742.39
  175.30        2956.25           2232         142.00       615.97
  175.33        2956.50           2236         152.00       659.56
  175.36        2956.75           2239         150.00       650.84
  175.39        2957.00           2243         164.00       711.87
  175.42        2957.25           2246         155.00       672.64
  175.45        2957.50           2250         159.00       690.08
  175.48        2957.75           2254         151.00       655.20
  175.51        2958.00           2257         159.00       690.08
  175.55        2958.25           2261         158.00       685.72
  175.58        2958.50           2264         155.00       672.64
  175.61        2958.75           2268         182.00       790.34
  175.64        2959.00           2271         170.00       738.03
  175.67        2959.25           2275         168.00       729.31
  175.70        2959.50           2278         170.00       738.03
  175.73        2959.75           2282         181.00       785.98
  175.76        2960.00           2285         172.00       746.75
  175.79        2960.25           2289         188.00       816.50
  175.82        2960.50           2293         189.00       820.86
  175.85        2960.75           2296         196.00       851.38
  175.88        2961.00           2300         228.00       990.88
  175.91        2961.25           2303         425.00      1849.72
  175.94        2961.50           2307        1584.00      6903.54
  175.97        2961.75           2310        3013.00     13137.08
  176.00        2962.00           2314        5747.00     25070.62
  176.03        2962.25           2317        8024.00     35016.82
  176.07        2962.50           2321       11239.00     49071.78
  176.10        2962.75           2324       13703.00     59852.72
  176.13        2963.00           2328       16962.00     74124.25
  176.16        2963.25           2331       19640.00     85861.90
  176.19        2963.50           2335       22690.00     99241.46
  176.22        2963.75           2339       25642.00    112202.70
  176.25        2964.00           2342       28118.00    123082.90
  176.28        2964.25           2346       31527.00    138076.10
  176.31        2964.50           2349       34065.00    149248.50
  176.34        2964.75           2353       37636.00    164982.60
  176.37        2965.00           2356       40093.00    175818.20
  176.40        2965.25           2360       42932.00    188348.40
  176.43        2965.50           2363       44924.00    197146.60
  176.46        2965.75           2367       48080.00    211096.90
  176.49        2966.00           2370       50926.00    223688.30
  176.52        2966.25           2374       54058.00    237557.50
  176.55        2966.50           2378       55390.00    243459.90
  176.59        2966.75           2381       55776.00    245170.80
  176.62        2967.00           2385       55802.00    245286.00
  176.65        2967.25           2388       55779.00    245184.10
  176.68        2967.50           2392       55869.00    245583.00
  176.71        2967.75           2395       55055.00    241975.20
  176.74        2968.00           2399       53323.00    234301.60
  176.77        2968.25           2402       51437.00    225950.20
  176.80        2968.50           2406       48192.00    211592.20
  176.83        2968.75           2409       45866.00    201309.10
  176.86        2969.00           2413       42808.00    187800.90
  176.89        2969.25           2417       39974.00    175293.20
  176.92        2969.50           2420       37864.00    165987.80
  176.95        2969.75           2424       34408.00    150759.00
  176.98        2970.00           2427       31594.00    138370.90
  177.01        2970.25           2431       28331.00    124019.20
  177.04        2970.50           2434       25690.00    112413.60
  177.07        2970.75           2438       22556.00     98653.37
  177.10        2971.00           2441       20169.00     88181.60
  177.14        2971.25           2445       16591.00     72498.90
  177.17        2971.50           2449       13315.00     58154.55
  177.20        2971.75           2452       10983.00     47952.14
  177.23        2972.00           2456        8092.00     35313.95
  177.26        2972.25           2459        5894.00     25712.53
  177.29        2972.50           2463        3182.00     13874.46
  177.32        2972.75           2466        1539.00      6707.28
  177.35        2973.00           2470         432.00      1880.24
  177.38        2973.25           2473         258.00      1121.66
  177.41        2973.50           2477         219.00       951.64
  177.44        2973.75           2481         208.00       903.69
  177.47        2974.00           2484         202.00       877.53
  177.50        2974.25           2488         185.00       803.42
  177.53        2974.50           2491         189.00       820.86
  177.56        2974.75           2495         186.00       807.78
  177.59        2975.00           2498         177.00       768.55
  177.62        2975.25           2502         172.00       746.75
  177.66        2975.50           2505         185.00       803.42
  177.69        2975.75           2509         175.00       759.83
  177.72        2976.00           2512         169.00       733.67
  177.75        2976.25           2516         164.00       711.87
  177.78        2976.50           2520         163.00       707.51
  177.81        2976.75           2523         153.00       663.92
  177.84        2977.00           2527         152.00       659.56
  177.87        2977.25           2530         160.00       694.44
  177.90        2977.50           2534         169.00       733.67
  177.93        2977.75           2537         153.00       663.92
  177.96        2978.00           2541         153.00       663.92
  177.99        2978.25           2544         161.00       698.80
  178.02        2978.50           2548         153.00       663.92
  178.05        2978.75           2552         144.00       624.69
  178.08        2979.00           2555         147.00       637.76
  178.11        2979.25           2559         139.00       602.89
  178.14        2979.50           2562         148.00       642.12
  178.18        2979.75           2566         158.00       685.72
  178.21        2980.00           2569         154.00       668.28
  178.24        2980.25           2573         138.00       598.53
  178.27        2980.50           2577         140.00       607.25
  178.30        2980.75           2580         155.00       672.64
  178.33        2981.00           2584         137.00       594.17
  178.36        2981.25           2587         138.00       598.53
  178.39        2981.50           2591         158.00       685.72
  178.42        2981.75           2594         126.00       546.22
  178.45        2982.00           2598         139.00       602.89
  178.48        2982.25           2601         149.00       646.48
  178.51        2982.50           2605         136.00       589.81
  178.54        2982.75           2609         111.00       480.83
  178.57        2983.00           2612         142.00       615.97
  178.60        2983.25           2616         133.00       576.73
  178.63        2983.50           2619         134.00       581.09
  178.66        2983.75           2623         134.00       581.09
  178.70        2984.00           2626         134.00       581.09
HS scan finished at 02:58:55
end
************************************************************
  HS Scan of (1) Internal mercury lamp
************************************************************
Integration time is 0.2294 seconds per sample
dh240318Reading 51.44 .94 3.03pr1000
************************************************************
Dead Time -------------------------  3.4E-08 
Number of Cycles Used -------------  4 
Starting Wavelength (Angstroms) ---  2950 
Final Wavelength (Angstoms) -------  2984 
Wavelength Increment (Angstroms) --  .25 
Filter Wheel #1 Position ---------- (1) Ground quartz diffuser (ND=2.32)
Filter Wheel #2 Position ---------- (1) Neutral Density 0.494



************************************************************
HS scan start time = 19:07:29
Dark Count =  1 


Time (GMT)  Wavelength (Ang)  Step Number  Raw Counts  Counts/Second

 1148.39        2950.00           2144         115.00       496.96
 1148.58        2950.25           2147         128.00       553.63
 1148.61        2950.50           2151         109.00       470.80
 1148.64        2950.75           2155         105.00       453.36
 1148.67        2951.00           2158         103.00       444.64
 1148.70        2951.25           2162         112.00       483.88
 1148.73        2951.50           2165         150.00       649.53
 1148.76        2951.75           2169         115.00       496.96
 1148.79        2952.00           2172         129.00       557.99
 1148.82        2952.25           2176         138.00       597.22
 1148.86        2952.50           2179         140.00       605.94
 1148.89        2952.75           2183         117.00       505.68
 1148.92        2953.00           2186         145.00       627.74
 1148.95        2953.25           2190         152.00       658.25
 1148.98        2953.50           2193         127.00       549.27
 1149.01        2953.75           2197         126.00       544.91
 1149.04        2954.00           2200         126.00       544.91
 1149.07        2954.25           2204         146.00       632.10
 1149.10        2954.50           2208         144.00       623.38
 1149.13        2954.75           2211         135.00       584.14
 1149.16        2955.00           2215         140.00       605.94
 1149.19        2955.25           2218         140.00       605.94
 1149.22        2955.50           2222         133.00       575.43
 1149.25        2955.75           2225         129.00       557.99
 1149.28        2956.00           2229         151.00       653.89
 1149.31        2956.25           2232         142.00       614.66
 1149.34        2956.50           2236         153.00       662.61
 1149.37        2956.75           2239         158.00       684.41
 1149.41        2957.00           2243         161.00       697.49
 1149.44        2957.25           2246         144.00       623.38
 1149.47        2957.50           2250         129.00       557.99
 1149.50        2957.75           2254         148.00       640.82
 1149.53        2958.00           2257         155.00       671.33
 1149.56        2958.25           2261         162.00       701.85
 1149.59        2958.50           2264         148.00       640.82
 1149.62        2958.75           2268         150.00       649.53
 1149.65        2959.00           2271         162.00       701.85
 1149.68        2959.25           2275         151.00       653.89
 1149.71        2959.50           2278         152.00       658.25
 1149.74        2959.75           2282         169.00       732.36
 1149.77        2960.00           2285         168.00       728.00
 1149.80        2960.25           2289         179.00       775.96
 1149.83        2960.50           2293         186.00       806.47
 1149.86        2960.75           2296         180.00       780.32
 1149.90        2961.00           2300         229.00       993.93
 1149.93        2961.25           2303         479.00      2083.84
 1149.96        2961.50           2307        1804.00      7861.74
 1149.99        2961.75           2310        3363.00     14662.93
 1150.02        2962.00           2314        5919.00     25820.39
 1150.05        2962.25           2317        8312.00     36274.00
 1150.08        2962.50           2321       11268.00     49197.31
 1150.11        2962.75           2324       13444.00     58717.81
 1150.14        2963.00           2328       16319.00     71306.06
 1150.17        2963.25           2331       18440.00     80599.83
 1150.20        2963.50           2335       21623.00     94558.09
 1150.23        2963.75           2339       24760.00    108327.60
 1150.26        2964.00           2342       27233.00    119191.70
 1150.29        2964.25           2346       30616.00    134066.60
 1150.32        2964.50           2349       32805.00    143699.50
 1150.35        2964.75           2353       35637.00    156171.40
 1150.38        2965.00           2356       37782.00    165624.90
 1150.42        2965.25           2360       40677.00    178393.50
 1150.45        2965.50           2363       42868.00    188064.40
 1150.48        2965.75           2367       45581.00    200048.30
 1150.51        2966.00           2370       47771.00    209729.10
 1150.54        2966.25           2374       50390.00    221314.70
 1150.57        2966.50           2378       51606.00    226697.00
 1150.60        2966.75           2381       52000.00    228441.40
 1150.63        2967.00           2385       52042.00    228627.40
 1150.66        2967.25           2388       52177.00    229225.10
 1150.69        2967.50           2392       51837.00    227719.70
 1150.72        2967.75           2395       51327.00    225461.90
 1150.75        2968.00           2399       49450.00    217155.40
 1150.78        2968.25           2402       47424.00    208194.80
 1150.81        2968.50           2406       44700.00    196155.70
 1150.84        2968.75           2409       42693.00    187291.70
 1150.87        2969.00           2413       40227.00    176408.00
 1150.90        2969.25           2417       36848.00    161507.80
 1150.93        2969.50           2420       34347.00    150489.00
 1150.97        2969.75           2424       31341.00    137256.30
 1151.00        2970.00           2427       28881.00    126436.00
 1151.03        2970.25           2431       25981.00    113690.60
 1151.06        2970.50           2434       23840.00    104288.10
 1151.09        2970.75           2438       20723.00     90610.02
 1151.12        2971.00           2441       18631.00     81437.03
 1151.15        2971.25           2445       15654.00     68393.38
 1151.18        2971.50           2449       12622.00     55120.65
 1151.21        2971.75           2452       10445.00     45598.10
 1151.24        2972.00           2456        7443.00     32477.00
 1151.27        2972.25           2459        5311.00     23165.58
 1151.31        2972.50           2463        3017.00     13153.22
 1151.34        2972.75           2466        1634.00      7120.29
 1151.37        2973.00           2470         509.00      2214.64
 1151.40        2973.25           2473         243.00      1054.96
 1151.43        2973.50           2477         206.00       893.66
 1151.46        2973.75           2481         194.00       841.35
 1151.49        2974.00           2484         178.00       771.60
 1151.52        2974.25           2488         179.00       775.96
 1151.55        2974.50           2491         180.00       780.32
 1151.58        2974.75           2495         164.00       710.57
 1151.61        2975.00           2498         170.00       736.72
 1151.65        2975.25           2502         163.00       706.21
 1151.68        2975.50           2505         153.00       662.61
 1151.71        2975.75           2509         151.00       653.89
 1151.74        2976.00           2512         153.00       662.61
 1151.77        2976.25           2516         144.00       623.38
 1151.80        2976.50           2520         151.00       653.89
 1151.83        2976.75           2523         147.00       636.46
 1151.86        2977.00           2527         149.00       645.18
 1151.89        2977.25           2530         149.00       645.18
 1151.92        2977.50           2534         174.00       754.16
 1151.95        2977.75           2537         122.00       527.47
 1151.98        2978.00           2541         137.00       592.86
 1152.01        2978.25           2544         133.00       575.43
 1152.04        2978.50           2548         141.00       610.30
 1152.07        2978.75           2552         140.00       605.94
 1152.10        2979.00           2555         127.00       549.27
 1152.13        2979.25           2559         140.00       605.94
 1152.17        2979.50           2562         128.00       553.63
 1152.20        2979.75           2566         156.00       675.69
 1152.23        2980.00           2569         116.00       501.32
 1152.26        2980.25           2573         129.00       557.99
 1152.29        2980.50           2577         150.00       649.53
 1152.32        2980.75           2580         132.00       571.07
 1152.35        2981.00           2584         123.00       531.83
 1152.38        2981.25           2587         148.00       640.82
 1152.41        2981.50           2591         133.00       575.43
 1152.44        2981.75           2594         129.00       557.99
 1152.47        2982.00           2598         163.00       706.21
 1152.50        2982.25           2601         115.00       496.96
 1152.53        2982.50           2605         131.00       566.71
 1152.56        2982.75           2609         145.00       627.74
 1152.59        2983.00           2612         116.00       501.32
 1152.62        2983.25           2616         123.00       531.83
 1152.65        2983.50           2619         137.00       592.86
 1152.68        2983.75           2623         168.00       728.00
 1152.72        2984.00           2626         128.00       553.63
HS scan finished at 19:12:56
end
