************************************************************
  HS Scan of (1) Internal mercury lamp
************************************************************
Integration time is 0.2294 seconds per sample
dh270319Reading 51.44 .94 2.84pr1000
************************************************************
Dead Time -------------------------  3.4E-08 
Number of Cycles Used -------------  4 
Starting Wavelength (Angstroms) ---  2950 
Final Wavelength (Angstoms) -------  2984 
Wavelength Increment (Angstroms) --  .25 
Filter Wheel #1 Position ---------- (1) Ground quartz diffuser (ND=2.32)
Filter Wheel #2 Position ---------- (1) Neutral Density 0.494



************************************************************
HS scan start time = 02:42:15
Dark Count =  .6 


Time (GMT)  Wavelength (Ang)  Step Number  Raw Counts  Counts/Second

  163.15        2950.00           2144        1664.00      7252.88
  163.34        2950.25           2147        1698.00      7401.16
  163.37        2950.50           2151        1700.00      7409.89
  163.41        2950.75           2155        1712.00      7462.23
  163.44        2951.00           2158        1694.00      7383.72
  163.47        2951.25           2162        1679.00      7318.30
  163.50        2951.50           2165        1738.00      7575.62
  163.53        2951.75           2169        1732.00      7549.45
  163.56        2952.00           2172        1684.00      7340.11
  163.59        2952.25           2176        1725.00      7518.92
  163.62        2952.50           2179        1722.00      7505.84
  163.65        2952.75           2183        1729.00      7536.37
  163.68        2953.00           2186        1754.00      7645.41
  163.71        2953.25           2190        1722.00      7505.84
  163.74        2953.50           2193        1696.00      7392.44
  163.77        2953.75           2197        1749.00      7623.60
  163.80        2954.00           2200        1732.00      7549.45
  163.83        2954.25           2204        1776.00      7741.36
  163.86        2954.50           2208        1761.00      7675.94
  163.89        2954.75           2211        1794.00      7819.86
  163.93        2955.00           2215        1791.00      7806.78
  163.96        2955.25           2218        1806.00      7872.20
  163.99        2955.50           2222        1801.00      7850.40
  164.02        2955.75           2225        1835.00      7998.69
  164.05        2956.00           2229        1831.00      7981.24
  164.08        2956.25           2232        1872.00      8160.07
  164.11        2956.50           2236        1858.00      8099.00
  164.14        2956.75           2239        1860.00      8107.73
  164.17        2957.00           2243        1852.00      8072.84
  164.20        2957.25           2246        1904.00      8299.64
  164.23        2957.50           2250        1895.00      8260.38
  164.26        2957.75           2254        1942.00      8465.38
  164.29        2958.00           2257        1952.00      8509.00
  164.32        2958.25           2261        1896.00      8264.75
  164.35        2958.50           2264        1943.00      8469.75
  164.38        2958.75           2268        2000.00      8718.36
  164.41        2959.00           2271        2018.00      8796.88
  164.45        2959.25           2275        1996.00      8700.92
  164.48        2959.50           2278        2038.00      8884.11
  164.51        2959.75           2282        2088.00      9102.21
  164.54        2960.00           2285        2118.00      9233.06
  164.57        2960.25           2289        2165.00      9438.08
  164.60        2960.50           2293        2148.00      9363.92
  164.63        2960.75           2296        2222.00      9686.71
  164.66        2961.00           2300        2304.00     10044.41
  164.69        2961.25           2303        2672.00     11649.78
  164.72        2961.50           2307        5848.00     25512.10
  164.75        2961.75           2310       14298.00     62457.70
  164.78        2962.00           2314       33326.00    145994.90
  164.81        2962.25           2317       50963.00    223852.50
  164.84        2962.50           2321       77594.00    342203.50
  164.87        2962.75           2324       95882.00    424035.60
  164.90        2963.00           2328      120941.00    536915.60
  164.93        2963.25           2331      138860.00    618172.80
  164.97        2963.50           2335      165419.00    739450.60
  165.00        2963.75           2339      191681.00    860376.80
  165.03        2964.00           2342      212468.00    956813.40
  165.06        2964.25           2346      241007.00   1090270.00
  165.09        2964.50           2349      262005.00   1189257.00
  165.12        2964.75           2353      287812.00   1311854.00
  165.15        2965.00           2356      305759.00   1397732.00
  165.18        2965.25           2360      329836.00   1513757.00
  165.21        2965.50           2363      345414.00   1589329.00
  165.24        2965.75           2367      367761.00   1698442.00
  165.27        2966.00           2370      386336.00   1789777.00
  165.30        2966.25           2374      409715.00   1905573.00
  165.33        2966.50           2378      427604.00   1994818.00
  165.36        2966.75           2381      433237.00   2023036.00
  165.39        2967.00           2385      434925.00   2031504.00
  165.42        2967.25           2388      435604.00   2034911.00
  165.45        2967.50           2392      434837.00   2031062.00
  165.49        2967.75           2395      434104.00   2027385.00
  165.52        2968.00           2399      427992.00   1996760.00
  165.55        2968.25           2402      416049.00   1937108.00
  165.58        2968.50           2406      396390.00   1839459.00
  165.61        2968.75           2409      379854.00   1757838.00
  165.64        2969.00           2413      356134.00   1641567.00
  165.67        2969.25           2417      332514.00   1526720.00
  165.70        2969.50           2420      314127.00   1437950.00
  165.73        2969.75           2424      287432.00   1310041.00
  165.76        2970.00           2427      268597.00   1220473.00
  165.79        2970.25           2431      242317.00   1096426.00
  165.82        2970.50           2434      223539.00   1008438.00
  165.85        2970.75           2438      199930.00    898569.20
  165.88        2971.00           2441      181585.00    813769.30
  165.91        2971.25           2445      156401.00    698157.60
  165.94        2971.50           2449      129972.00    577811.80
  165.97        2971.75           2452      109612.00    485775.20
  166.00        2972.00           2456       82716.00    365076.40
  166.04        2972.25           2459       63835.00    280937.50
  166.07        2972.50           2463       39958.00    175223.00
  166.10        2972.75           2466       23200.00    101480.30
  166.13        2973.00           2470        8361.00     36489.88
  166.16        2973.25           2473        4152.00     18107.92
  166.19        2973.50           2477        2548.00     11108.82
  166.22        2973.75           2481        2298.00     10018.23
  166.25        2974.00           2484        2195.00      9568.94
  166.28        2974.25           2488        2140.00      9329.03
  166.31        2974.50           2491        2135.00      9307.22
  166.34        2974.75           2495        2099.00      9150.19
  166.37        2975.00           2498        2040.00      8892.84
  166.40        2975.25           2502        2076.00      9049.86
  166.43        2975.50           2505        2027.00      8836.13
  166.46        2975.75           2509        1989.00      8670.39
  166.49        2976.00           2512        1960.00      8543.89
  166.52        2976.25           2516        1941.00      8461.02
  166.56        2976.50           2520        1919.00      8365.06
  166.59        2976.75           2523        1902.00      8290.92
  166.62        2977.00           2527        1844.00      8037.94
  166.65        2977.25           2530        1846.00      8046.67
  166.68        2977.50           2534        1871.00      8155.70
  166.71        2977.75           2537        1794.00      7819.86
  166.74        2978.00           2541        1824.00      7950.71
  166.77        2978.25           2544        1809.00      7885.29
  166.80        2978.50           2548        1777.00      7745.72
  166.83        2978.75           2552        1792.00      7811.14
  166.86        2979.00           2555        1756.00      7654.13
  166.89        2979.25           2559        1736.00      7566.90
  166.92        2979.50           2562        1692.00      7375.00
  166.95        2979.75           2566        1711.00      7457.86
  166.98        2980.00           2569        1674.00      7296.49
  167.01        2980.25           2573        1700.00      7409.89
  167.05        2980.50           2577        1684.00      7340.11
  167.08        2980.75           2580        1658.00      7226.71
  167.11        2981.00           2584        1628.00      7095.87
  167.14        2981.25           2587        1671.00      7283.41
  167.17        2981.50           2591        1632.00      7113.32
  167.20        2981.75           2594        1651.00      7196.18
  167.23        2982.00           2598        1616.00      7043.54
  167.26        2982.25           2601        1623.00      7074.06
  167.29        2982.50           2605        1607.00      7004.28
  167.32        2982.75           2609        1640.00      7148.21
  167.35        2983.00           2612        1603.00      6986.84
  167.38        2983.25           2616        1647.00      7178.74
  167.41        2983.50           2619        1616.00      7043.54
  167.44        2983.75           2623        1615.00      7039.17
  167.47        2984.00           2626        1583.00      6899.61
HS scan finished at 02:47:42
end
************************************************************
  HS Scan of (1) Internal mercury lamp
************************************************************
Integration time is 0.2294 seconds per sample
dh270319Reading 51.44 .94 3.21pr1000
************************************************************
Dead Time -------------------------  3.4E-08 
Number of Cycles Used -------------  4 
Starting Wavelength (Angstroms) ---  2950 
Final Wavelength (Angstoms) -------  2984 
Wavelength Increment (Angstroms) --  .25 
Filter Wheel #1 Position ---------- (1) Ground quartz diffuser (ND=2.32)
Filter Wheel #2 Position ---------- (1) Neutral Density 0.494



************************************************************
HS scan start time = 19:37:30
Dark Count =  1.7 


Time (GMT)  Wavelength (Ang)  Step Number  Raw Counts  Counts/Second

 1178.39        2950.00           2144        1095.00      4766.68
 1178.58        2950.25           2147        1095.00      4766.68
 1178.61        2950.50           2151        1105.00      4810.29
 1178.64        2950.75           2155        1122.00      4884.42
 1178.68        2951.00           2158        1113.00      4845.18
 1178.71        2951.25           2162        1136.00      4945.47
 1178.74        2951.50           2165        1156.00      5032.68
 1178.77        2951.75           2169        1119.00      4871.34
 1178.81        2952.00           2172        1156.00      5032.68
 1178.84        2952.25           2176        1122.00      4884.42
 1178.87        2952.50           2179        1166.00      5076.29
 1178.90        2952.75           2183        1146.00      4989.08
 1178.94        2953.00           2186        1159.00      5045.77
 1178.97        2953.25           2190        1126.00      4901.86
 1179.00        2953.50           2193        1163.00      5063.21
 1179.03        2953.75           2197        1159.00      5045.77
 1179.06        2954.00           2200        1169.00      5089.37
 1179.10        2954.25           2204        1181.00      5141.70
 1179.13        2954.50           2208        1155.00      5028.32
 1179.16        2954.75           2211        1169.00      5089.37
 1179.19        2955.00           2215        1167.00      5080.65
 1179.22        2955.25           2218        1193.00      5194.03
 1179.25        2955.50           2222        1214.00      5285.61
 1179.28        2955.75           2225        1223.00      5324.85
 1179.31        2956.00           2229        1218.00      5303.05
 1179.34        2956.25           2232        1190.00      5180.95
 1179.37        2956.50           2236        1246.00      5425.15
 1179.40        2956.75           2239        1228.00      5346.66
 1179.43        2957.00           2243        1269.00      5525.45
 1179.46        2957.25           2246        1273.00      5542.89
 1179.49        2957.50           2250        1257.00      5473.12
 1179.52        2957.75           2254        1278.00      5564.70
 1179.55        2958.00           2257        1288.00      5608.31
 1179.58        2958.25           2261        1301.00      5665.00
 1179.61        2958.50           2264        1306.00      5686.80
 1179.65        2958.75           2268        1365.00      5944.10
 1179.68        2959.00           2271        1331.00      5795.82
 1179.71        2959.25           2275        1370.00      5965.90
 1179.74        2959.50           2278        1379.00      6005.15
 1179.77        2959.75           2282        1424.00      6201.40
 1179.80        2960.00           2285        1404.00      6114.18
 1179.83        2960.25           2289        1430.00      6227.56
 1179.86        2960.50           2293        1476.00      6428.17
 1179.89        2960.75           2296        1510.00      6576.45
 1179.92        2961.00           2300        1589.00      6920.98
 1179.95        2961.25           2303        1926.00      8390.80
 1179.98        2961.50           2307        4871.00     21241.58
 1180.01        2961.75           2310       12003.00     52409.35
 1180.04        2962.00           2314       26001.00    113775.40
 1180.07        2962.25           2317       38957.00    170802.90
 1180.10        2962.50           2321       59098.00    259899.00
 1180.13        2962.75           2324       74129.00    326745.40
 1180.17        2963.00           2328       92315.00    408033.50
 1180.20        2963.25           2331      105372.00    466676.40
 1180.23        2963.50           2335      125683.00    558370.10
 1180.26        2963.75           2339      146266.00    651884.50
 1180.29        2964.00           2342      161945.00    723524.30
 1180.32        2964.25           2346      183393.00    822099.60
 1180.35        2964.50           2349      196966.00    884829.30
 1180.38        2964.75           2353      215411.00    970513.60
 1180.41        2965.00           2356      230500.00   1040988.00
 1180.44        2965.25           2360      249660.00   1130974.00
 1180.47        2965.50           2363      263154.00   1194688.00
 1180.50        2965.75           2367      281570.00   1282100.00
 1180.53        2966.00           2370      294982.00   1346096.00
 1180.56        2966.25           2374      311122.00   1423489.00
 1180.59        2966.50           2378      323858.00   1484856.00
 1180.62        2966.75           2381      327717.00   1503502.00
 1180.65        2967.00           2385      330271.00   1515856.00
 1180.69        2967.25           2388      330018.00   1514632.00
 1180.72        2967.50           2392      330131.00   1515179.00
 1180.75        2967.75           2395      329927.00   1514192.00
 1180.78        2968.00           2399      326044.00   1495416.00
 1180.82        2968.25           2402      318894.00   1460907.00
 1180.85        2968.50           2406      304316.00   1390803.00
 1180.88        2968.75           2409      292125.00   1332440.00
 1180.91        2969.00           2413      274003.00   1246119.00
 1180.94        2969.25           2417      254346.00   1153068.00
 1180.97        2969.50           2420      241264.00   1091472.00
 1181.00        2969.75           2424      223326.00   1007438.00
 1181.03        2970.00           2427      208037.00    936197.70
 1181.06        2970.25           2431      188948.00    847740.00
 1181.09        2970.50           2434      174778.00    782424.50
 1181.12        2970.75           2438      155905.00    695884.80
 1181.16        2971.00           2441      140975.00    627788.60
 1181.19        2971.25           2445      120082.00    533026.80
 1181.22        2971.50           2449      100240.00    443598.90
 1181.25        2971.75           2452       85504.00    377536.60
 1181.28        2972.00           2456       66994.00    294976.30
 1181.31        2972.25           2459       53604.00    235541.80
 1181.34        2972.50           2463       34745.00    152238.90
 1181.37        2972.75           2466       20754.00     90742.92
 1181.40        2973.00           2470        6150.00     26826.11
 1181.43        2973.25           2473        2522.00     10990.59
 1181.46        2973.50           2477        1663.00      7243.72
 1181.49        2973.75           2481        1576.00      6864.29
 1181.52        2974.00           2484        1512.00      6585.17
 1181.55        2974.25           2488        1489.00      6484.87
 1181.58        2974.50           2491        1473.00      6415.09
 1181.61        2974.75           2495        1436.00      6253.73
 1181.64        2975.00           2498        1398.00      6088.01
 1181.67        2975.25           2502        1395.00      6074.93
 1181.71        2975.50           2505        1341.00      5839.43
 1181.74        2975.75           2509        1350.00      5878.68
 1181.77        2976.00           2512        1313.00      5717.33
 1181.80        2976.25           2516        1348.00      5869.96
 1181.83        2976.50           2520        1310.00      5704.25
 1181.86        2976.75           2523        1315.00      5726.05
 1181.89        2977.00           2527        1249.00      5438.23
 1181.92        2977.25           2530        1264.00      5503.65
 1181.95        2977.50           2534        1235.00      5377.18
 1181.98        2977.75           2537        1276.00      5555.98
 1182.01        2978.00           2541        1251.00      5446.96
 1182.04        2978.25           2544        1246.00      5425.15
 1182.07        2978.50           2548        1195.00      5202.75
 1182.10        2978.75           2552        1211.00      5272.52
 1182.13        2979.00           2555        1179.00      5132.98
 1182.16        2979.25           2559        1159.00      5045.77
 1182.19        2979.50           2562        1129.00      4914.95
 1182.23        2979.75           2566        1167.00      5080.65
 1182.26        2980.00           2569        1140.00      4962.91
 1182.29        2980.25           2573        1132.00      4928.03
 1182.32        2980.50           2577        1172.00      5102.45
 1182.35        2980.75           2580        1114.00      4849.54
 1182.38        2981.00           2584        1166.00      5076.29
 1182.41        2981.25           2587        1107.00      4819.01
 1182.44        2981.50           2591        1111.00      4836.45
 1182.47        2981.75           2594        1099.00      4784.13
 1182.50        2982.00           2598        1097.00      4775.41
 1182.53        2982.25           2601        1095.00      4766.68
 1182.56        2982.50           2605        1084.00      4718.72
 1182.59        2982.75           2609        1099.00      4784.13
 1182.62        2983.00           2612        1062.00      4622.78
 1182.65        2983.25           2616        1089.00      4740.52
 1182.68        2983.50           2619        1070.00      4657.67
 1182.72        2983.75           2623        1037.00      4513.77
 1182.75        2984.00           2626        1047.00      4557.38
HS scan finished at 19:42:58
end
