************************************************************
  HS Scan of 
************************************************************
Integration time is 0.2294 seconds per sample
dh210317Reading 51.44 .94 2.82pr1000
************************************************************
Dead Time -------------------------  3.4E-08 
Number of Cycles Used -------------  4 
Starting Wavelength (Angstroms) ---  2950 
Final Wavelength (Angstoms) -------  2984 
Wavelength Increment (Angstroms) --  .25 
Filter Wheel #1 Position ---------- (1) Ground quartz diffuser (ND=2.32)
Filter Wheel #2 Position ---------- (1) Neutral Density 0.494



************************************************************
HS scan start time = 03:03:54
Dark Count =  .4 


Time (GMT)  Wavelength (Ang)  Step Number  Raw Counts  Counts/Second

  184.80        2950.00           2144        1004.00      4375.54
  185.00        2950.25           2147        1014.00      4419.15
  185.03        2950.50           2151        1018.00      4436.59
  185.06        2950.75           2155        1011.00      4406.07
  185.09        2951.00           2158         978.00      4262.17
  185.12        2951.25           2162        1024.00      4462.75
  185.15        2951.50           2165        1013.00      4414.79
  185.18        2951.75           2169        1012.00      4410.43
  185.21        2952.00           2172        1026.00      4471.47
  185.24        2952.25           2176        1043.00      4545.60
  185.27        2952.50           2179        1025.00      4467.11
  185.30        2952.75           2183        1068.00      4654.62
  185.33        2953.00           2186        1066.00      4645.90
  185.36        2953.25           2190        1068.00      4654.62
  185.39        2953.50           2193        1043.00      4545.60
  185.42        2953.75           2197        1064.00      4637.17
  185.46        2954.00           2200        1074.00      4680.78
  185.49        2954.25           2204        1099.00      4789.79
  185.52        2954.50           2208        1080.00      4706.94
  185.55        2954.75           2211        1137.00      4955.50
  185.58        2955.00           2215        1106.00      4820.32
  185.61        2955.25           2218        1111.00      4842.12
  185.64        2955.50           2222        1088.00      4741.83
  185.67        2955.75           2225        1106.00      4820.32
  185.70        2956.00           2229        1103.00      4807.24
  185.73        2956.25           2232        1119.00      4877.01
  185.76        2956.50           2236        1123.00      4894.45
  185.79        2956.75           2239        1111.00      4842.12
  185.82        2957.00           2243        1173.00      5112.48
  185.85        2957.25           2246        1151.00      5016.55
  185.88        2957.50           2250        1187.00      5173.53
  185.91        2957.75           2254        1195.00      5208.42
  185.94        2958.00           2257        1188.00      5177.90
  185.97        2958.25           2261        1224.00      5334.88
  186.01        2958.50           2264        1228.00      5352.33
  186.04        2958.75           2268        1253.00      5461.35
  186.07        2959.00           2271        1244.00      5422.10
  186.10        2959.25           2275        1258.00      5483.15
  186.13        2959.50           2278        1296.00      5648.86
  186.16        2959.75           2282        1279.00      5574.73
  186.19        2960.00           2285        1321.00      5757.88
  186.22        2960.25           2289        1312.00      5718.64
  186.25        2960.50           2293        1356.00      5910.52
  186.28        2960.75           2296        1379.00      6010.82
  186.31        2961.00           2300        1447.00      6307.37
  186.34        2961.25           2303        1798.00      7838.18
  186.37        2961.50           2307        5410.00     23600.45
  186.40        2961.75           2310       13202.00     57661.32
  186.43        2962.00           2314       26999.00    118166.00
  186.46        2962.25           2317       39334.00    172471.40
  186.50        2962.50           2321       57492.00    252780.50
  186.53        2962.75           2324       71208.00    313736.90
  186.56        2963.00           2328       89037.00    393353.90
  186.59        2963.25           2331      103025.00    456123.70
  186.62        2963.50           2335      120677.00    535722.80
  186.65        2963.75           2339      138181.00    615086.30
  186.68        2964.00           2342      152762.00    681528.90
  186.71        2964.25           2346      172212.00    770634.00
  186.74        2964.50           2349      186137.00    834765.60
  186.78        2964.75           2353      204068.00    917767.00
  186.81        2965.00           2356      216557.00    975860.10
  186.84        2965.25           2360      232695.00   1051274.00
  186.87        2965.50           2363      244832.00   1108252.00
  186.90        2965.75           2367      260293.00   1181162.00
  186.93        2966.00           2370      271780.00   1235572.00
  186.96        2966.25           2374      288507.00   1315171.00
  186.99        2966.50           2378      300384.00   1371959.00
  187.03        2966.75           2381      303067.00   1384819.00
  187.06        2967.00           2385      303789.00   1388281.00
  187.09        2967.25           2388      302382.00   1381534.00
  187.12        2967.50           2392      303974.00   1389169.00
  187.15        2967.75           2395      303120.00   1385073.00
  187.18        2968.00           2399      297495.00   1358125.00
  187.21        2968.25           2402      287166.00   1308773.00
  187.24        2968.50           2406      272204.00   1237584.00
  187.27        2968.75           2409      261158.00   1185252.00
  187.30        2969.00           2413      245430.00   1111065.00
  187.33        2969.25           2417      229207.00   1034941.00
  187.37        2969.50           2420      215896.00    972779.50
  187.40        2969.75           2424      198071.00    889954.20
  187.43        2970.00           2427      183595.00    823037.20
  187.46        2970.25           2431      165869.00    741515.10
  187.49        2970.50           2434      153339.00    684164.50
  187.52        2970.75           2438      136130.00    605764.60
  187.55        2971.00           2441      122925.00    545891.10
  187.58        2971.25           2445      105648.00    467924.30
  187.61        2971.50           2449       87561.00    386746.20
  187.64        2971.75           2452       74058.00    326434.80
  187.67        2972.00           2456       55972.00    246041.00
  187.70        2972.25           2459       42332.00    185700.60
  187.73        2972.50           2463       25979.00    113684.40
  187.76        2972.75           2466       15892.00     69438.38
  187.79        2973.00           2470        5358.00     23373.41
  187.82        2973.25           2473        2310.00     10071.45
  187.85        2973.50           2477        1554.00      6774.01
  187.88        2973.75           2481        1509.00      6577.76
  187.92        2974.00           2484        1442.00      6285.56
  187.95        2974.25           2488        1398.00      6093.68
  187.98        2974.50           2491        1351.00      5888.71
  188.01        2974.75           2495        1356.00      5910.52
  188.04        2975.00           2498        1341.00      5845.10
  188.07        2975.25           2502        1262.00      5500.59
  188.10        2975.50           2505        1262.00      5500.59
  188.13        2975.75           2509        1225.00      5339.24
  188.16        2976.00           2512        1242.00      5413.38
  188.19        2976.25           2516        1211.00      5278.19
  188.22        2976.50           2520        1182.00      5151.73
  188.25        2976.75           2523        1208.00      5265.11
  188.28        2977.00           2527        1205.00      5252.03
  188.31        2977.25           2530        1162.00      5064.52
  188.34        2977.50           2534        1206.00      5256.39
  188.37        2977.75           2537        1138.00      4959.86
  188.40        2978.00           2541        1143.00      4981.66
  188.44        2978.25           2544        1126.00      4907.53
  188.47        2978.50           2548        1106.00      4820.32
  188.50        2978.75           2552        1104.00      4811.60
  188.53        2979.00           2555        1069.00      4658.98
  188.56        2979.25           2559        1098.00      4785.43
  188.59        2979.50           2562        1064.00      4637.17
  188.62        2979.75           2566        1099.00      4789.79
  188.65        2980.00           2569        1065.00      4641.53
  188.68        2980.25           2573        1062.00      4628.45
  188.71        2980.50           2577        1076.00      4689.50
  188.74        2980.75           2580        1046.00      4558.68
  188.77        2981.00           2584        1071.00      4667.70
  188.80        2981.25           2587        1048.00      4567.41
  188.83        2981.50           2591        1017.00      4432.23
  188.86        2981.75           2594        1015.00      4423.51
  188.89        2982.00           2598         993.00      4327.58
  188.92        2982.25           2601        1026.00      4471.47
  188.96        2982.50           2605        1008.00      4392.98
  188.99        2982.75           2609         987.00      4301.41
  189.02        2983.00           2612        1001.00      4362.46
  189.05        2983.25           2616        1009.00      4397.34
  189.08        2983.50           2619        1010.00      4401.71
  189.11        2983.75           2623         984.00      4288.33
  189.14        2984.00           2626         983.00      4283.97
HS scan finished at 03:09:22
end
************************************************************
  HS Scan of 
************************************************************
Integration time is 0.2294 seconds per sample
dh210317Reading 51.44 .94 3pr1000
************************************************************
Dead Time -------------------------  3.4E-08 
Number of Cycles Used -------------  4 
Starting Wavelength (Angstroms) ---  2950 
Final Wavelength (Angstoms) -------  2984 
Wavelength Increment (Angstroms) --  .25 
Filter Wheel #1 Position ---------- (1) Ground quartz diffuser (ND=2.32)
Filter Wheel #2 Position ---------- (1) Neutral Density 0.494



************************************************************
HS scan start time = 19:07:32
Dark Count =  .8 


Time (GMT)  Wavelength (Ang)  Step Number  Raw Counts  Counts/Second

 1148.43        2950.00           2144         943.00      4107.81
 1148.63        2950.25           2147         986.00      4295.31
 1148.66        2950.50           2151         993.00      4325.83
 1148.69        2950.75           2155         981.00      4273.51
 1148.72        2951.00           2158         995.00      4334.55
 1148.75        2951.25           2162         974.00      4242.98
 1148.78        2951.50           2165         987.00      4299.67
 1148.81        2951.75           2169         998.00      4347.64
 1148.84        2952.00           2172         978.00      4260.43
 1148.87        2952.25           2176        1004.00      4373.80
 1148.90        2952.50           2179        1004.00      4373.80
 1148.93        2952.75           2183        1028.00      4478.45
 1148.96        2953.00           2186        1001.00      4360.72
 1148.99        2953.25           2190        1018.00      4434.84
 1149.03        2953.50           2193        1026.00      4469.73
 1149.07        2953.75           2197        1053.00      4587.46
 1149.10        2954.00           2200        1034.00      4504.61
 1149.13        2954.25           2204        1052.00      4583.10
 1149.16        2954.50           2208        1045.00      4552.58
 1149.19        2954.75           2211        1059.00      4613.63
 1149.22        2955.00           2215        1035.00      4508.97
 1149.25        2955.25           2218        1064.00      4635.43
 1149.28        2955.50           2222        1064.00      4635.43
 1149.31        2955.75           2225        1065.00      4639.79
 1149.34        2956.00           2229        1061.00      4622.35
 1149.37        2956.25           2232        1086.00      4731.36
 1149.40        2956.50           2236        1099.00      4788.05
 1149.43        2956.75           2239        1090.00      4748.81
 1149.46        2957.00           2243        1089.00      4744.44
 1149.49        2957.25           2246        1132.00      4931.95
 1149.52        2957.50           2250        1094.00      4766.25
 1149.55        2957.75           2254        1102.00      4801.13
 1149.59        2958.00           2257        1154.00      5027.89
 1149.62        2958.25           2261        1134.00      4940.67
 1149.65        2958.50           2264        1151.00      5014.80
 1149.68        2958.75           2268        1141.00      4971.20
 1149.71        2959.00           2271        1182.00      5149.99
 1149.74        2959.25           2275        1191.00      5189.23
 1149.77        2959.50           2278        1215.00      5293.89
 1149.81        2959.75           2282        1186.00      5167.43
 1149.84        2960.00           2285        1214.00      5289.53
 1149.87        2960.25           2289        1283.00      5590.43
 1149.90        2960.50           2293        1263.00      5503.21
 1149.93        2960.75           2296        1260.00      5490.13
 1149.96        2961.00           2300        1311.00      5712.53
 1149.99        2961.25           2303        1490.00      6493.15
 1150.02        2961.50           2307        3193.00     13922.02
 1150.05        2961.75           2310        8365.00     36506.49
 1150.08        2962.00           2314       20211.00     88365.34
 1150.11        2962.25           2317       31189.00    136588.40
 1150.14        2962.50           2321       44972.00    197358.20
 1150.17        2962.75           2324       55568.00    244248.40
 1150.20        2963.00           2328       72014.00    317325.00
 1150.23        2963.25           2331       85137.00    375899.20
 1150.26        2963.50           2335      101778.00    450515.20
 1150.29        2963.75           2339      117010.00    519149.40
 1150.33        2964.00           2342      127508.00    566641.50
 1150.36        2964.25           2346      143458.00    639095.60
 1150.39        2964.50           2349      154569.00    689782.40
 1150.42        2964.75           2353      170290.00    761802.70
 1150.45        2965.00           2356      180944.00    810814.30
 1150.48        2965.25           2360      195388.00    877526.60
 1150.51        2965.50           2363      204983.00    922013.30
 1150.54        2965.75           2367      219769.00    990836.90
 1150.57        2966.00           2370      230532.00   1041142.00
 1150.60        2966.25           2374      243576.00   1102343.00
 1150.63        2966.50           2378      252462.00   1144185.00
 1150.66        2966.75           2381      255312.00   1157631.00
 1150.69        2967.00           2385      255966.00   1160718.00
 1150.72        2967.25           2388      256694.00   1164155.00
 1150.75        2967.50           2392      255665.00   1159297.00
 1150.78        2967.75           2395      255564.00   1158820.00
 1150.81        2968.00           2399      252109.00   1142521.00
 1150.85        2968.25           2402      244218.00   1105362.00
 1150.88        2968.50           2406      229751.00   1037486.00
 1150.91        2968.75           2409      218746.00    986064.70
 1150.94        2969.00           2413      205393.00    923917.30
 1150.97        2969.25           2417      191381.00    858988.60
 1151.00        2969.50           2420      181920.00    815312.40
 1151.03        2969.75           2424      165826.00    741316.10
 1151.06        2970.00           2427      154287.00    688493.80
 1151.09        2970.25           2431      139389.00    620577.50
 1151.12        2970.50           2434      128647.00    571803.50
 1151.15        2970.75           2438      113925.00    505222.60
 1151.18        2971.00           2441      101228.00    448043.00
 1151.21        2971.25           2445       84974.00    375170.30
 1151.24        2971.50           2449       69936.00    308071.50
 1151.27        2971.75           2452       59534.00    261837.70
 1151.30        2972.00           2456       45801.00    201021.40
 1151.33        2972.25           2459       34321.00    150375.40
 1151.37        2972.50           2463       19619.00     85769.37
 1151.40        2972.75           2466       10532.00     45979.41
 1151.43        2973.00           2470        3816.00     16640.63
 1151.46        2973.25           2473        1963.00      8556.11
 1151.49        2973.50           2477        1433.00      6244.57
 1151.52        2973.75           2481        1333.00      5808.47
 1151.55        2974.00           2484        1302.00      5673.28
 1151.58        2974.25           2488        1263.00      5503.21
 1151.61        2974.50           2491        1232.00      5368.02
 1151.64        2974.75           2495        1213.00      5285.17
 1151.67        2975.00           2498        1202.00      5237.20
 1151.70        2975.25           2502        1172.00      5106.38
 1151.73        2975.50           2505        1170.00      5097.66
 1151.76        2975.75           2509        1155.00      5032.25
 1151.79        2976.00           2512        1151.00      5014.80
 1151.82        2976.25           2516        1119.00      4875.26
 1151.85        2976.50           2520        1125.00      4901.43
 1151.89        2976.75           2523        1090.00      4748.81
 1151.92        2977.00           2527        1098.00      4783.69
 1151.95        2977.25           2530        1119.00      4875.26
 1151.98        2977.50           2534        1101.00      4796.77
 1152.01        2977.75           2537        1071.00      4665.95
 1152.04        2978.00           2541        1037.00      4517.70
 1152.07        2978.25           2544        1081.00      4709.56
 1152.10        2978.50           2548        1047.00      4561.30
 1152.13        2978.75           2552        1037.00      4517.70
 1152.16        2979.00           2555        1044.00      4548.22
 1152.19        2979.25           2559        1010.00      4399.96
 1152.22        2979.50           2562        1032.00      4495.89
 1152.25        2979.75           2566        1001.00      4360.72
 1152.28        2980.00           2569        1012.00      4408.68
 1152.31        2980.25           2573         926.00      4033.68
 1152.34        2980.50           2577        1027.00      4474.09
 1152.37        2980.75           2580        1002.00      4365.08
 1152.41        2981.00           2584         996.00      4338.91
 1152.44        2981.25           2587         971.00      4229.90
 1152.47        2981.50           2591         953.00      4151.41
 1152.50        2981.75           2594         947.00      4125.25
 1152.53        2982.00           2598         954.00      4155.77
 1152.56        2982.25           2601         969.00      4221.18
 1152.59        2982.50           2605         993.00      4325.83
 1152.62        2982.75           2609         928.00      4042.40
 1152.66        2983.00           2612         953.00      4151.41
 1152.70        2983.25           2616         966.00      4208.10
 1152.73        2983.50           2619         987.00      4299.67
 1152.76        2983.75           2623         938.00      4086.01
 1152.79        2984.00           2626         942.00      4103.45
HS scan finished at 19:13:01
end
