************************************************************
  HS Scan of (1) Internal mercury lamp
************************************************************
Integration time is 0.2294 seconds per sample
dh300318Reading 51.44 .94 2.6pr1000
************************************************************
Dead Time -------------------------  3.4E-08 
Number of Cycles Used -------------  4 
Starting Wavelength (Angstroms) ---  2950 
Final Wavelength (Angstoms) -------  2984 
Wavelength Increment (Angstroms) --  .25 
Filter Wheel #1 Position ---------- (1) Ground quartz diffuser (ND=2.32)
Filter Wheel #2 Position ---------- (1) Neutral Density 0.494



************************************************************
HS scan start time = 02:27:53
Dark Count =  .4 


Time (GMT)  Wavelength (Ang)  Step Number  Raw Counts  Counts/Second

  148.79        2950.00           2144         150.00       652.15
  148.98        2950.25           2147         138.00       599.84
  149.01        2950.50           2151         156.00       678.31
  149.04        2950.75           2155         144.00       625.99
  149.07        2951.00           2158         160.00       695.74
  149.10        2951.25           2162         146.00       634.71
  149.13        2951.50           2165         150.00       652.15
  149.16        2951.75           2169         157.00       682.67
  149.20        2952.00           2172         148.00       643.43
  149.23        2952.25           2176         155.00       673.95
  149.26        2952.50           2179         156.00       678.31
  149.29        2952.75           2183         150.00       652.15
  149.32        2953.00           2186         162.00       704.46
  149.35        2953.25           2190         148.00       643.43
  149.38        2953.50           2193         154.00       669.59
  149.41        2953.75           2197         155.00       673.95
  149.44        2954.00           2200         152.00       660.87
  149.47        2954.25           2204         158.00       687.03
  149.50        2954.50           2208         153.00       665.23
  149.53        2954.75           2211         154.00       669.59
  149.56        2955.00           2215         154.00       669.59
  149.59        2955.25           2218         155.00       673.95
  149.62        2955.50           2222         166.00       721.90
  149.65        2955.75           2225         169.00       734.98
  149.68        2956.00           2229         159.00       691.39
  149.72        2956.25           2232         152.00       660.87
  149.75        2956.50           2236         164.00       713.18
  149.78        2956.75           2239         172.00       748.06
  149.81        2957.00           2243         176.00       765.50
  149.84        2957.25           2246         180.00       782.93
  149.87        2957.50           2250         165.00       717.54
  149.90        2957.75           2254         175.00       761.14
  149.93        2958.00           2257         179.00       778.57
  149.96        2958.25           2261         187.00       813.45
  149.99        2958.50           2264         189.00       822.17
  150.02        2958.75           2268         192.00       835.25
  150.05        2959.00           2271         190.00       826.53
  150.08        2959.25           2275         201.00       874.48
  150.11        2959.50           2278         198.00       861.40
  150.14        2959.75           2282         206.00       896.28
  150.17        2960.00           2285         205.00       891.92
  150.20        2960.25           2289         205.00       891.92
  150.24        2960.50           2293         213.00       926.79
  150.27        2960.75           2296         212.00       922.44
  150.30        2961.00           2300         284.00      1236.32
  150.33        2961.25           2303         513.00      2234.69
  150.36        2961.50           2307        1772.00      7724.78
  150.39        2961.75           2310        3638.00     15865.58
  150.42        2962.00           2314        6727.00     29351.86
  150.45        2962.25           2317        9304.00     40612.27
  150.48        2962.50           2321       12557.00     54838.85
  150.51        2962.75           2324       14901.00     65098.60
  150.54        2963.00           2328       18511.00     80913.66
  150.57        2963.25           2331       21387.00     93525.34
  150.60        2963.50           2335       25452.00    111369.50
  150.63        2963.75           2339       28707.00    125673.60
  150.66        2964.00           2342       31088.00    136145.80
  150.69        2964.25           2346       34681.00    151962.70
  150.72        2964.50           2349       37687.00    165208.80
  150.76        2964.75           2353       41584.00    182398.80
  150.79        2965.00           2356       44173.00    193830.30
  150.82        2965.25           2360       47233.00    207353.00
  150.85        2965.50           2363       49486.00    217317.30
  150.88        2965.75           2367       53100.00    233315.20
  150.91        2966.00           2370       55720.00    244923.90
  150.94        2966.25           2374       59033.00    259616.40
  150.97        2966.50           2378       60983.00    268271.10
  151.00        2966.75           2381       61265.00    269523.10
  151.03        2967.00           2385       61691.00    271414.70
  151.06        2967.25           2388       61957.00    272595.90
  151.09        2967.50           2392       61619.00    271095.00
  151.12        2967.75           2395       61552.00    270797.50
  151.15        2968.00           2399       60201.00    264799.70
  151.18        2968.25           2402       58683.00    258063.50
  151.21        2968.50           2406       55066.00    242025.30
  151.25        2968.75           2409       52105.00    228909.00
  151.28        2969.00           2413       48499.00    212951.30
  151.31        2969.25           2417       45483.00    199617.90
  151.34        2969.50           2420       42805.00    187788.90
  151.37        2969.75           2424       39017.00    171073.30
  151.40        2970.00           2427       35980.00    157685.40
  151.44        2970.25           2431       31982.00    140079.70
  151.47        2970.50           2434       29355.00    128522.90
  151.50        2970.75           2438       25750.00    112678.50
  151.53        2971.00           2441       22876.00    100059.10
  151.56        2971.25           2445       19475.00     85139.74
  151.59        2971.50           2449       15975.00     69801.91
  151.62        2971.75           2452       13113.00     57271.84
  151.65        2972.00           2456        9355.00     40835.21
  151.68        2972.25           2459        6679.00     29142.20
  151.71        2972.50           2463        3586.00     15638.65
  151.74        2972.75           2466        1754.00      7646.28
  151.77        2973.00           2470         612.00      2666.33
  151.80        2973.25           2473         324.00      1410.70
  151.83        2973.50           2477         257.00      1118.61
  151.86        2973.75           2481         245.00      1066.30
  151.89        2974.00           2484         221.00       961.67
  151.92        2974.25           2488         220.00       957.31
  151.96        2974.50           2491         220.00       957.31
  151.99        2974.75           2495         206.00       896.28
  152.02        2975.00           2498         197.00       857.04
  152.05        2975.25           2502         212.00       922.44
  152.08        2975.50           2505         196.00       852.68
  152.11        2975.75           2509         197.00       857.04
  152.14        2976.00           2512         195.00       848.32
  152.17        2976.25           2516         186.00       809.09
  152.20        2976.50           2520         180.00       782.93
  152.23        2976.75           2523         173.00       752.42
  152.26        2977.00           2527         177.00       769.85
  152.29        2977.25           2530         168.00       730.62
  152.32        2977.50           2534         174.00       756.78
  152.35        2977.75           2537         180.00       782.93
  152.38        2978.00           2541         154.00       669.59
  152.41        2978.25           2544         181.00       787.29
  152.44        2978.50           2548         161.00       700.10
  152.47        2978.75           2552         167.00       726.26
  152.51        2979.00           2555         163.00       708.82
  152.54        2979.25           2559         166.00       721.90
  152.57        2979.50           2562         156.00       678.31
  152.60        2979.75           2566         167.00       726.26
  152.63        2980.00           2569         162.00       704.46
  152.66        2980.25           2573         151.00       656.51
  152.69        2980.50           2577         168.00       730.62
  152.72        2980.75           2580         161.00       700.10
  152.75        2981.00           2584         159.00       691.39
  152.78        2981.25           2587         165.00       717.54
  152.81        2981.50           2591         152.00       660.87
  152.84        2981.75           2594         150.00       652.15
  152.87        2982.00           2598         147.00       639.07
  152.90        2982.25           2601         167.00       726.26
  152.93        2982.50           2605         167.00       726.26
  152.96        2982.75           2609         162.00       704.46
  152.99        2983.00           2612         132.00       573.68
  153.03        2983.25           2616         147.00       639.07
  153.06        2983.50           2619         157.00       682.67
  153.09        2983.75           2623         135.00       586.76
  153.12        2984.00           2626         146.00       634.71
HS scan finished at 02:33:21
end
************************************************************
  HS Scan of (1) Internal mercury lamp
************************************************************
Integration time is 0.2294 seconds per sample
dh300318Reading 51.44 .94 2.76pr1000
************************************************************
Dead Time -------------------------  3.4E-08 
Number of Cycles Used -------------  4 
Starting Wavelength (Angstroms) ---  2950 
Final Wavelength (Angstoms) -------  2984 
Wavelength Increment (Angstroms) --  .25 
Filter Wheel #1 Position ---------- (1) Ground quartz diffuser (ND=2.32)
Filter Wheel #2 Position ---------- (1) Neutral Density 0.494



************************************************************
HS scan start time = 19:37:30
Dark Count =  .5 


Time (GMT)  Wavelength (Ang)  Step Number  Raw Counts  Counts/Second

 1178.40        2950.00           2144         137.00       595.04
 1178.59        2950.25           2147         154.00       669.15
 1178.62        2950.50           2151         133.00       577.61
 1178.65        2950.75           2155         161.00       699.67
 1178.68        2951.00           2158         169.00       734.54
 1178.71        2951.25           2162         149.00       647.36
 1178.75        2951.50           2165         139.00       603.76
 1178.78        2951.75           2169         163.00       708.39
 1178.81        2952.00           2172         151.00       656.07
 1178.84        2952.25           2176         153.00       664.79
 1178.87        2952.50           2179         141.00       612.48
 1178.90        2952.75           2183         128.00       555.81
 1178.93        2953.00           2186         136.00       590.68
 1178.96        2953.25           2190         158.00       686.59
 1178.99        2953.50           2193         143.00       621.20
 1179.02        2953.75           2197         134.00       581.96
 1179.05        2954.00           2200         144.00       625.56
 1179.08        2954.25           2204         151.00       656.07
 1179.11        2954.50           2208         144.00       625.56
 1179.14        2954.75           2211         160.00       695.31
 1179.17        2955.00           2215         143.00       621.20
 1179.20        2955.25           2218         168.00       730.18
 1179.23        2955.50           2222         154.00       669.15
 1179.27        2955.75           2225         142.00       616.84
 1179.30        2956.00           2229         156.00       677.87
 1179.33        2956.25           2232         159.00       690.95
 1179.36        2956.50           2236         165.00       717.11
 1179.39        2956.75           2239         154.00       669.15
 1179.42        2957.00           2243         161.00       699.67
 1179.45        2957.25           2246         162.00       704.03
 1179.48        2957.50           2250         157.00       682.23
 1179.51        2957.75           2254         165.00       717.11
 1179.54        2958.00           2257         157.00       682.23
 1179.57        2958.25           2261         171.00       743.26
 1179.60        2958.50           2264         171.00       743.26
 1179.63        2958.75           2268         176.00       765.06
 1179.66        2959.00           2271         184.00       799.93
 1179.69        2959.25           2275         185.00       804.29
 1179.72        2959.50           2278         183.00       795.58
 1179.76        2959.75           2282         197.00       856.61
 1179.79        2960.00           2285         183.00       795.58
 1179.82        2960.25           2289         193.00       839.17
 1179.85        2960.50           2293         212.00       922.00
 1179.88        2960.75           2296         216.00       939.44
 1179.91        2961.00           2300         268.00      1166.13
 1179.94        2961.25           2303         545.00      2373.78
 1179.97        2961.50           2307        2069.00      9019.77
 1180.00        2961.75           2310        3885.00     16943.06
 1180.03        2962.00           2314        6732.00     29373.26
 1180.06        2962.25           2317        9174.00     40043.59
 1180.09        2962.50           2321       12515.00     54654.65
 1180.12        2962.75           2324       15266.00     66696.41
 1180.15        2963.00           2328       18593.00     81272.66
 1180.18        2963.25           2331       20889.00     91340.34
 1180.21        2963.50           2335       24369.00    106612.90
 1180.24        2963.75           2339       27977.00    122464.00
 1180.27        2964.00           2342       30745.00    134636.30
 1180.31        2964.25           2346       34438.00    150892.00
 1180.34        2964.50           2349       36863.00    161576.10
 1180.37        2964.75           2353       40056.00    175655.80
 1180.40        2965.00           2356       42603.00    186896.60
 1180.43        2965.25           2360       45678.00    200479.20
 1180.46        2965.50           2363       48037.00    210907.60
 1180.49        2965.75           2367       51395.00    225765.20
 1180.52        2966.00           2370       53747.00    236180.60
 1180.55        2966.25           2374       56469.00    248243.80
 1180.58        2966.50           2378       57822.00    254243.70
 1180.61        2966.75           2381       58325.00    256474.80
 1180.64        2967.00           2385       58463.00    257087.00
 1180.67        2967.25           2388       58469.00    257113.70
 1180.70        2967.50           2392       58396.00    256789.80
 1180.73        2967.75           2395       58039.00    255206.20
 1180.76        2968.00           2399       56492.00    248345.80
 1180.79        2968.25           2402       54379.00    238980.60
 1180.83        2968.50           2406       51240.00    225079.00
 1180.86        2968.75           2409       48944.00    214919.20
 1180.89        2969.00           2413       45720.00    200664.80
 1180.92        2969.25           2417       42082.00    184596.60
 1180.95        2969.50           2420       39637.00    173807.40
 1180.98        2969.75           2424       36494.00    159949.90
 1181.01        2970.00           2427       33908.00    148558.00
 1181.04        2970.25           2431       30696.00    134420.70
 1181.07        2970.50           2434       27753.00    121479.40
 1181.10        2970.75           2438       24607.00    107658.00
 1181.13        2971.00           2441       21739.00     95069.24
 1181.16        2971.25           2445       18095.00     79089.90
 1181.19        2971.50           2449       14558.00     63596.39
 1181.22        2971.75           2452       12063.00     52677.09
 1181.25        2972.00           2456        8899.00     38841.58
 1181.28        2972.25           2459        6590.00     28753.03
 1181.31        2972.50           2463        3641.00     15878.23
 1181.35        2972.75           2466        1695.00      7388.52
 1181.38        2973.00           2470         469.00      2042.43
 1181.41        2973.25           2473         262.00      1139.97
 1181.44        2973.50           2477         233.00      1013.55
 1181.47        2973.75           2481         210.00       913.28
 1181.50        2974.00           2484         231.00      1004.83
 1181.53        2974.25           2488         208.00       904.56
 1181.56        2974.50           2491         187.00       813.01
 1181.59        2974.75           2495         182.00       791.22
 1181.62        2975.00           2498         185.00       804.29
 1181.65        2975.25           2502         182.00       791.22
 1181.68        2975.50           2505         176.00       765.06
 1181.71        2975.75           2509         162.00       704.03
 1181.74        2976.00           2512         174.00       756.34
 1181.77        2976.25           2516         176.00       765.06
 1181.80        2976.50           2520         161.00       699.67
 1181.83        2976.75           2523         163.00       708.39
 1181.87        2977.00           2527         157.00       682.23
 1181.90        2977.25           2530         157.00       682.23
 1181.93        2977.50           2534         150.00       651.71
 1181.96        2977.75           2537         157.00       682.23
 1181.99        2978.00           2541         167.00       725.82
 1182.02        2978.25           2544         151.00       656.07
 1182.05        2978.50           2548         160.00       695.31
 1182.08        2978.75           2552         151.00       656.07
 1182.11        2979.00           2555         149.00       647.36
 1182.14        2979.25           2559         148.00       643.00
 1182.17        2979.50           2562         149.00       647.36
 1182.20        2979.75           2566         147.00       638.64
 1182.23        2980.00           2569         131.00       568.89
 1182.26        2980.25           2573         157.00       682.23
 1182.29        2980.50           2577         153.00       664.79
 1182.32        2980.75           2580         140.00       608.12
 1182.36        2981.00           2584         148.00       643.00
 1182.39        2981.25           2587         143.00       621.20
 1182.42        2981.50           2591         153.00       664.79
 1182.45        2981.75           2594         134.00       581.96
 1182.48        2982.00           2598         151.00       656.07
 1182.51        2982.25           2601         145.00       629.92
 1182.54        2982.50           2605         151.00       656.07
 1182.57        2982.75           2609         150.00       651.71
 1182.60        2983.00           2612         151.00       656.07
 1182.63        2983.25           2616         128.00       555.81
 1182.66        2983.50           2619         129.00       560.17
 1182.69        2983.75           2623         139.00       603.76
 1182.72        2984.00           2626         146.00       634.28
HS scan finished at 19:42:57
end
