************************************************************
  HS Scan of (1) Internal mercury lamp
************************************************************
Integration time is 0.2294 seconds per sample
dh300319Reading 51.44 .94 2.8pr1000
************************************************************
Dead Time -------------------------  3.4E-08 
Number of Cycles Used -------------  4 
Starting Wavelength (Angstroms) ---  2950 
Final Wavelength (Angstoms) -------  2984 
Wavelength Increment (Angstroms) --  .25 
Filter Wheel #1 Position ---------- (1) Ground quartz diffuser (ND=2.32)
Filter Wheel #2 Position ---------- (1) Neutral Density 0.494



************************************************************
HS scan start time = 02:29:05
Dark Count =  .5 


Time (GMT)  Wavelength (Ang)  Step Number  Raw Counts  Counts/Second

  149.98        2950.00           2144        1689.00      7362.35
  150.18        2950.25           2147        1712.00      7462.66
  150.21        2950.50           2151        1714.00      7471.38
  150.24        2950.75           2155        1725.00      7519.36
  150.27        2951.00           2158        1689.00      7362.35
  150.30        2951.25           2162        1708.00      7445.22
  150.33        2951.50           2165        1725.00      7519.36
  150.36        2951.75           2169        1743.00      7597.86
  150.39        2952.00           2172        1744.00      7602.23
  150.42        2952.25           2176        1763.00      7685.09
  150.45        2952.50           2179        1705.00      7432.13
  150.48        2952.75           2183        1733.00      7554.25
  150.51        2953.00           2186        1799.00      7842.11
  150.54        2953.25           2190        1781.00      7763.60
  150.57        2953.50           2193        1736.00      7567.34
  150.61        2953.75           2197        1723.00      7510.64
  150.64        2954.00           2200        1738.00      7576.06
  150.67        2954.25           2204        1797.00      7833.39
  150.70        2954.50           2208        1792.00      7811.58
  150.73        2954.75           2211        1773.00      7728.71
  150.76        2955.00           2215        1808.00      7881.36
  150.79        2955.25           2218        1816.00      7916.25
  150.82        2955.50           2222        1844.00      8038.38
  150.85        2955.75           2225        1836.00      8003.49
  150.88        2956.00           2229        1893.00      8252.10
  150.91        2956.25           2232        1834.00      7994.76
  150.94        2956.50           2236        1868.00      8143.06
  150.97        2956.75           2239        1841.00      8025.29
  151.00        2957.00           2243        1886.00      8221.57
  151.03        2957.25           2246        1890.00      8239.01
  151.06        2957.50           2250        1933.00      8426.56
  151.09        2957.75           2254        1958.00      8535.61
  151.13        2958.00           2257        1954.00      8518.16
  151.16        2958.25           2261        1964.00      8561.78
  151.19        2958.50           2264        1982.00      8640.29
  151.22        2958.75           2268        1972.00      8596.67
  151.25        2959.00           2271        2023.00      8819.12
  151.28        2959.25           2275        2017.00      8792.95
  151.31        2959.50           2278        2050.00      8936.89
  151.34        2959.75           2282        2082.00      9076.47
  151.37        2960.00           2285        2135.00      9307.65
  151.40        2960.25           2289        2144.00      9346.91
  151.43        2960.50           2293        2237.00      9752.58
  151.46        2960.75           2296        2227.00      9708.96
  151.49        2961.00           2300        2382.00     10385.10
  151.52        2961.25           2303        3221.00     14045.50
  151.55        2961.50           2307        9700.00     42342.96
  151.58        2961.75           2310       20414.00     89256.96
  151.61        2962.00           2314       39569.00    173507.50
  151.65        2962.25           2317       57066.00    250890.90
  151.68        2962.50           2321       81918.00    361510.90
  151.71        2962.75           2324      100500.00    444772.60
  151.74        2963.00           2328      127631.00    567200.20
  151.77        2963.25           2331      147248.00    656366.60
  151.80        2963.50           2335      172982.00    774172.40
  151.83        2963.75           2339      200037.00    899065.70
  151.86        2964.00           2342      219917.00    991528.80
  151.89        2964.25           2346      247378.00   1120233.00
  151.93        2964.50           2349      267599.00   1215744.00
  151.96        2964.75           2353      293092.00   1337066.00
  151.99        2965.00           2356      311410.00   1424880.00
  152.02        2965.25           2360      335282.00   1540132.00
  152.05        2965.50           2363      353271.00   1627598.00
  152.08        2965.75           2367      375638.00   1737103.00
  152.11        2966.00           2370      391726.00   1816391.00
  152.14        2966.25           2374      413211.00   1922970.00
  152.17        2966.50           2378      430375.00   2008693.00
  152.20        2966.75           2381      434029.00   2027009.00
  152.23        2967.00           2385      435103.00   2032397.00
  152.26        2967.25           2388      435143.00   2032598.00
  152.29        2967.50           2392      435223.00   2032999.00
  152.32        2967.75           2395      434201.00   2027872.00
  152.36        2968.00           2399      425144.00   1982513.00
  152.39        2968.25           2402      412312.00   1918495.00
  152.42        2968.50           2406      392631.00   1820864.00
  152.45        2968.75           2409      375280.00   1735344.00
  152.48        2969.00           2413      351361.00   1618286.00
  152.51        2969.25           2417      329444.00   1511861.00
  152.54        2969.50           2420      312008.00   1427756.00
  152.57        2969.75           2424      284839.00   1297678.00
  152.60        2970.00           2427      264798.00   1202476.00
  152.63        2970.25           2431      239231.00   1081929.00
  152.66        2970.50           2434      219981.00    991827.50
  152.69        2970.75           2438      195559.00    878319.60
  152.72        2971.00           2441      176858.00    791999.30
  152.75        2971.25           2445      153219.00    683615.80
  152.78        2971.50           2449      126725.00    563095.30
  152.81        2971.75           2452      105925.00    469170.60
  152.84        2972.00           2456       78494.00    346220.40
  152.88        2972.25           2459       59642.00    262318.30
  152.91        2972.50           2463       36572.00    160293.60
  152.94        2972.75           2466       21277.00     93042.34
  152.97        2973.00           2470        7327.00     31972.40
  153.00        2973.25           2473        3483.00     15188.75
  153.03        2973.50           2477        2425.00     10572.68
  153.06        2973.75           2481        2326.00     10140.81
  153.09        2974.00           2484        2261.00      9857.27
  153.12        2974.25           2488        2183.00      9517.03
  153.15        2974.50           2491        2164.00      9434.15
  153.18        2974.75           2495        2148.00      9364.36
  153.21        2975.00           2498        2049.00      8932.53
  153.24        2975.25           2502        2089.00      9107.01
  153.27        2975.50           2505        2040.00      8893.27
  153.30        2975.75           2509        2005.00      8740.61
  153.33        2976.00           2512        1989.00      8670.82
  153.36        2976.25           2516        2010.00      8762.42
  153.39        2976.50           2520        1885.00      8217.20
  153.43        2976.75           2523        1948.00      8491.99
  153.46        2977.00           2527        1887.00      8225.93
  153.49        2977.25           2530        1882.00      8204.12
  153.52        2977.50           2534        1870.00      8151.78
  153.55        2977.75           2537        1836.00      8003.49
  153.58        2978.00           2541        1821.00      7938.06
  153.61        2978.25           2544        1819.00      7929.34
  153.64        2978.50           2548        1767.00      7702.54
  153.67        2978.75           2552        1785.00      7781.05
  153.70        2979.00           2555        1758.00      7663.29
  153.73        2979.25           2559        1753.00      7641.48
  153.76        2979.50           2562        1743.00      7597.86
  153.79        2979.75           2566        1696.00      7392.88
  153.82        2980.00           2569        1718.00      7488.83
  153.85        2980.25           2573        1719.00      7493.19
  153.88        2980.50           2577        1679.00      7318.74
  153.91        2980.75           2580        1709.00      7449.58
  153.95        2981.00           2584        1700.00      7410.32
  153.98        2981.25           2587        1684.00      7340.54
  154.01        2981.50           2591        1690.00      7366.71
  154.04        2981.75           2594        1650.00      7192.26
  154.07        2982.00           2598        1707.00      7440.85
  154.10        2982.25           2601        1616.00      7043.97
  154.13        2982.50           2605        1634.00      7122.47
  154.16        2982.75           2609        1698.00      7401.60
  154.19        2983.00           2612        1637.00      7135.56
  154.22        2983.25           2616        1635.00      7126.84
  154.25        2983.50           2619        1618.00      7052.69
  154.28        2983.75           2623        1614.00      7035.25
  154.31        2984.00           2626        1623.00      7074.50
HS scan finished at 02:34:32
end
************************************************************
  HS Scan of (1) Internal mercury lamp
************************************************************
Integration time is 0.2294 seconds per sample
dh300319Reading 51.44 .94 3.37pr1000
************************************************************
Dead Time -------------------------  3.4E-08 
Number of Cycles Used -------------  4 
Starting Wavelength (Angstroms) ---  2950 
Final Wavelength (Angstoms) -------  2984 
Wavelength Increment (Angstroms) --  .25 
Filter Wheel #1 Position ---------- (1) Ground quartz diffuser (ND=2.32)
Filter Wheel #2 Position ---------- (1) Neutral Density 0.494



************************************************************
HS scan start time = 19:37:30
Dark Count =  2.2 


Time (GMT)  Wavelength (Ang)  Step Number  Raw Counts  Counts/Second

 1178.41        2950.00           2144        1303.00      5671.54
 1178.60        2950.25           2147        1281.00      5575.60
 1178.63        2950.50           2151        1256.00      5466.58
 1178.66        2950.75           2155        1296.00      5641.01
 1178.69        2951.00           2158        1284.00      5588.68
 1178.72        2951.25           2162        1347.00      5863.42
 1178.75        2951.50           2165        1317.00      5732.59
 1178.78        2951.75           2169        1308.00      5693.34
 1178.81        2952.00           2172        1316.00      5728.23
 1178.84        2952.25           2176        1314.00      5719.51
 1178.87        2952.50           2179        1310.00      5702.06
 1178.91        2952.75           2183        1361.00      5924.47
 1178.94        2953.00           2186        1324.00      5763.12
 1178.97        2953.25           2190        1334.00      5806.73
 1179.00        2953.50           2193        1305.00      5680.26
 1179.03        2953.75           2197        1320.00      5745.67
 1179.06        2954.00           2200        1385.00      6029.14
 1179.09        2954.25           2204        1383.00      6020.41
 1179.12        2954.50           2208        1373.00      5976.80
 1179.15        2954.75           2211        1398.00      6085.83
 1179.18        2955.00           2215        1396.00      6077.11
 1179.21        2955.25           2218        1406.00      6120.72
 1179.24        2955.50           2222        1418.00      6173.05
 1179.27        2955.75           2225        1414.00      6155.60
 1179.30        2956.00           2229        1383.00      6020.41
 1179.33        2956.25           2232        1437.00      6255.91
 1179.36        2956.50           2236        1472.00      6408.55
 1179.39        2956.75           2239        1427.00      6212.30
 1179.43        2957.00           2243        1449.00      6308.24
 1179.46        2957.25           2246        1480.00      6443.43
 1179.49        2957.50           2250        1504.00      6548.10
 1179.52        2957.75           2254        1481.00      6447.80
 1179.55        2958.00           2257        1553.00      6761.80
 1179.58        2958.25           2261        1533.00      6674.58
 1179.61        2958.50           2264        1529.00      6657.13
 1179.64        2958.75           2268        1546.00      6731.27
 1179.67        2959.00           2271        1533.00      6674.58
 1179.70        2959.25           2275        1596.00      6949.33
 1179.73        2959.50           2278        1632.00      7106.34
 1179.76        2959.75           2282        1660.00      7228.46
 1179.79        2960.00           2285        1653.00      7197.93
 1179.82        2960.25           2289        1684.00      7333.13
 1179.85        2960.50           2293        1697.00      7389.83
 1179.88        2960.75           2296        1789.00      7791.08
 1179.91        2961.00           2300        1879.00      8183.62
 1179.94        2961.25           2303        2196.00      9566.32
 1179.98        2961.50           2307        5530.00     24116.54
 1180.01        2961.75           2310       13899.00     60704.06
 1180.04        2962.00           2314       30579.00    133898.50
 1180.07        2962.25           2317       45659.00    200387.70
 1180.10        2962.50           2321       69393.00    305648.10
 1180.13        2962.75           2324       87755.00    387606.40
 1180.16        2963.00           2328      112360.00    498156.30
 1180.19        2963.25           2331      129910.00    577523.40
 1180.22        2963.50           2335      152234.00    679109.40
 1180.25        2963.75           2339      174781.00    782435.90
 1180.28        2964.00           2342      192478.00    864055.00
 1180.31        2964.25           2346      218126.00    983166.60
 1180.34        2964.50           2349      236546.00   1069320.00
 1180.37        2964.75           2353      258663.00   1173450.00
 1180.40        2965.00           2356      277302.00   1261792.00
 1180.43        2965.25           2360      297277.00   1357073.00
 1180.46        2965.50           2363      310444.00   1420228.00
 1180.50        2965.75           2367      333094.00   1529521.00
 1180.53        2966.00           2370      349781.00   1610579.00
 1180.56        2966.25           2374      371344.00   1716007.00
 1180.59        2966.50           2378      386948.00   1792789.00
 1180.62        2966.75           2381      392328.00   1819358.00
 1180.65        2967.00           2385      394785.00   1831509.00
 1180.68        2967.25           2388      395018.00   1832661.00
 1180.71        2967.50           2392      394442.00   1829812.00
 1180.74        2967.75           2395      394776.00   1831464.00
 1180.77        2968.00           2399      391507.00   1815300.00
 1180.80        2968.25           2402      382137.00   1769071.00
 1180.83        2968.50           2406      364659.00   1683238.00
 1180.86        2968.75           2409      350780.00   1615446.00
 1180.89        2969.00           2413      330153.00   1515283.00
 1180.92        2969.25           2417      308707.00   1411880.00
 1180.95        2969.50           2420      291709.00   1330450.00
 1180.98        2969.75           2424      270121.00   1227692.00
 1181.02        2970.00           2427      253330.00   1148272.00
 1181.05        2970.25           2431      229359.00   1035644.00
 1181.08        2970.50           2434      210953.00    949755.60
 1181.11        2970.75           2438      188663.00    846421.10
 1181.14        2971.00           2441      171771.00    768599.40
 1181.17        2971.25           2445      145891.00    650173.10
 1181.20        2971.50           2449      120999.00    537170.80
 1181.23        2971.75           2452      102616.00    454276.50
 1181.26        2972.00           2456       78425.00    345904.80
 1181.29        2972.25           2459       61006.00    268365.20
 1181.32        2972.50           2463       37919.00    166223.60
 1181.35        2972.75           2466       22285.00     97457.53
 1181.38        2973.00           2470        7495.00     32698.93
 1181.41        2973.25           2473        3224.00     14051.18
 1181.44        2973.50           2477        1991.00      8672.13
 1181.47        2973.75           2481        1866.00      8126.92
 1181.50        2974.00           2484        1761.00      7668.96
 1181.54        2974.25           2488        1764.00      7682.04
 1181.57        2974.50           2491        1711.00      7450.89
 1181.60        2974.75           2495        1695.00      7381.10
 1181.63        2975.00           2498        1662.00      7237.18
 1181.66        2975.25           2502        1623.00      7067.09
 1181.69        2975.50           2505        1588.00      6914.44
 1181.72        2975.75           2509        1584.00      6897.00
 1181.75        2976.00           2512        1593.00      6936.25
 1181.78        2976.25           2516        1542.00      6713.83
 1181.81        2976.50           2520        1530.00      6661.49
 1181.84        2976.75           2523        1562.00      6801.05
 1181.87        2977.00           2527        1463.00      6369.30
 1181.90        2977.25           2530        1449.00      6308.24
 1181.93        2977.50           2534        1449.00      6308.24
 1181.96        2977.75           2537        1428.00      6216.66
 1181.99        2978.00           2541        1403.00      6107.63
 1182.02        2978.25           2544        1383.00      6020.41
 1182.06        2978.50           2548        1413.00      6151.24
 1182.09        2978.75           2552        1387.00      6037.86
 1182.12        2979.00           2555        1377.00      5994.25
 1182.15        2979.25           2559        1342.00      5841.61
 1182.18        2979.50           2562        1375.00      5985.53
 1182.21        2979.75           2566        1324.00      5763.12
 1182.24        2980.00           2569        1319.00      5741.31
 1182.27        2980.25           2573        1290.00      5614.85
 1182.30        2980.50           2577        1318.00      5736.95
 1182.33        2980.75           2580        1327.00      5776.20
 1182.36        2981.00           2584        1300.00      5658.46
 1182.39        2981.25           2587        1277.00      5558.16
 1182.42        2981.50           2591        1272.00      5536.35
 1182.45        2981.75           2594        1263.00      5497.10
 1182.48        2982.00           2598        1266.00      5510.19
 1182.51        2982.25           2601        1262.00      5492.74
 1182.54        2982.50           2605        1248.00      5431.69
 1182.58        2982.75           2609        1227.00      5340.12
 1182.61        2983.00           2612        1268.00      5518.91
 1182.64        2983.25           2616        1235.00      5375.00
 1182.67        2983.50           2619        1239.00      5392.45
 1182.70        2983.75           2623        1259.00      5479.66
 1182.73        2984.00           2626        1211.00      5270.34
HS scan finished at 19:42:57
end
