************************************************************
  HS Scan of 
************************************************************
Integration time is 0.2294 seconds per sample
dh270317Reading 51.44 .94 2.76pr1000
************************************************************
Dead Time -------------------------  3.4E-08 
Number of Cycles Used -------------  4 
Starting Wavelength (Angstroms) ---  2950 
Final Wavelength (Angstoms) -------  2984 
Wavelength Increment (Angstroms) --  .25 
Filter Wheel #1 Position ---------- (1) Ground quartz diffuser (ND=2.32)
Filter Wheel #2 Position ---------- (1) Neutral Density 0.494



************************************************************
HS scan start time = 02:40:14
Dark Count =  .5 


Time (GMT)  Wavelength (Ang)  Step Number  Raw Counts  Counts/Second

  161.13        2950.00           2144         932.00      4061.15
  161.32        2950.25           2147         935.00      4074.23
  161.35        2950.50           2151         970.00      4226.85
  161.38        2950.75           2155         969.00      4222.49
  161.41        2951.00           2158         937.00      4082.96
  161.45        2951.25           2162         962.00      4191.97
  161.48        2951.50           2165         995.00      4335.86
  161.51        2951.75           2169         947.00      4126.56
  161.54        2952.00           2172         970.00      4226.85
  161.57        2952.25           2176         957.00      4170.16
  161.60        2952.50           2179         994.00      4331.50
  161.63        2952.75           2183         975.00      4248.65
  161.66        2953.00           2186        1033.00      4501.56
  161.69        2953.25           2190         992.00      4322.78
  161.72        2953.50           2193         988.00      4305.34
  161.75        2953.75           2197         993.00      4327.14
  161.78        2954.00           2200         981.00      4274.82
  161.81        2954.25           2204         961.00      4187.61
  161.84        2954.50           2208         988.00      4305.34
  161.87        2954.75           2211        1003.00      4370.75
  161.90        2955.00           2215        1002.00      4366.39
  161.93        2955.25           2218        1035.00      4510.28
  161.97        2955.50           2222        1027.00      4475.40
  162.00        2955.75           2225        1013.00      4414.35
  162.03        2956.00           2229        1035.00      4510.28
  162.06        2956.25           2232        1074.00      4680.34
  162.09        2956.50           2236        1081.00      4710.87
  162.12        2956.75           2239        1063.00      4632.38
  162.15        2957.00           2243        1106.00      4819.88
  162.18        2957.25           2246        1074.00      4680.34
  162.21        2957.50           2250        1074.00      4680.34
  162.24        2957.75           2254        1110.00      4837.33
  162.27        2958.00           2257        1110.00      4837.33
  162.30        2958.25           2261        1089.00      4745.75
  162.33        2958.50           2264        1169.00      5094.61
  162.36        2958.75           2268        1133.00      4937.62
  162.39        2959.00           2271        1204.00      5247.23
  162.42        2959.25           2275        1188.00      5177.46
  162.45        2959.50           2278        1211.00      5277.76
  162.49        2959.75           2282        1187.00      5173.10
  162.52        2960.00           2285        1226.00      5343.17
  162.55        2960.25           2289        1225.00      5338.81
  162.58        2960.50           2293        1306.00      5692.03
  162.61        2960.75           2296        1304.00      5683.31
  162.64        2961.00           2300        1392.00      6067.08
  162.67        2961.25           2303        1668.00      7270.76
  162.70        2961.50           2307        5183.00     22608.92
  162.73        2961.75           2310       12079.00     52747.09
  162.76        2962.00           2314       23939.00    104724.90
  162.79        2962.25           2317       34745.00    152244.20
  162.82        2962.50           2321       49312.00    216547.10
  162.85        2962.75           2324       60116.00    264422.00
  162.88        2963.00           2328       75453.00    332653.60
  162.91        2963.25           2331       88753.00    392081.80
  162.94        2963.50           2335      105813.00    468666.50
  162.97        2963.75           2339      121734.00    540502.60
  163.00        2964.00           2342      133593.00    594241.90
  163.04        2964.25           2346      149102.00    664822.00
  163.07        2964.50           2349      160084.00    715008.10
  163.10        2964.75           2353      176942.00    792385.80
  163.13        2965.00           2356      188203.00    844304.20
  163.16        2965.25           2360      201944.00    907909.80
  163.19        2965.50           2363      213383.00    961073.50
  163.22        2965.75           2367      227478.00   1026851.00
  163.25        2966.00           2370      237312.00   1072922.00
  163.28        2966.25           2374      250990.00   1137247.00
  163.31        2966.50           2378      263889.00   1198172.00
  163.35        2966.75           2381      267890.00   1217123.00
  163.38        2967.00           2385      269435.00   1224447.00
  163.41        2967.25           2388      270006.00   1227155.00
  163.44        2967.50           2392      269828.00   1226311.00
  163.47        2967.75           2395      269996.00   1227108.00
  163.50        2968.00           2399      267540.00   1215464.00
  163.53        2968.25           2402      262620.00   1192167.00
  163.56        2968.50           2406      249639.00   1130881.00
  163.59        2968.75           2409      237740.00   1074931.00
  163.62        2969.00           2413      221794.00   1000290.00
  163.65        2969.25           2417      206059.00    927012.10
  163.68        2969.50           2420      194179.00    871932.20
  163.72        2969.75           2424      179601.00    804628.30
  163.75        2970.00           2427      166822.00    745885.90
  163.78        2970.25           2431      149746.00    667760.30
  163.81        2970.50           2434      136797.00    608795.00
  163.84        2970.75           2438      120406.00    534497.10
  163.87        2971.00           2441      108840.00    482297.20
  163.90        2971.25           2445       93431.00    413042.10
  163.93        2971.50           2449       77845.00    343323.90
  163.96        2971.75           2452       66228.00    291575.00
  163.99        2972.00           2456       49646.00    218024.80
  164.02        2972.25           2459       36897.00    161726.00
  164.05        2972.50           2463       21819.00     95420.22
  164.08        2972.75           2466       12053.00     52633.34
  164.11        2973.00           2470        3986.00     17383.86
  164.14        2973.25           2473        1980.00      8631.56
  164.17        2973.50           2477        1431.00      6237.16
  164.20        2973.75           2481        1364.00      5944.97
  164.23        2974.00           2484        1309.00      5705.12
  164.27        2974.25           2488        1301.00      5670.23
  164.30        2974.50           2491        1255.00      5469.63
  164.33        2974.75           2495        1254.00      5465.27
  164.36        2975.00           2498        1169.00      5094.61
  164.39        2975.25           2502        1170.00      5098.97
  164.42        2975.50           2505        1174.00      5116.41
  164.45        2975.75           2509        1164.00      5072.80
  164.48        2976.00           2512        1150.00      5011.75
  164.51        2976.25           2516        1139.00      4963.78
  164.54        2976.50           2520        1124.00      4898.37
  164.57        2976.75           2523        1133.00      4937.62
  164.60        2977.00           2527        1105.00      4815.52
  164.63        2977.25           2530        1090.00      4750.11
  164.66        2977.50           2534        1078.00      4697.79
  164.69        2977.75           2537        1070.00      4662.90
  164.72        2978.00           2541        1041.00      4536.45
  164.75        2978.25           2544        1067.00      4649.82
  164.79        2978.50           2548        1036.00      4514.64
  164.82        2978.75           2552        1012.00      4409.99
  164.85        2979.00           2555        1037.00      4519.00
  164.88        2979.25           2559         999.00      4353.30
  164.91        2979.50           2562        1034.00      4505.92
  164.94        2979.75           2566        1015.00      4423.07
  164.97        2980.00           2569        1040.00      4532.08
  165.00        2980.25           2573         988.00      4305.34
  165.03        2980.50           2577         993.00      4327.14
  165.06        2980.75           2580         990.00      4314.06
  165.10        2981.00           2584        1008.00      4392.55
  165.14        2981.25           2587         950.00      4139.64
  165.17        2981.50           2591         961.00      4187.61
  165.20        2981.75           2594         932.00      4061.15
  165.23        2982.00           2598         937.00      4082.96
  165.26        2982.25           2601         948.00      4130.92
  165.29        2982.50           2605         929.00      4048.07
  165.32        2982.75           2609         959.00      4178.89
  165.35        2983.00           2612         960.00      4183.25
  165.38        2983.25           2616         906.00      3947.78
  165.41        2983.50           2619         921.00      4013.19
  165.44        2983.75           2623         922.00      4017.55
  165.47        2984.00           2626         923.00      4021.91
HS scan finished at 02:45:42
end
************************************************************
  HS Scan of 
************************************************************
Integration time is 0.2294 seconds per sample
dh270317Reading 51.44 .94 3.29pr1000
************************************************************
Dead Time -------------------------  3.4E-08 
Number of Cycles Used -------------  4 
Starting Wavelength (Angstroms) ---  2950 
Final Wavelength (Angstoms) -------  2984 
Wavelength Increment (Angstroms) --  .25 
Filter Wheel #1 Position ---------- (1) Ground quartz diffuser (ND=2.32)
Filter Wheel #2 Position ---------- (1) Neutral Density 0.494



************************************************************
HS scan start time = 19:37:28
Dark Count =  2.1 


Time (GMT)  Wavelength (Ang)  Step Number  Raw Counts  Counts/Second

 1178.37        2950.00           2144         718.00      3121.08
 1178.56        2950.25           2147         750.00      3260.61
 1178.59        2950.50           2151         765.00      3326.01
 1178.62        2950.75           2155         729.00      3169.04
 1178.65        2951.00           2158         714.00      3103.64
 1178.68        2951.25           2162         752.00      3269.33
 1178.72        2951.50           2165         740.00      3217.00
 1178.75        2951.75           2169         733.00      3186.48
 1178.78        2952.00           2172         722.00      3138.52
 1178.81        2952.25           2176         733.00      3186.48
 1178.84        2952.50           2179         749.00      3256.25
 1178.87        2952.75           2183         774.00      3365.25
 1178.90        2953.00           2186         752.00      3269.33
 1178.93        2953.25           2190         764.00      3321.65
 1178.96        2953.50           2193         777.00      3378.33
 1178.99        2953.75           2197         776.00      3373.97
 1179.02        2954.00           2200         766.00      3330.37
 1179.05        2954.25           2204         784.00      3408.85
 1179.08        2954.50           2208         786.00      3417.57
 1179.11        2954.75           2211         771.00      3352.17
 1179.14        2955.00           2215         817.00      3552.74
 1179.17        2955.25           2218         804.00      3496.06
 1179.20        2955.50           2222         816.00      3548.38
 1179.23        2955.75           2225         823.00      3578.90
 1179.27        2956.00           2229         827.00      3596.34
 1179.30        2956.25           2232         803.00      3491.70
 1179.33        2956.50           2236         814.00      3539.66
 1179.36        2956.75           2239         821.00      3570.18
 1179.39        2957.00           2243         832.00      3618.14
 1179.42        2957.25           2246         843.00      3666.11
 1179.45        2957.50           2250         859.00      3735.87
 1179.48        2957.75           2254         838.00      3644.31
 1179.51        2958.00           2257         873.00      3796.92
 1179.54        2958.25           2261         879.00      3823.08
 1179.57        2958.50           2264         897.00      3901.56
 1179.60        2958.75           2268         902.00      3923.37
 1179.63        2959.00           2271         887.00      3857.96
 1179.66        2959.25           2275         916.00      3984.41
 1179.69        2959.50           2278         890.00      3871.04
 1179.72        2959.75           2282         933.00      4058.54
 1179.75        2960.00           2285         961.00      4180.63
 1179.79        2960.25           2289        1001.00      4355.05
 1179.82        2960.50           2293        1017.00      4424.82
 1179.85        2960.75           2296        1029.00      4477.14
 1179.88        2961.00           2300        1140.00      4961.17
 1179.91        2961.25           2303        1430.00      6225.82
 1179.94        2961.50           2307        3910.00     17045.18
 1179.97        2961.75           2310        9487.00     41404.81
 1180.00        2962.00           2314       20814.00     91004.34
 1180.03        2962.25           2317       30879.00    135218.80
 1180.06        2962.50           2321       44219.00    194026.00
 1180.09        2962.75           2324       53558.00    235336.30
 1180.12        2963.00           2328       66114.00    291061.00
 1180.15        2963.25           2331       76561.00    337588.10
 1180.18        2963.50           2335       88868.00    392589.50
 1180.21        2963.75           2339      101749.00    450379.00
 1180.24        2964.00           2342      111713.00    495239.00
 1180.27        2964.25           2346      126266.00    561008.80
 1180.31        2964.50           2349      137206.00    610646.60
 1180.34        2964.75           2353      151819.00    677214.90
 1180.37        2965.00           2356      159873.00    714035.00
 1180.40        2965.25           2360      171072.00    765388.60
 1180.43        2965.50           2363      179206.00    802801.60
 1180.46        2965.75           2367      192826.00    865665.10
 1180.49        2966.00           2370      202728.00    911539.80
 1180.52        2966.25           2374      214498.00    966258.60
 1180.55        2966.50           2378      222604.00   1004064.00
 1180.58        2966.75           2381      225442.00   1017324.00
 1180.61        2967.00           2385      226569.00   1022593.00
 1180.64        2967.25           2388      226171.00   1020732.00
 1180.67        2967.50           2392      226364.00   1021634.00
 1180.70        2967.75           2395      225749.00   1018759.00
 1180.73        2968.00           2399      220895.00    996085.40
 1180.76        2968.25           2402      213638.00    962253.60
 1180.79        2968.50           2406      201496.00    905824.20
 1180.83        2968.75           2409      193675.00    869592.80
 1180.86        2969.00           2413      182021.00    815772.00
 1180.89        2969.25           2417      170231.00    761525.80
 1180.92        2969.50           2420      160159.00    715344.30
 1180.95        2969.75           2424      145976.00    650561.10
 1180.98        2970.00           2427      135306.00    602013.50
 1181.01        2970.25           2431      121298.00    538523.30
 1181.04        2970.50           2434      111631.00    494869.30
 1181.07        2970.75           2438       98622.00    436328.90
 1181.10        2971.00           2441       88458.00    390753.90
 1181.13        2971.25           2445       74160.00    326881.80
 1181.16        2971.50           2449       61074.00    268667.50
 1181.19        2971.75           2452       51852.00    227781.20
 1181.22        2972.00           2456       38651.00    169451.70
 1181.25        2972.25           2459       28740.00    125811.20
 1181.28        2972.50           2463       17012.00     74337.18
 1181.31        2972.75           2466        9355.00     40827.78
 1181.35        2973.00           2470        2810.00     12245.29
 1181.38        2973.25           2473        1399.00      6090.62
 1181.41        2973.50           2477        1083.00      4712.61
 1181.44        2973.75           2481        1058.00      4603.60
 1181.47        2974.00           2484         996.00      4333.25
 1181.50        2974.25           2488        1039.00      4520.75
 1181.53        2974.50           2491        1004.00      4368.13
 1181.56        2974.75           2495         923.00      4014.93
 1181.59        2975.00           2498         934.00      4062.90
 1181.62        2975.25           2502         890.00      3871.04
 1181.65        2975.50           2505         907.00      3945.17
 1181.68        2975.75           2509         901.00      3919.01
 1181.71        2976.00           2512         895.00      3892.84
 1181.74        2976.25           2516         880.00      3827.44
 1181.77        2976.50           2520         901.00      3919.01
 1181.80        2976.75           2523         879.00      3823.08
 1181.83        2977.00           2527         853.00      3709.71
 1181.87        2977.25           2530         861.00      3744.59
 1181.90        2977.50           2534         834.00      3626.86
 1181.93        2977.75           2537         821.00      3570.18
 1181.96        2978.00           2541         835.00      3631.22
 1181.99        2978.25           2544         829.00      3605.06
 1182.02        2978.50           2548         799.00      3474.26
 1182.05        2978.75           2552         821.00      3570.18
 1182.08        2979.00           2555         764.00      3321.65
 1182.11        2979.25           2559         797.00      3465.54
 1182.14        2979.50           2562         765.00      3326.01
 1182.17        2979.75           2566         771.00      3352.17
 1182.20        2980.00           2569         749.00      3256.25
 1182.23        2980.25           2573         769.00      3343.45
 1182.26        2980.50           2577         760.00      3304.21
 1182.29        2980.75           2580         754.00      3278.05
 1182.32        2981.00           2584         756.00      3286.77
 1182.35        2981.25           2587         760.00      3304.21
 1182.39        2981.50           2591         734.00      3190.84
 1182.42        2981.75           2594         728.00      3164.68
 1182.45        2982.00           2598         738.00      3208.28
 1182.48        2982.25           2601         760.00      3304.21
 1182.51        2982.50           2605         753.00      3273.69
 1182.54        2982.75           2609         724.00      3147.24
 1182.57        2983.00           2612         718.00      3121.08
 1182.60        2983.25           2616         709.00      3081.84
 1182.63        2983.50           2619         709.00      3081.84
 1182.66        2983.75           2623         710.00      3086.20
 1182.69        2984.00           2626         676.00      2937.96
HS scan finished at 19:42:55
end
