************************************************************
  HS Scan of (1) Internal mercury lamp
************************************************************
Integration time is 0.2294 seconds per sample
dh210318Reading 51.44 .94 2.58pr1000
************************************************************
Dead Time -------------------------  3.4E-08 
Number of Cycles Used -------------  4 
Starting Wavelength (Angstroms) ---  2950 
Final Wavelength (Angstoms) -------  2984 
Wavelength Increment (Angstroms) --  .25 
Filter Wheel #1 Position ---------- (1) Ground quartz diffuser (ND=2.32)
Filter Wheel #2 Position ---------- (1) Neutral Density 0.494



************************************************************
HS scan start time = 03:04:49
Dark Count =  .3 


Time (GMT)  Wavelength (Ang)  Step Number  Raw Counts  Counts/Second

  185.71        2950.00           2144         154.00       670.02
  185.90        2950.25           2147         152.00       661.31
  185.93        2950.50           2151         144.00       626.43
  185.96        2950.75           2155         142.00       617.71
  185.99        2951.00           2158         143.00       622.07
  186.03        2951.25           2162         147.00       639.51
  186.06        2951.50           2165         146.00       635.15
  186.09        2951.75           2169         140.00       608.99
  186.12        2952.00           2172         169.00       735.42
  186.15        2952.25           2176         145.00       630.79
  186.18        2952.50           2179         165.00       717.98
  186.21        2952.75           2183         150.00       652.59
  186.24        2953.00           2186         151.00       656.95
  186.27        2953.25           2190         155.00       674.38
  186.30        2953.50           2193         162.00       704.90
  186.33        2953.75           2197         160.00       696.18
  186.36        2954.00           2200         155.00       674.38
  186.39        2954.25           2204         155.00       674.38
  186.42        2954.50           2208         156.00       678.74
  186.45        2954.75           2211         168.00       731.06
  186.48        2955.00           2215         145.00       630.79
  186.51        2955.25           2218         175.00       761.57
  186.55        2955.50           2222         162.00       704.90
  186.58        2955.75           2225         159.00       691.82
  186.61        2956.00           2229         168.00       731.06
  186.64        2956.25           2232         168.00       731.06
  186.67        2956.50           2236         178.00       774.65
  186.70        2956.75           2239         159.00       691.82
  186.73        2957.00           2243         173.00       752.85
  186.76        2957.25           2246         179.00       779.01
  186.79        2957.50           2250         180.00       783.37
  186.82        2957.75           2254         177.00       770.29
  186.85        2958.00           2257         178.00       774.65
  186.88        2958.25           2261         182.00       792.09
  186.91        2958.50           2264         176.00       765.93
  186.94        2958.75           2268         190.00       826.96
  186.97        2959.00           2271         185.00       805.17
  187.00        2959.25           2275         192.00       835.68
  187.03        2959.50           2278         185.00       805.17
  187.07        2959.75           2282         202.00       879.28
  187.10        2960.00           2285         202.00       879.28
  187.13        2960.25           2289         213.00       927.23
  187.16        2960.50           2293         219.00       953.39
  187.19        2960.75           2296         259.00      1127.77
  187.22        2961.00           2300         274.00      1193.16
  187.25        2961.25           2303         504.00      2195.89
  187.28        2961.50           2307        1891.00      8244.25
  187.31        2961.75           2310        3764.00     16415.87
  187.34        2962.00           2314        6811.00     29719.21
  187.37        2962.25           2317        9009.00     39323.25
  187.40        2962.50           2321       11992.00     52367.35
  187.43        2962.75           2324       14751.00     64442.27
  187.46        2963.00           2328       18374.00     80313.61
  187.49        2963.25           2331       21391.00     93543.34
  187.52        2963.50           2335       24982.00    109305.60
  187.55        2963.75           2339       28672.00    125520.20
  187.58        2964.00           2342       31208.00    136674.20
  187.62        2964.25           2346       34465.00    151011.80
  187.65        2964.50           2349       37186.00    163000.70
  187.68        2964.75           2353       40474.00    177500.90
  187.71        2965.00           2356       43315.00    190041.30
  187.74        2965.25           2360       46765.00    205284.40
  187.77        2965.50           2363       49278.00    216397.60
  187.80        2965.75           2367       52040.00    228621.60
  187.83        2966.00           2370       54392.00    239039.10
  187.86        2966.25           2374       57278.00    251831.90
  187.89        2966.50           2378       59540.00    261866.50
  187.92        2966.75           2381       59869.00    263326.60
  187.95        2967.00           2385       60518.00    266207.20
  187.98        2967.25           2388       60300.00    265239.60
  188.01        2967.50           2392       60392.00    265647.90
  188.04        2967.75           2395       60441.00    265865.40
  188.07        2968.00           2399       58995.00    259448.20
  188.11        2968.25           2402       56701.00    249273.30
  188.14        2968.50           2406       53495.00    235065.20
  188.17        2968.75           2409       50893.00    223544.00
  188.20        2969.00           2413       47180.00    207119.10
  188.23        2969.25           2417       44179.00    193857.20
  188.26        2969.50           2420       41923.00    183895.60
  188.29        2969.75           2424       38387.00    168295.50
  188.32        2970.00           2427       35555.00    155813.20
  188.35        2970.25           2431       31478.00    137862.20
  188.38        2970.50           2434       28749.00    125858.70
  188.41        2970.75           2438       25219.00    110346.50
  188.44        2971.00           2441       22421.00     98062.68
  188.47        2971.25           2445       18908.00     82654.36
  188.50        2971.50           2449       15023.00     65633.22
  188.53        2971.75           2452       12384.00     54082.36
  188.56        2972.00           2456        9050.00     39502.45
  188.59        2972.25           2459        6698.00     29225.63
  188.63        2972.50           2463        3680.00     16049.30
  188.66        2972.75           2466        1937.00      8444.88
  188.69        2973.00           2470         605.00      2636.24
  188.72        2973.25           2473         321.00      1398.06
  188.75        2973.50           2477         256.00      1114.69
  188.78        2973.75           2481         229.00       996.98
  188.81        2974.00           2484         226.00       983.90
  188.84        2974.25           2488         235.00      1023.14
  188.87        2974.50           2491         210.00       914.15
  188.90        2974.75           2495         207.00       901.07
  188.93        2975.00           2498         210.00       914.15
  188.96        2975.25           2502         202.00       879.28
  188.99        2975.50           2505         192.00       835.68
  189.02        2975.75           2509         190.00       826.96
  189.05        2976.00           2512         201.00       874.92
  189.08        2976.25           2516         181.00       787.73
  189.11        2976.50           2520         181.00       787.73
  189.15        2976.75           2523         184.00       800.81
  189.18        2977.00           2527         170.00       739.77
  189.21        2977.25           2530         185.00       805.17
  189.24        2977.50           2534         161.00       700.54
  189.27        2977.75           2537         163.00       709.26
  189.30        2978.00           2541         171.00       744.13
  189.33        2978.25           2544         159.00       691.82
  189.36        2978.50           2548         174.00       757.21
  189.39        2978.75           2552         167.00       726.70
  189.42        2979.00           2555         157.00       683.10
  189.45        2979.25           2559         158.00       687.46
  189.48        2979.50           2562         164.00       713.62
  189.51        2979.75           2566         163.00       709.26
  189.54        2980.00           2569         159.00       691.82
  189.57        2980.25           2573         158.00       687.46
  189.60        2980.50           2577         159.00       691.82
  189.63        2980.75           2580         153.00       665.66
  189.67        2981.00           2584         171.00       744.13
  189.70        2981.25           2587         168.00       731.06
  189.73        2981.50           2591         145.00       630.79
  189.76        2981.75           2594         152.00       661.31
  189.79        2982.00           2598         145.00       630.79
  189.82        2982.25           2601         150.00       652.59
  189.85        2982.50           2605         149.00       648.23
  189.88        2982.75           2609         137.00       595.91
  189.91        2983.00           2612         153.00       665.66
  189.94        2983.25           2616         144.00       626.43
  189.97        2983.50           2619         147.00       639.51
  190.00        2983.75           2623         156.00       678.74
  190.03        2984.00           2626         157.00       683.10
HS scan finished at 03:10:15
end
************************************************************
  HS Scan of (1) Internal mercury lamp
************************************************************
Integration time is 0.2294 seconds per sample
dh210318Reading 51.44 .94 3pr1000
************************************************************
Dead Time -------------------------  3.4E-08 
Number of Cycles Used -------------  4 
Starting Wavelength (Angstroms) ---  2950 
Final Wavelength (Angstoms) -------  2984 
Wavelength Increment (Angstroms) --  .25 
Filter Wheel #1 Position ---------- (1) Ground quartz diffuser (ND=2.32)
Filter Wheel #2 Position ---------- (1) Neutral Density 0.494



************************************************************
HS scan start time = 19:07:29
Dark Count =  .9 


Time (GMT)  Wavelength (Ang)  Step Number  Raw Counts  Counts/Second

 1148.37        2950.00           2144          95.00       410.21
 1148.57        2950.25           2147          93.00       401.49
 1148.60        2950.50           2151          93.00       401.49
 1148.63        2950.75           2155         104.00       449.44
 1148.66        2951.00           2158         100.00       432.00
 1148.69        2951.25           2162         125.00       540.99
 1148.72        2951.50           2165          92.00       397.13
 1148.75        2951.75           2169         101.00       436.36
 1148.78        2952.00           2172         100.00       432.00
 1148.81        2952.25           2176          87.00       375.33
 1148.84        2952.50           2179         119.00       514.83
 1148.87        2952.75           2183         106.00       458.16
 1148.90        2953.00           2186         107.00       462.52
 1148.93        2953.25           2190         101.00       436.36
 1148.96        2953.50           2193         102.00       440.72
 1149.00        2953.75           2197         143.00       619.46
 1149.03        2954.00           2200         119.00       514.83
 1149.06        2954.25           2204         105.00       453.80
 1149.09        2954.50           2208         129.00       558.42
 1149.12        2954.75           2211         124.00       536.63
 1149.15        2955.00           2215         131.00       567.14
 1149.18        2955.25           2218         106.00       458.16
 1149.21        2955.50           2222         153.00       663.05
 1149.24        2955.75           2225         107.00       462.52
 1149.27        2956.00           2229         123.00       532.27
 1149.30        2956.25           2232         150.00       649.97
 1149.33        2956.50           2236         135.00       584.58
 1149.36        2956.75           2239         114.00       493.03
 1149.39        2957.00           2243         134.00       580.22
 1149.42        2957.25           2246         137.00       593.30
 1149.45        2957.50           2250         140.00       606.38
 1149.48        2957.75           2254         115.00       497.39
 1149.51        2958.00           2257         157.00       680.49
 1149.55        2958.25           2261         161.00       697.92
 1149.58        2958.50           2264         152.00       658.69
 1149.61        2958.75           2268         125.00       540.99
 1149.64        2959.00           2271         152.00       658.69
 1149.67        2959.25           2275         152.00       658.69
 1149.70        2959.50           2278         132.00       571.50
 1149.73        2959.75           2282         162.00       702.28
 1149.76        2960.00           2285         144.00       623.81
 1149.79        2960.25           2289         148.00       641.25
 1149.82        2960.50           2293         154.00       667.41
 1149.85        2960.75           2296         154.00       667.41
 1149.88        2961.00           2300         182.00       789.47
 1149.91        2961.25           2303         339.00      1473.92
 1149.94        2961.50           2307        1202.00      5236.77
 1149.97        2961.75           2310        2536.00     11055.16
 1150.00        2962.00           2314        4892.00     21336.75
 1150.04        2962.25           2317        6681.00     29148.76
 1150.07        2962.50           2321        9159.00     39976.27
 1150.10        2962.75           2324       10898.00     47579.52
 1150.13        2963.00           2328       13262.00     57921.71
 1150.16        2963.25           2331       15176.00     66300.56
 1150.19        2963.50           2335       17989.00     78623.58
 1150.22        2963.75           2339       20446.00     89395.54
 1150.25        2964.00           2342       22437.00     98130.26
 1150.28        2964.25           2346       25134.00    109970.60
 1150.31        2964.50           2349       26833.00    117434.40
 1150.34        2964.75           2353       29270.00    128146.90
 1150.37        2965.00           2356       31117.00    136271.10
 1150.40        2965.25           2360       33753.00    147873.70
 1150.43        2965.50           2363       35713.00    156506.70
 1150.46        2965.75           2367       38052.00    166815.70
 1150.49        2966.00           2370       39683.00    174008.60
 1150.52        2966.25           2374       41905.00    183813.50
 1150.55        2966.50           2378       42838.00    187932.40
 1150.59        2966.75           2381       43037.00    188811.10
 1150.62        2967.00           2385       43176.00    189424.90
 1150.65        2967.25           2388       43344.00    190166.80
 1150.68        2967.50           2392       43029.00    188775.80
 1150.71        2967.75           2395       43091.00    189049.50
 1150.74        2968.00           2399       41617.00    182542.30
 1150.77        2968.25           2402       40141.00    176029.00
 1150.80        2968.50           2406       38223.00    167569.70
 1150.83        2968.75           2409       36300.00    159093.20
 1150.86        2969.00           2413       33586.00    147138.40
 1150.89        2969.25           2417       31217.00    136711.10
 1150.92        2969.50           2420       29437.00    128881.30
 1150.95        2969.75           2424       27110.00    118651.60
 1150.98        2970.00           2427       25189.00    110212.10
 1151.01        2970.25           2431       22553.00     98639.32
 1151.04        2970.50           2434       20912.00     91439.46
 1151.07        2970.75           2438       18110.00     79153.88
 1151.11        2971.00           2441       16175.00     70675.74
 1151.14        2971.25           2445       13720.00     59926.25
 1151.17        2971.50           2449       11092.00     48427.98
 1151.20        2971.75           2452        9401.00     41034.11
 1151.23        2972.00           2456        7180.00     31328.47
 1151.26        2972.25           2459        5534.00     24139.68
 1151.29        2972.50           2463        3237.00     14113.57
 1151.32        2972.75           2466        1665.00      7255.93
 1151.35        2973.00           2470         431.00      1875.01
 1151.38        2973.25           2473         220.00       955.13
 1151.41        2973.50           2477         184.00       798.19
 1151.44        2973.75           2481         164.00       711.00
 1151.47        2974.00           2484         164.00       711.00
 1151.50        2974.25           2488         154.00       667.41
 1151.53        2974.50           2491         152.00       658.69
 1151.56        2974.75           2495         146.00       632.53
 1151.59        2975.00           2498         156.00       676.13
 1151.63        2975.25           2502         151.00       654.33
 1151.66        2975.50           2505         148.00       641.25
 1151.69        2975.75           2509         136.00       588.94
 1151.72        2976.00           2512         129.00       558.42
 1151.75        2976.25           2516         128.00       554.06
 1151.78        2976.50           2520         113.00       488.67
 1151.81        2976.75           2523         127.00       549.71
 1151.84        2977.00           2527         136.00       588.94
 1151.87        2977.25           2530         124.00       536.63
 1151.90        2977.50           2534         138.00       597.66
 1151.93        2977.75           2537         115.00       497.39
 1151.96        2978.00           2541         116.00       501.75
 1151.99        2978.25           2544         111.00       479.96
 1152.02        2978.50           2548         118.00       510.47
 1152.05        2978.75           2552         109.00       471.24
 1152.08        2979.00           2555         110.00       475.60
 1152.11        2979.25           2559         127.00       549.71
 1152.15        2979.50           2562         125.00       540.99
 1152.18        2979.75           2566         126.00       545.35
 1152.21        2980.00           2569         106.00       458.16
 1152.24        2980.25           2573         126.00       545.35
 1152.27        2980.50           2577          98.00       423.28
 1152.30        2980.75           2580         135.00       584.58
 1152.33        2981.00           2584         112.00       484.31
 1152.36        2981.25           2587          97.00       418.92
 1152.39        2981.50           2591         101.00       436.36
 1152.42        2981.75           2594         102.00       440.72
 1152.45        2982.00           2598          99.00       427.64
 1152.48        2982.25           2601         100.00       432.00
 1152.51        2982.50           2605          97.00       418.92
 1152.54        2982.75           2609         100.00       432.00
 1152.57        2983.00           2612          98.00       423.28
 1152.60        2983.25           2616         113.00       488.67
 1152.63        2983.50           2619          90.00       388.41
 1152.67        2983.75           2623         115.00       497.39
 1152.70        2984.00           2626         112.00       484.31
HS scan finished at 19:12:55
end
