************************************************************
  HS Scan of 
************************************************************
Integration time is 0.2294 seconds per sample
dh290317Reading 51.44 .94 3.11pr1000
************************************************************
Dead Time -------------------------  3.4E-08 
Number of Cycles Used -------------  4 
Starting Wavelength (Angstroms) ---  2950 
Final Wavelength (Angstoms) -------  2984 
Wavelength Increment (Angstroms) --  .25 
Filter Wheel #1 Position ---------- (1) Ground quartz diffuser (ND=2.32)
Filter Wheel #2 Position ---------- (1) Neutral Density 0.494



************************************************************
HS scan start time = 02:31:26
Dark Count =  1 


Time (GMT)  Wavelength (Ang)  Step Number  Raw Counts  Counts/Second

  152.33        2950.00           2144         830.00      3614.22
  152.52        2950.25           2147         812.00      3535.73
  152.55        2950.50           2151         828.00      3605.50
  152.58        2950.75           2155         811.00      3531.37
  152.61        2951.00           2158         848.00      3692.70
  152.64        2951.25           2162         863.00      3758.11
  152.67        2951.50           2165         833.00      3627.30
  152.70        2951.75           2169         865.00      3766.83
  152.73        2952.00           2172         862.00      3753.75
  152.76        2952.25           2176         854.00      3718.87
  152.79        2952.50           2179         839.00      3653.46
  152.82        2952.75           2183         879.00      3827.87
  152.85        2953.00           2186         894.00      3893.28
  152.89        2953.25           2190         890.00      3875.84
  152.92        2953.50           2193         882.00      3840.96
  152.95        2953.75           2197         887.00      3862.76
  152.98        2954.00           2200         890.00      3875.84
  153.01        2954.25           2204         893.00      3888.92
  153.04        2954.50           2208         885.00      3854.04
  153.07        2954.75           2211         864.00      3762.47
  153.10        2955.00           2215         893.00      3888.92
  153.13        2955.25           2218         907.00      3949.96
  153.16        2955.50           2222         895.00      3897.64
  153.19        2955.75           2225         946.00      4120.02
  153.22        2956.00           2229         946.00      4120.02
  153.25        2956.25           2232         932.00      4058.97
  153.28        2956.50           2236         955.00      4159.26
  153.31        2956.75           2239         958.00      4172.34
  153.34        2957.00           2243         940.00      4093.86
  153.37        2957.25           2246         937.00      4080.78
  153.41        2957.50           2250         983.00      4281.36
  153.44        2957.75           2254         968.00      4215.95
  153.47        2958.00           2257        1000.00      4355.48
  153.50        2958.25           2261        1008.00      4390.37
  153.53        2958.50           2264         995.00      4333.68
  153.56        2958.75           2268        1035.00      4508.10
  153.59        2959.00           2271        1059.00      4612.76
  153.62        2959.25           2275        1058.00      4608.39
  153.65        2959.50           2278        1065.00      4638.92
  153.68        2959.75           2282        1107.00      4822.06
  153.71        2960.00           2285        1072.00      4669.44
  153.74        2960.25           2289        1135.00      4944.16
  153.77        2960.50           2293        1153.00      5022.65
  153.80        2960.75           2296        1174.00      5114.23
  153.83        2961.00           2300        1255.00      5467.45
  153.86        2961.25           2303        1606.00      6998.18
  153.89        2961.50           2307        5023.00     21908.21
  153.93        2961.75           2310       12147.00     53042.39
  153.96        2962.00           2314       24184.00    105798.40
  153.99        2962.25           2317       34934.00    153074.50
  154.02        2962.50           2321       50597.00    222230.80
  154.05        2962.75           2324       62256.00    273921.20
  154.08        2963.00           2328       78757.00    347392.00
  154.11        2963.25           2331       91227.00    403160.80
  154.14        2963.50           2335      106924.00    473665.70
  154.18        2963.75           2339      122101.00    542160.40
  154.22        2964.00           2342      133478.00    593717.50
  154.25        2964.25           2346      151394.00    675279.50
  154.28        2964.50           2349      162372.00    725483.50
  154.31        2964.75           2353      177366.00    794335.00
  154.34        2965.00           2356      188118.00    843909.40
  154.37        2965.25           2360      201261.00    904739.30
  154.40        2965.50           2363      211492.00    952269.10
  154.43        2965.75           2367      228689.00   1032514.00
  154.46        2966.00           2370      239812.00   1084655.00
  154.49        2966.25           2374      254472.00   1153666.00
  154.52        2966.50           2378      264185.00   1199571.00
  154.55        2966.75           2381      266935.00   1212595.00
  154.58        2967.00           2385      268142.00   1218315.00
  154.61        2967.25           2388      268470.00   1219869.00
  154.64        2967.50           2392      269074.00   1222733.00
  154.67        2967.75           2395      267893.00   1217134.00
  154.70        2968.00           2399      265546.00   1206015.00
  154.74        2968.25           2402      257933.00   1170006.00
  154.77        2968.50           2406      245974.00   1113622.00
  154.80        2968.75           2409      235690.00   1065311.00
  154.83        2969.00           2413      221806.00   1000343.00
  154.86        2969.25           2417      207328.00    932905.70
  154.89        2969.50           2420      195857.00    879697.00
  154.92        2969.75           2424      179474.00    804041.00
  154.95        2970.00           2427      167479.00    748897.90
  154.98        2970.25           2431      151552.00    676000.90
  155.01        2970.50           2434      139335.00    620331.00
  155.04        2970.75           2438      122812.00    545377.10
  155.07        2971.00           2441      111451.00    494062.70
  155.11        2971.25           2445       94283.00    416860.50
  155.14        2971.50           2449       75548.00    333075.00
  155.17        2971.75           2452       63334.00    278709.70
  155.20        2972.00           2456       47781.00    209773.30
  155.23        2972.25           2459       36470.00    159841.90
  155.26        2972.50           2463       22060.00     96475.49
  155.29        2972.75           2466       12697.00     55448.82
  155.32        2973.00           2470        4498.00     19616.40
  155.35        2973.25           2473        2037.00      8878.01
  155.38        2973.50           2477        1304.00      5681.13
  155.42        2973.75           2481        1208.00      5262.49
  155.45        2974.00           2484        1185.00      5162.20
  155.48        2974.25           2488        1171.00      5101.15
  155.51        2974.50           2491        1164.00      5070.62
  155.54        2974.75           2495        1168.00      5088.06
  155.57        2975.00           2498        1124.00      4896.20
  155.60        2975.25           2502        1137.00      4952.88
  155.63        2975.50           2505        1050.00      4573.51
  155.66        2975.75           2509        1053.00      4586.59
  155.69        2976.00           2512        1025.00      4464.50
  155.72        2976.25           2516        1051.00      4577.87
  155.75        2976.50           2520        1018.00      4433.97
  155.78        2976.75           2523        1049.00      4569.15
  155.81        2977.00           2527        1015.00      4420.89
  155.84        2977.25           2530         965.00      4202.87
  155.87        2977.50           2534         960.00      4181.07
  155.90        2977.75           2537         953.00      4150.54
  155.94        2978.00           2541         977.00      4255.19
  155.97        2978.25           2544         962.00      4189.79
  156.00        2978.50           2548         946.00      4120.02
  156.03        2978.75           2552         912.00      3971.77
  156.06        2979.00           2555         928.00      4041.53
  156.09        2979.25           2559         920.00      4006.65
  156.12        2979.50           2562         909.00      3958.68
  156.15        2979.75           2566         896.00      3902.00
  156.18        2980.00           2569         869.00      3784.27
  156.21        2980.25           2573         887.00      3862.76
  156.24        2980.50           2577         876.00      3814.79
  156.27        2980.75           2580         873.00      3801.71
  156.30        2981.00           2584         905.00      3941.24
  156.33        2981.25           2587         872.00      3797.35
  156.36        2981.50           2591         865.00      3766.83
  156.39        2981.75           2594         882.00      3840.96
  156.42        2982.00           2598         874.00      3806.07
  156.46        2982.25           2601         872.00      3797.35
  156.49        2982.50           2605         823.00      3583.70
  156.52        2982.75           2609         858.00      3736.31
  156.55        2983.00           2612         842.00      3666.54
  156.58        2983.25           2616         841.00      3662.18
  156.61        2983.50           2619         819.00      3566.26
  156.64        2983.75           2623         832.00      3622.94
  156.67        2984.00           2626         829.00      3609.86
HS scan finished at 02:36:53
end
************************************************************
  HS Scan of 
************************************************************
Integration time is 0.2294 seconds per sample
dh290317Reading 51.44 .94 3.27pr1000
************************************************************
Dead Time -------------------------  3.4E-08 
Number of Cycles Used -------------  4 
Starting Wavelength (Angstroms) ---  2950 
Final Wavelength (Angstoms) -------  2984 
Wavelength Increment (Angstroms) --  .25 
Filter Wheel #1 Position ---------- (1) Ground quartz diffuser (ND=2.32)
Filter Wheel #2 Position ---------- (1) Neutral Density 0.494



************************************************************
HS scan start time = 19:37:32
Dark Count =  1.9 


Time (GMT)  Wavelength (Ang)  Step Number  Raw Counts  Counts/Second

 1178.43        2950.00           2144         706.00      3069.63
 1178.62        2950.25           2147         708.00      3078.35
 1178.65        2950.50           2151         695.00      3021.67
 1178.68        2950.75           2155         710.00      3087.07
 1178.71        2951.00           2158         709.00      3082.71
 1178.75        2951.25           2162         732.00      3182.99
 1178.78        2951.50           2165         726.00      3156.83
 1178.81        2951.75           2169         735.00      3196.08
 1178.84        2952.00           2172         761.00      3309.44
 1178.87        2952.25           2176         727.00      3161.19
 1178.90        2952.50           2179         734.00      3191.71
 1178.93        2952.75           2183         741.00      3222.24
 1178.96        2953.00           2186         736.00      3200.44
 1178.99        2953.25           2190         723.00      3143.75
 1179.02        2953.50           2193         767.00      3335.60
 1179.05        2953.75           2197         747.00      3248.40
 1179.08        2954.00           2200         763.00      3318.16
 1179.11        2954.25           2204         750.00      3261.48
 1179.14        2954.50           2208         766.00      3331.24
 1179.17        2954.75           2211         765.00      3326.88
 1179.20        2955.00           2215         789.00      3431.53
 1179.23        2955.25           2218         780.00      3392.28
 1179.27        2955.50           2222         759.00      3300.72
 1179.30        2955.75           2225         788.00      3427.16
 1179.33        2956.00           2229         776.00      3374.84
 1179.36        2956.25           2232         783.00      3405.36
 1179.39        2956.50           2236         783.00      3405.36
 1179.42        2956.75           2239         805.00      3501.29
 1179.45        2957.00           2243         801.00      3483.85
 1179.48        2957.25           2246         818.00      3557.97
 1179.51        2957.50           2250         843.00      3666.98
 1179.54        2957.75           2254         854.00      3714.94
 1179.57        2958.00           2257         868.00      3775.99
 1179.60        2958.25           2261         852.00      3706.22
 1179.63        2958.50           2264         876.00      3810.87
 1179.66        2958.75           2268         862.00      3749.82
 1179.69        2959.00           2271         911.00      3963.48
 1179.72        2959.25           2275         874.00      3802.15
 1179.75        2959.50           2278         897.00      3902.44
 1179.79        2959.75           2282         921.00      4007.08
 1179.82        2960.00           2285         931.00      4050.69
 1179.85        2960.25           2289         990.00      4307.95
 1179.88        2960.50           2293         951.00      4137.90
 1179.91        2960.75           2296        1012.00      4403.89
 1179.94        2961.00           2300        1071.00      4661.16
 1179.97        2961.25           2303        1368.00      5956.31
 1180.00        2961.50           2307        4599.00     20053.34
 1180.03        2961.75           2310       11133.00     48602.92
 1180.06        2962.00           2314       21946.00     95971.32
 1180.09        2962.25           2317       31365.00    137358.00
 1180.12        2962.50           2321       43808.00    192211.50
 1180.15        2962.75           2324       53097.00    233295.20
 1180.18        2963.00           2328       65521.00    288425.40
 1180.21        2963.25           2331       75624.00    333409.90
 1180.24        2963.50           2335       89333.00    394672.60
 1180.27        2963.75           2339      103197.00    456890.50
 1180.30        2964.00           2342      112788.00    500088.10
 1180.34        2964.25           2346      125670.00    558310.30
 1180.37        2964.50           2349      134275.00    597332.00
 1180.40        2964.75           2353      147898.00    659324.00
 1180.43        2965.00           2356      158223.00    706485.00
 1180.46        2965.25           2360      170534.00    762918.30
 1180.49        2965.50           2363      179926.00    806118.90
 1180.52        2965.75           2367      192182.00    862687.30
 1180.55        2966.00           2370      200724.00    902244.70
 1180.58        2966.25           2374      212315.00    956095.10
 1180.61        2966.50           2378      221455.00    998700.20
 1180.64        2966.75           2381      225368.00   1016979.00
 1180.67        2967.00           2385      226507.00   1022304.00
 1180.70        2967.25           2388      226618.00   1022823.00
 1180.73        2967.50           2392      226478.00   1022168.00
 1180.76        2967.75           2395      226385.00   1021733.00
 1180.79        2968.00           2399      223242.00   1007045.00
 1180.83        2968.25           2402      217937.00    982286.60
 1180.86        2968.50           2406      207044.00    931581.90
 1180.89        2968.75           2409      196912.00    884578.20
 1180.92        2969.00           2413      182690.00    818857.10
 1180.95        2969.25           2417      169139.00    756512.60
 1180.98        2969.50           2420      159734.00    713399.50
 1181.01        2969.75           2424      147195.00    656118.50
 1181.04        2970.00           2427      136308.00    606566.60
 1181.07        2970.25           2431      122766.00    545164.90
 1181.10        2970.50           2434      111962.00    496362.70
 1181.13        2970.75           2438       98052.00    433770.20
 1181.16        2971.00           2441       88131.00    389290.90
 1181.19        2971.25           2445       74889.00    330132.60
 1181.22        2971.50           2449       61505.00    270582.10
 1181.25        2971.75           2452       53268.00    234052.60
 1181.28        2972.00           2456       40810.00    178976.40
 1181.31        2972.25           2459       30688.00    134379.40
 1181.35        2972.50           2463       17583.00     76839.98
 1181.38        2972.75           2466        9398.00     41016.62
 1181.41        2973.00           2470        2976.00     12970.41
 1181.44        2973.25           2473        1433.00      6239.77
 1181.47        2973.50           2477        1106.00      4813.78
 1181.50        2973.75           2481        1058.00      4604.47
 1181.53        2974.00           2484         978.00      4255.63
 1181.56        2974.25           2488         969.00      4216.39
 1181.59        2974.50           2491         957.00      4164.06
 1181.62        2974.75           2495         939.00      4085.57
 1181.65        2975.00           2498         948.00      4124.82
 1181.68        2975.25           2502         919.00      3998.36
 1181.71        2975.50           2505         939.00      4085.57
 1181.74        2975.75           2509         932.00      4055.05
 1181.77        2976.00           2512         881.00      3832.67
 1181.80        2976.25           2516         846.00      3680.06
 1181.83        2976.50           2520         836.00      3636.46
 1181.86        2976.75           2523         842.00      3662.62
 1181.90        2977.00           2527         827.00      3597.21
 1181.93        2977.25           2530         860.00      3741.10
 1181.96        2977.50           2534         804.00      3496.93
 1181.99        2977.75           2537         803.00      3492.57
 1182.02        2978.00           2541         780.00      3392.28
 1182.05        2978.25           2544         815.00      3544.89
 1182.08        2978.50           2548         788.00      3427.16
 1182.11        2978.75           2552         794.00      3453.33
 1182.14        2979.00           2555         791.00      3440.25
 1182.17        2979.25           2559         785.00      3414.08
 1182.20        2979.50           2562         830.00      3610.30
 1182.23        2979.75           2566         770.00      3348.68
 1182.26        2980.00           2569         808.00      3514.37
 1182.29        2980.25           2573         767.00      3335.60
 1182.32        2980.50           2577         764.00      3322.52
 1182.35        2980.75           2580         758.00      3296.36
 1182.39        2981.00           2584         773.00      3361.76
 1182.42        2981.25           2587         729.00      3169.91
 1182.45        2981.50           2591         737.00      3204.80
 1182.48        2981.75           2594         731.00      3178.63
 1182.51        2982.00           2598         741.00      3222.24
 1182.54        2982.25           2601         714.00      3104.51
 1182.58        2982.50           2605         707.00      3073.99
 1182.61        2982.75           2609         700.00      3043.47
 1182.65        2983.00           2612         721.00      3135.03
 1182.68        2983.25           2616         704.00      3060.91
 1182.71        2983.50           2619         690.00      2999.87
 1182.74        2983.75           2623         701.00      3047.83
 1182.77        2984.00           2626         699.00      3039.11
HS scan finished at 19:42:59
end
