************************************************************
  HS Scan of 
************************************************************
Integration time is 0.2294 seconds per sample
dh230317Reading 51.44 .94 2.74pr1000
************************************************************
Dead Time -------------------------  3.4E-08 
Number of Cycles Used -------------  4 
Starting Wavelength (Angstroms) ---  2950 
Final Wavelength (Angstoms) -------  2984 
Wavelength Increment (Angstroms) --  .25 
Filter Wheel #1 Position ---------- (1) Ground quartz diffuser (ND=2.32)
Filter Wheel #2 Position ---------- (1) Neutral Density 0.494



************************************************************
HS scan start time = 02:56:24
Dark Count =  .3 


Time (GMT)  Wavelength (Ang)  Step Number  Raw Counts  Counts/Second

  177.31        2950.00           2144         994.00      4332.37
  177.50        2950.25           2147        1023.00      4458.83
  177.53        2950.50           2151        1059.00      4615.81
  177.56        2950.75           2155        1016.00      4428.30
  177.59        2951.00           2158        1052.00      4585.28
  177.62        2951.25           2162        1042.00      4541.68
  177.65        2951.50           2165        1078.00      4698.66
  177.68        2951.75           2169        1055.00      4598.37
  177.71        2952.00           2172        1055.00      4598.37
  177.74        2952.25           2176        1042.00      4541.68
  177.77        2952.50           2179        1036.00      4515.51
  177.81        2952.75           2183        1072.00      4672.49
  177.84        2953.00           2186        1064.00      4637.61
  177.87        2953.25           2190        1072.00      4672.49
  177.90        2953.50           2193        1083.00      4720.46
  177.93        2953.75           2197        1082.00      4716.10
  177.96        2954.00           2200        1087.00      4737.90
  177.99        2954.25           2204        1129.00      4921.05
  178.02        2954.50           2208        1107.00      4825.12
  178.05        2954.75           2211        1095.00      4772.79
  178.08        2955.00           2215        1078.00      4698.66
  178.11        2955.25           2218        1124.00      4899.25
  178.14        2955.50           2222        1151.00      5016.98
  178.17        2955.75           2225        1132.00      4934.13
  178.20        2956.00           2229        1179.00      5139.08
  178.23        2956.25           2232        1108.00      4829.48
  178.26        2956.50           2236        1139.00      4964.66
  178.29        2956.75           2239        1143.00      4982.10
  178.33        2957.00           2243        1155.00      5034.43
  178.36        2957.25           2246        1159.00      5051.87
  178.39        2957.50           2250        1178.00      5134.72
  178.42        2957.75           2254        1228.00      5352.76
  178.45        2958.00           2257        1208.00      5265.55
  178.48        2958.25           2261        1193.00      5200.13
  178.51        2958.50           2264        1191.00      5191.41
  178.54        2958.75           2268        1255.00      5470.50
  178.57        2959.00           2271        1266.00      5518.47
  178.60        2959.25           2275        1235.00      5383.29
  178.63        2959.50           2278        1275.00      5557.72
  178.66        2959.75           2282        1310.00      5710.35
  178.69        2960.00           2285        1292.00      5631.85
  178.72        2960.25           2289        1351.00      5889.15
  178.75        2960.50           2293        1359.00      5924.04
  178.78        2960.75           2296        1424.00      6207.50
  178.81        2961.00           2300        1445.00      6299.08
  178.84        2961.25           2303        1773.00      7729.58
  178.88        2961.50           2307        5301.00     23124.98
  178.91        2961.75           2310       13437.00     58690.24
  178.94        2962.00           2314       27378.00    119832.10
  178.97        2962.25           2317       37596.00    164808.00
  179.00        2962.50           2321       52882.00    232350.10
  179.03        2962.75           2324       65212.00    287058.80
  179.06        2963.00           2328       83178.00    367142.60
  179.09        2963.25           2331       97123.00    429606.60
  179.12        2963.50           2335      114497.00    507806.10
  179.15        2963.75           2339      131104.00    582947.50
  179.18        2964.00           2342      142869.00    636415.90
  179.21        2964.25           2346      161304.00    720595.00
  179.24        2964.50           2349      175072.00    783783.10
  179.27        2964.75           2353      192278.00    863138.80
  179.30        2965.00           2356      204628.00    920367.30
  179.33        2965.25           2360      219712.00    990573.30
  179.36        2965.50           2363      231741.00   1046806.00
  179.40        2965.75           2367      247823.00   1122329.00
  179.43        2966.00           2370      256649.00   1163945.00
  179.46        2966.25           2374      271090.00   1232298.00
  179.49        2966.50           2378      282137.00   1284806.00
  179.52        2966.75           2381      285156.00   1299190.00
  179.55        2967.00           2385      287078.00   1308354.00
  179.58        2967.25           2388      286914.00   1307572.00
  179.61        2967.50           2392      286511.00   1305650.00
  179.64        2967.75           2395      286279.00   1304543.00
  179.67        2968.00           2399      280434.00   1276699.00
  179.70        2968.25           2402      271800.00   1235667.00
  179.73        2968.50           2406      256670.00   1164044.00
  179.76        2968.75           2409      244759.00   1107909.00
  179.79        2969.00           2413      230217.00   1039669.00
  179.82        2969.25           2417      215074.00    968950.10
  179.85        2969.50           2420      204643.00    920436.90
  179.88        2969.75           2424      188426.00    845335.20
  179.92        2970.00           2427      175456.00    785549.40
  179.95        2970.25           2431      157237.00    701982.10
  179.98        2970.50           2434      144414.00    643452.10
  180.01        2970.75           2438      129069.00    573718.80
  180.04        2971.00           2441      116584.00    517227.80
  180.07        2971.25           2445      100755.00    445919.40
  180.10        2971.50           2449       83881.00    370285.20
  180.13        2971.75           2452       71467.00    314890.80
  180.16        2972.00           2456       54293.00    238600.50
  180.19        2972.25           2459       41016.00    179892.50
  180.22        2972.50           2463       24095.00    105410.70
  180.25        2972.75           2466       12667.00     55320.61
  180.28        2973.00           2470        4288.00     18702.82
  180.31        2973.25           2473        2272.00      9906.13
  180.34        2973.50           2477        1543.00      6726.47
  180.37        2973.75           2481        1426.00      6216.22
  180.40        2974.00           2484        1389.00      6054.86
  180.44        2974.25           2488        1341.00      5845.54
  180.47        2974.50           2491        1370.00      5972.01
  180.50        2974.75           2495        1352.00      5893.51
  180.53        2975.00           2498        1291.00      5627.49
  180.56        2975.25           2502        1253.00      5461.78
  180.59        2975.50           2505        1249.00      5444.34
  180.62        2975.75           2509        1244.00      5422.53
  180.65        2976.00           2512        1218.00      5309.15
  180.68        2976.25           2516        1204.00      5248.10
  180.71        2976.50           2520        1193.00      5200.13
  180.74        2976.75           2523        1161.00      5060.59
  180.77        2977.00           2527        1160.00      5056.23
  180.80        2977.25           2530        1159.00      5051.87
  180.83        2977.50           2534        1163.00      5069.31
  180.86        2977.75           2537        1145.00      4990.82
  180.89        2978.00           2541        1085.00      4729.18
  180.93        2978.25           2544        1155.00      5034.43
  180.96        2978.50           2548        1138.00      4960.30
  180.99        2978.75           2552        1079.00      4703.02
  181.02        2979.00           2555        1115.00      4860.00
  181.05        2979.25           2559        1115.00      4860.00
  181.08        2979.50           2562        1058.00      4611.45
  181.11        2979.75           2566        1075.00      4685.58
  181.14        2980.00           2569        1063.00      4633.25
  181.17        2980.25           2573        1074.00      4681.22
  181.20        2980.50           2577        1051.00      4580.92
  181.23        2980.75           2580        1052.00      4585.28
  181.26        2981.00           2584        1040.00      4532.96
  181.29        2981.25           2587        1043.00      4546.04
  181.32        2981.50           2591        1040.00      4532.96
  181.35        2981.75           2594        1021.00      4450.11
  181.38        2982.00           2598        1049.00      4572.20
  181.41        2982.25           2601        1000.00      4358.54
  181.44        2982.50           2605         987.00      4301.85
  181.48        2982.75           2609         989.00      4310.57
  181.51        2983.00           2612        1025.00      4467.55
  181.54        2983.25           2616        1017.00      4432.66
  181.57        2983.50           2619        1021.00      4450.11
  181.60        2983.75           2623         982.00      4280.05
  181.63        2984.00           2626        1002.00      4367.26
HS scan finished at 03:01:51
end
************************************************************
  HS Scan of 
************************************************************
Integration time is 0.2294 seconds per sample
dh230317Reading 51.44 .94 3.01pr1000
************************************************************
Dead Time -------------------------  3.4E-08 
Number of Cycles Used -------------  4 
Starting Wavelength (Angstroms) ---  2950 
Final Wavelength (Angstoms) -------  2984 
Wavelength Increment (Angstroms) --  .25 
Filter Wheel #1 Position ---------- (1) Ground quartz diffuser (ND=2.32)
Filter Wheel #2 Position ---------- (1) Neutral Density 0.494



************************************************************
HS scan start time = 19:07:28
Dark Count =  1.3 


Time (GMT)  Wavelength (Ang)  Step Number  Raw Counts  Counts/Second

 1148.37        2950.00           2144         816.00      3551.87
 1148.56        2950.25           2147         784.00      3412.34
 1148.59        2950.50           2151         774.00      3368.74
 1148.62        2950.75           2155         798.00      3473.38
 1148.65        2951.00           2158         825.00      3591.11
 1148.69        2951.25           2162         808.00      3516.99
 1148.72        2951.50           2165         831.00      3617.27
 1148.75        2951.75           2169         841.00      3660.87
 1148.78        2952.00           2172         787.00      3425.42
 1148.81        2952.25           2176         817.00      3556.23
 1148.84        2952.50           2179         855.00      3721.92
 1148.87        2952.75           2183         822.00      3578.03
 1148.91        2953.00           2186         834.00      3630.35
 1148.95        2953.25           2190         800.00      3482.10
 1148.98        2953.50           2193         847.00      3687.04
 1149.01        2953.75           2197         847.00      3687.04
 1149.04        2954.00           2200         860.00      3743.72
 1149.07        2954.25           2204         849.00      3695.76
 1149.10        2954.50           2208         857.00      3730.64
 1149.13        2954.75           2211         851.00      3704.48
 1149.16        2955.00           2215         825.00      3591.11
 1149.19        2955.25           2218         858.00      3735.00
 1149.22        2955.50           2222         860.00      3743.72
 1149.25        2955.75           2225         864.00      3761.16
 1149.28        2956.00           2229         866.00      3769.88
 1149.31        2956.25           2232         882.00      3839.65
 1149.34        2956.50           2236         869.00      3782.96
 1149.37        2956.75           2239         892.00      3883.25
 1149.40        2957.00           2243         901.00      3922.49
 1149.43        2957.25           2246         882.00      3839.65
 1149.47        2957.50           2250         920.00      4005.34
 1149.50        2957.75           2254         935.00      4070.75
 1149.53        2958.00           2257         912.00      3970.46
 1149.56        2958.25           2261         951.00      4140.51
 1149.59        2958.50           2264         929.00      4044.58
 1149.62        2958.75           2268         945.00      4114.35
 1149.65        2959.00           2271         954.00      4153.59
 1149.68        2959.25           2275         976.00      4249.52
 1149.71        2959.50           2278         957.00      4166.68
 1149.74        2959.75           2282         985.00      4288.77
 1149.77        2960.00           2285         993.00      4323.65
 1149.80        2960.25           2289        1040.00      4528.60
 1149.83        2960.50           2293        1042.00      4537.32
 1149.86        2960.75           2296        1085.00      4724.82
 1149.89        2961.00           2300        1155.00      5030.07
 1149.92        2961.25           2303        1398.00      6089.75
 1149.95        2961.50           2307        4484.00     19553.98
 1149.98        2961.75           2310       10861.00     47415.97
 1150.02        2962.00           2314       22052.00     96439.07
 1150.05        2962.25           2317       31352.00    137303.40
 1150.08        2962.50           2321       42930.00    188336.90
 1150.11        2962.75           2324       51212.00    224951.50
 1150.14        2963.00           2328       63963.00    281503.20
 1150.17        2963.25           2331       75835.00    334353.50
 1150.20        2963.50           2335       89952.00    397447.60
 1150.23        2963.75           2339      103368.00    457662.30
 1150.26        2964.00           2342      113223.00    502053.10
 1150.29        2964.25           2346      125456.00    557344.00
 1150.32        2964.50           2349      135671.00    603675.30
 1150.35        2964.75           2353      149495.00    666611.30
 1150.38        2965.00           2356      159639.00    712967.60
 1150.41        2965.25           2360      171854.00    768984.90
 1150.44        2965.50           2363      181395.00    812890.30
 1150.47        2965.75           2367      192996.00    866455.10
 1150.51        2966.00           2370      201877.00    907595.20
 1150.54        2966.25           2374      212854.00    958606.90
 1150.57        2966.50           2378      220228.00    992976.20
 1150.60        2966.75           2381      222233.00   1002336.00
 1150.63        2967.00           2385      223151.00   1006623.00
 1150.66        2967.25           2388      223291.00   1007277.00
 1150.69        2967.50           2392      222928.00   1005581.00
 1150.72        2967.75           2395      222511.00   1003634.00
 1150.75        2968.00           2399      218523.00    985022.20
 1150.78        2968.25           2402      212107.00    955129.80
 1150.81        2968.50           2406      199793.00    897930.90
 1150.84        2968.75           2409      190899.00    856758.00
 1150.87        2969.00           2413      178271.00    798499.80
 1150.90        2969.25           2417      167634.00    749607.70
 1150.93        2969.50           2420      158935.00    709745.60
 1150.96        2969.75           2424      146923.00    654881.20
 1150.99        2970.00           2427      137834.00    613504.70
 1151.03        2970.25           2431      123895.00    550276.80
 1151.06        2970.50           2434      113600.00    503753.90
 1151.09        2970.75           2438       99659.00    440990.40
 1151.12        2971.00           2441       89369.00    394836.60
 1151.15        2971.25           2445       76744.00    338408.00
 1151.18        2971.50           2449       63491.00    279405.90
 1151.21        2971.75           2452       54078.00    237643.40
 1151.24        2972.00           2456       42368.00    185855.60
 1151.27        2972.25           2459       33008.00    144591.80
 1151.30        2972.50           2463       19350.00     84587.74
 1151.33        2972.75           2466       10307.00     44993.37
 1151.36        2973.00           2470        3360.00     14648.53
 1151.39        2973.25           2473        1683.00      7332.69
 1151.42        2973.50           2477        1189.00      5178.33
 1151.45        2973.75           2481        1143.00      4977.74
 1151.48        2974.00           2484        1083.00      4716.10
 1151.51        2974.25           2488        1022.00      4450.11
 1151.54        2974.50           2491        1026.00      4467.55
 1151.58        2974.75           2495        1027.00      4471.91
 1151.61        2975.00           2498         998.00      4345.45
 1151.64        2975.25           2502         984.00      4284.41
 1151.67        2975.50           2505         959.00      4175.40
 1151.70        2975.75           2509         977.00      4253.89
 1151.73        2976.00           2512         932.00      4057.67
 1151.76        2976.25           2516         943.00      4105.63
 1151.79        2976.50           2520         940.00      4092.55
 1151.82        2976.75           2523         914.00      3979.18
 1151.85        2977.00           2527         882.00      3839.65
 1151.88        2977.25           2530         909.00      3957.38
 1151.91        2977.50           2534         887.00      3861.45
 1151.94        2977.75           2537         918.00      3996.62
 1151.97        2978.00           2541         885.00      3852.73
 1152.00        2978.25           2544         884.00      3848.37
 1152.03        2978.50           2548         855.00      3721.92
 1152.06        2978.75           2552         843.00      3669.60
 1152.10        2979.00           2555         846.00      3682.68
 1152.13        2979.25           2559         838.00      3647.79
 1152.16        2979.50           2562         845.00      3678.32
 1152.19        2979.75           2566         836.00      3639.07
 1152.22        2980.00           2569         848.00      3691.40
 1152.25        2980.25           2573         817.00      3556.23
 1152.28        2980.50           2577         844.00      3673.96
 1152.31        2980.75           2580         826.00      3595.47
 1152.34        2981.00           2584         777.00      3381.82
 1152.37        2981.25           2587         804.00      3499.54
 1152.40        2981.50           2591         805.00      3503.90
 1152.43        2981.75           2594         795.00      3460.30
 1152.46        2982.00           2598         772.00      3360.02
 1152.49        2982.25           2601         769.00      3346.94
 1152.54        2982.50           2605         783.00      3407.98
 1152.57        2982.75           2609         775.00      3373.10
 1152.60        2983.00           2612         788.00      3429.78
 1152.63        2983.25           2616         776.00      3377.46
 1152.66        2983.50           2619         772.00      3360.02
 1152.69        2983.75           2623         782.00      3403.62
 1152.72        2984.00           2626         784.00      3412.34
HS scan finished at 19:12:57
end
