************************************************************
  HS Scan of 
************************************************************
Integration time is 0.2294 seconds per sample
dh250317Reading 51.44 .94 2.62pr1000
************************************************************
Dead Time -------------------------  3.4E-08 
Number of Cycles Used -------------  4 
Starting Wavelength (Angstroms) ---  2950 
Final Wavelength (Angstoms) -------  2984 
Wavelength Increment (Angstroms) --  .25 
Filter Wheel #1 Position ---------- (1) Ground quartz diffuser (ND=2.32)
Filter Wheel #2 Position ---------- (1) Neutral Density 0.494



************************************************************
HS scan start time = 02:48:31
Dark Count =  .3 


Time (GMT)  Wavelength (Ang)  Step Number  Raw Counts  Counts/Second

  169.42        2950.00           2144        1010.00      4402.14
  169.61        2950.25           2147        1007.00      4389.06
  169.64        2950.50           2151        1016.00      4428.30
  169.67        2950.75           2155        1016.00      4428.30
  169.70        2951.00           2158         984.00      4288.77
  169.73        2951.25           2162         997.00      4345.45
  169.76        2951.50           2165        1029.00      4484.99
  169.79        2951.75           2169         998.00      4349.82
  169.82        2952.00           2172        1021.00      4450.11
  169.86        2952.25           2176        1048.00      4567.84
  169.89        2952.50           2179        1041.00      4537.32
  169.92        2952.75           2183        1063.00      4633.25
  169.95        2953.00           2186        1036.00      4515.51
  169.98        2953.25           2190        1034.00      4506.79
  170.01        2953.50           2193        1060.00      4620.17
  170.04        2953.75           2197        1073.00      4676.86
  170.07        2954.00           2200        1082.00      4716.10
  170.10        2954.25           2204        1080.00      4707.38
  170.13        2954.50           2208        1058.00      4611.45
  170.16        2954.75           2211        1076.00      4689.94
  170.19        2955.00           2215        1088.00      4742.26
  170.22        2955.25           2218        1096.00      4777.15
  170.25        2955.50           2222        1103.00      4807.67
  170.28        2955.75           2225        1082.00      4716.10
  170.31        2956.00           2229        1076.00      4689.94
  170.34        2956.25           2232        1098.00      4785.87
  170.38        2956.50           2236        1143.00      4982.10
  170.41        2956.75           2239        1136.00      4951.57
  170.44        2957.00           2243        1124.00      4899.25
  170.47        2957.25           2246        1166.00      5082.40
  170.50        2957.50           2250        1145.00      4990.82
  170.53        2957.75           2254        1148.00      5003.90
  170.56        2958.00           2257        1174.00      5117.28
  170.59        2958.25           2261        1209.00      5269.91
  170.62        2958.50           2264        1171.00      5104.20
  170.65        2958.75           2268        1184.00      5160.89
  170.68        2959.00           2271        1262.00      5501.03
  170.71        2959.25           2275        1246.00      5431.26
  170.74        2959.50           2278        1241.00      5409.45
  170.77        2959.75           2282        1256.00      5474.86
  170.80        2960.00           2285        1281.00      5583.89
  170.83        2960.25           2289        1332.00      5806.29
  170.86        2960.50           2293        1343.00      5854.26
  170.90        2960.75           2296        1362.00      5937.12
  170.93        2961.00           2300        1412.00      6155.17
  170.96        2961.25           2303        1768.00      7707.77
  170.99        2961.50           2307        5371.00     23430.60
  171.02        2961.75           2310       12823.00     56003.23
  171.05        2962.00           2314       26537.00    116136.40
  171.08        2962.25           2317       37865.00    165993.90
  171.11        2962.50           2321       52482.00    230578.70
  171.14        2962.75           2324       63647.00    280103.50
  171.17        2963.00           2328       79805.00    352073.90
  171.20        2963.25           2331       93144.00    411756.20
  171.23        2963.50           2335      109625.00    485835.10
  171.26        2963.75           2339      124272.00    551987.80
  171.29        2964.00           2342      136251.00    606314.80
  171.32        2964.25           2346      152876.00    682050.00
  171.35        2964.50           2349      164586.00    735632.80
  171.38        2964.75           2353      181609.00    813881.30
  171.42        2965.00           2356      192172.00    862648.60
  171.45        2965.25           2360      205761.00    925628.80
  171.48        2965.50           2363      217663.00    981016.50
  171.51        2965.75           2367      233294.00   1054082.00
  171.54        2966.00           2370      244096.00   1104791.00
  171.57        2966.25           2374      257959.00   1170132.00
  171.60        2966.50           2378      268222.00   1218697.00
  171.63        2966.75           2381      271701.00   1235197.00
  171.66        2967.00           2385      272596.00   1239445.00
  171.69        2967.25           2388      272910.00   1240936.00
  171.72        2967.50           2392      273153.00   1242089.00
  171.75        2967.75           2395      272747.00   1240162.00
  171.78        2968.00           2399      269473.00   1224628.00
  171.81        2968.25           2402      262064.00   1189538.00
  171.84        2968.50           2406      247695.00   1121726.00
  171.87        2968.75           2409      236634.00   1069742.00
  171.90        2969.00           2413      223351.00   1007562.00
  171.94        2969.25           2417      209672.00    943805.90
  171.97        2969.50           2420      198098.00    890079.80
  172.00        2969.75           2424      180182.00    807305.60
  172.03        2970.00           2427      167442.00    748731.40
  172.06        2970.25           2431      150981.00    673397.50
  172.09        2970.50           2434      138978.00    618710.60
  172.12        2970.75           2438      121898.00    541245.30
  172.15        2971.00           2441      109573.00    485600.80
  172.18        2971.25           2445       92507.00    408900.50
  172.21        2971.50           2449       75916.00    334719.30
  172.24        2971.75           2452       64310.00    283049.60
  172.27        2972.00           2456       48380.00    212425.40
  172.30        2972.25           2459       36787.00    161242.10
  172.33        2972.50           2463       22088.00     96601.41
  172.36        2972.75           2466       12429.00     54279.24
  172.39        2973.00           2470        4447.00     19396.83
  172.42        2973.25           2473        2111.00      9203.84
  172.46        2973.50           2477        1458.00      6355.78
  172.49        2973.75           2481        1345.00      5862.98
  172.52        2974.00           2484        1334.00      5815.01
  172.55        2974.25           2488        1366.00      5954.56
  172.58        2974.50           2491        1297.00      5653.66
  172.61        2974.75           2495        1260.00      5492.31
  172.64        2975.00           2498        1256.00      5474.86
  172.67        2975.25           2502        1290.00      5623.13
  172.70        2975.50           2505        1264.00      5509.75
  172.73        2975.75           2509        1201.00      5235.02
  172.76        2976.00           2512        1189.00      5182.69
  172.79        2976.25           2516        1146.00      4995.18
  172.82        2976.50           2520        1128.00      4916.69
  172.85        2976.75           2523        1164.00      5073.67
  172.88        2977.00           2527        1119.00      4877.44
  172.91        2977.25           2530        1122.00      4890.53
  172.94        2977.50           2534        1134.00      4942.85
  172.97        2977.75           2537        1120.00      4881.80
  173.01        2978.00           2541        1109.00      4833.84
  173.04        2978.25           2544        1122.00      4890.53
  173.07        2978.50           2548        1080.00      4707.38
  173.10        2978.75           2552        1097.00      4781.51
  173.13        2979.00           2555        1058.00      4611.45
  173.16        2979.25           2559        1054.00      4594.00
  173.19        2979.50           2562        1045.00      4554.76
  173.22        2979.75           2566        1081.00      4711.74
  173.25        2980.00           2569        1038.00      4524.24
  173.28        2980.25           2573        1053.00      4589.64
  173.31        2980.50           2577        1058.00      4611.45
  173.34        2980.75           2580        1023.00      4458.83
  173.37        2981.00           2584        1014.00      4419.58
  173.40        2981.25           2587         998.00      4349.82
  173.43        2981.50           2591         997.00      4345.45
  173.46        2981.75           2594        1001.00      4362.90
  173.49        2982.00           2598        1014.00      4419.58
  173.53        2982.25           2601         998.00      4349.82
  173.56        2982.50           2605        1024.00      4463.19
  173.59        2982.75           2609         957.00      4171.04
  173.62        2983.00           2612         992.00      4323.65
  173.65        2983.25           2616         987.00      4301.85
  173.68        2983.50           2619         986.00      4297.49
  173.71        2983.75           2623         957.00      4171.04
  173.74        2984.00           2626         949.00      4136.15
HS scan finished at 02:53:58
end
************************************************************
  HS Scan of 
************************************************************
Integration time is 0.2294 seconds per sample
dh250317Reading 51.44 .94 3.21pr1000
************************************************************
Dead Time -------------------------  3.4E-08 
Number of Cycles Used -------------  4 
Starting Wavelength (Angstroms) ---  2950 
Final Wavelength (Angstoms) -------  2984 
Wavelength Increment (Angstroms) --  .25 
Filter Wheel #1 Position ---------- (1) Ground quartz diffuser (ND=2.32)
Filter Wheel #2 Position ---------- (1) Neutral Density 0.494



************************************************************
HS scan start time = 19:07:30
Dark Count =  2 


Time (GMT)  Wavelength (Ang)  Step Number  Raw Counts  Counts/Second

 1148.41        2950.00           2144         710.00      3086.64
 1148.60        2950.25           2147         729.00      3169.48
 1148.63        2950.50           2151         736.00      3200.00
 1148.66        2950.75           2155         716.00      3112.80
 1148.69        2951.00           2158         725.00      3152.04
 1148.72        2951.25           2162         724.00      3147.68
 1148.75        2951.50           2165         731.00      3178.20
 1148.78        2951.75           2169         744.00      3234.88
 1148.81        2952.00           2172         741.00      3221.80
 1148.84        2952.25           2176         741.00      3221.80
 1148.88        2952.50           2179         768.00      3339.53
 1148.91        2952.75           2183         739.00      3213.08
 1148.94        2953.00           2186         800.00      3479.05
 1148.97        2953.25           2190         769.00      3343.89
 1149.00        2953.50           2193         763.00      3317.72
 1149.03        2953.75           2197         745.00      3239.24
 1149.06        2954.00           2200         782.00      3400.57
 1149.10        2954.25           2204         787.00      3422.37
 1149.13        2954.50           2208         772.00      3356.97
 1149.16        2954.75           2211         764.00      3322.08
 1149.19        2955.00           2215         767.00      3335.16
 1149.22        2955.25           2218         791.00      3439.81
 1149.25        2955.50           2222         791.00      3439.81
 1149.28        2955.75           2225         803.00      3492.13
 1149.31        2956.00           2229         811.00      3527.01
 1149.34        2956.25           2232         809.00      3518.29
 1149.37        2956.50           2236         818.00      3557.54
 1149.40        2956.75           2239         818.00      3557.54
 1149.43        2957.00           2243         857.00      3727.59
 1149.46        2957.25           2246         855.00      3718.87
 1149.49        2957.50           2250         847.00      3683.98
 1149.52        2957.75           2254         826.00      3592.42
 1149.55        2958.00           2257         880.00      3827.87
 1149.58        2958.25           2261         878.00      3819.15
 1149.62        2958.50           2264         877.00      3814.79
 1149.65        2958.75           2268         883.00      3840.96
 1149.68        2959.00           2271         926.00      4028.45
 1149.71        2959.25           2275         912.00      3967.41
 1149.74        2959.50           2278         930.00      4045.89
 1149.77        2959.75           2282         943.00      4102.58
 1149.80        2960.00           2285         953.00      4146.18
 1149.83        2960.25           2289         966.00      4202.87
 1149.86        2960.50           2293        1004.00      4368.57
 1149.89        2960.75           2296        1029.00      4477.58
 1149.92        2961.00           2300        1096.00      4769.74
 1149.95        2961.25           2303        1609.00      7006.90
 1149.98        2961.50           2307        5581.00     24340.10
 1150.01        2961.75           2310       12161.00     53099.27
 1150.04        2962.00           2314       23027.00    100714.80
 1150.07        2962.25           2317       31406.00    137537.90
 1150.10        2962.50           2321       43871.00    192489.30
 1150.14        2962.75           2324       54020.00    237383.40
 1150.17        2963.00           2328       67732.00    298257.80
 1150.20        2963.25           2331       78094.00    344428.50
 1150.23        2963.50           2335       91817.00    405800.20
 1150.26        2963.75           2339      104149.00    461172.20
 1150.29        2964.00           2342      113508.00    503335.70
 1150.32        2964.25           2346      127135.00    564946.00
 1150.35        2964.50           2349      137325.00    611187.80
 1150.38        2964.75           2353      149851.00    668232.50
 1150.41        2965.00           2356      158596.00    708191.10
 1150.44        2965.25           2360      171075.00    765402.80
 1150.47        2965.50           2363      179117.00    802392.20
 1150.50        2965.75           2367      189634.00    850908.30
 1150.53        2966.00           2370      198755.00    893116.40
 1150.56        2966.25           2374      210898.00    949500.60
 1150.59        2966.50           2378      217934.00    982272.20
 1150.62        2966.75           2381      219293.00    988610.60
 1150.66        2967.00           2385      220178.00    992739.80
 1150.69        2967.25           2388      219736.00    990677.20
 1150.72        2967.50           2392      219566.00    989884.10
 1150.75        2967.75           2395      218627.00    985503.90
 1150.78        2968.00           2399      214826.00    967787.00
 1150.81        2968.25           2402      208337.00    937590.80
 1150.84        2968.50           2406      196937.00    884693.60
 1150.87        2968.75           2409      186954.00    838529.70
 1150.90        2969.00           2413      175064.00    783738.50
 1150.93        2969.25           2417      163940.00    732663.80
 1150.96        2969.50           2420      154978.00    691646.10
 1150.99        2969.75           2424      142345.00    634022.50
 1151.02        2970.00           2427      132144.00    587658.30
 1151.05        2970.25           2431      118212.00    524573.90
 1151.08        2970.50           2434      109408.00    484849.60
 1151.11        2970.75           2438       95829.00    423791.50
 1151.14        2971.00           2441       86015.00    379821.10
 1151.18        2971.25           2445       72538.00    319654.10
 1151.21        2971.50           2449       58825.00    258686.40
 1151.24        2971.75           2452       48858.00    214532.10
 1151.27        2972.00           2456       36177.00    158546.40
 1151.30        2972.25           2459       27094.00    118576.50
 1151.33        2972.50           2463       15512.00     67767.13
 1151.36        2972.75           2466        7944.00     34661.58
 1151.39        2973.00           2470        2677.00     11665.48
 1151.42        2973.25           2473        1426.00      6208.81
 1151.45        2973.50           2477        1083.00      4713.05
 1151.48        2973.75           2481        1048.00      4560.43
 1151.51        2974.00           2484        1003.00      4364.20
 1151.54        2974.25           2488         994.00      4324.96
 1151.57        2974.50           2491        1014.00      4412.17
 1151.60        2974.75           2495         951.00      4137.46
 1151.63        2975.00           2498         953.00      4146.18
 1151.66        2975.25           2502         921.00      4006.65
 1151.70        2975.50           2505         931.00      4050.25
 1151.73        2975.75           2509         908.00      3949.96
 1151.76        2976.00           2512         867.00      3771.19
 1151.79        2976.25           2516         876.00      3810.43
 1151.82        2976.50           2520         858.00      3731.95
 1151.85        2976.75           2523         856.00      3723.23
 1151.88        2977.00           2527         853.00      3710.15
 1151.91        2977.25           2530         848.00      3688.34
 1151.94        2977.50           2534         821.00      3570.62
 1151.97        2977.75           2537         816.00      3548.82
 1152.00        2978.00           2541         793.00      3448.53
 1152.03        2978.25           2544         834.00      3627.30
 1152.06        2978.50           2548         772.00      3356.97
 1152.09        2978.75           2552         762.00      3313.36
 1152.12        2979.00           2555         816.00      3548.82
 1152.15        2979.25           2559         789.00      3431.09
 1152.18        2979.50           2562         754.00      3278.48
 1152.21        2979.75           2566         785.00      3413.65
 1152.25        2980.00           2569         783.00      3404.93
 1152.28        2980.25           2573         759.00      3300.28
 1152.31        2980.50           2577         753.00      3274.12
 1152.34        2980.75           2580         761.00      3309.00
 1152.37        2981.00           2584         770.00      3348.25
 1152.40        2981.25           2587         762.00      3313.36
 1152.43        2981.50           2591         747.00      3247.96
 1152.46        2981.75           2594         739.00      3213.08
 1152.49        2982.00           2598         726.00      3156.40
 1152.52        2982.25           2601         732.00      3182.56
 1152.55        2982.50           2605         746.00      3243.60
 1152.58        2982.75           2609         735.00      3195.64
 1152.61        2983.00           2612         743.00      3230.52
 1152.64        2983.25           2616         719.00      3125.88
 1152.67        2983.50           2619         721.00      3134.60
 1152.70        2983.75           2623         740.00      3217.44
 1152.73        2984.00           2626         728.00      3165.12
HS scan finished at 19:12:58
end
