************************************************************
  HS Scan of (1) Internal mercury lamp
************************************************************
Integration time is 0.2294 seconds per sample
dh210319Reading 51.44 .94 3.21pr1000
************************************************************
Dead Time -------------------------  3.4E-08 
Number of Cycles Used -------------  4 
Starting Wavelength (Angstroms) ---  2950 
Final Wavelength (Angstoms) -------  2984 
Wavelength Increment (Angstroms) --  .25 
Filter Wheel #1 Position ---------- (1) Ground quartz diffuser (ND=2.32)
Filter Wheel #2 Position ---------- (1) Neutral Density 0.494



************************************************************
HS scan start time = 03:05:42
Dark Count =  1.2 


Time (GMT)  Wavelength (Ang)  Step Number  Raw Counts  Counts/Second

  186.59        2950.00           2144        1492.00      6500.13
  186.79        2950.25           2147        1479.00      6443.43
  186.82        2950.50           2151        1502.00      6543.74
  186.85        2950.75           2155        1536.00      6692.02
  186.88        2951.00           2158        1508.00      6569.91
  186.91        2951.25           2162        1514.00      6596.07
  186.94        2951.50           2165        1486.00      6473.96
  186.97        2951.75           2169        1565.00      6818.49
  187.00        2952.00           2172        1516.00      6604.80
  187.03        2952.25           2176        1532.00      6674.58
  187.06        2952.50           2179        1538.00      6700.74
  187.09        2952.75           2183        1557.00      6783.61
  187.12        2953.00           2186        1580.00      6883.91
  187.15        2953.25           2190        1571.00      6844.66
  187.19        2953.50           2193        1555.00      6774.88
  187.22        2953.75           2197        1619.00      7054.00
  187.25        2954.00           2200        1595.00      6949.33
  187.28        2954.25           2204        1595.00      6949.33
  187.31        2954.50           2208        1559.00      6792.33
  187.34        2954.75           2211        1619.00      7054.00
  187.37        2955.00           2215        1624.00      7075.81
  187.40        2955.25           2218        1632.00      7110.70
  187.43        2955.50           2222        1674.00      7293.88
  187.46        2955.75           2225        1668.00      7267.71
  187.49        2956.00           2229        1646.00      7171.76
  187.52        2956.25           2232        1655.00      7211.01
  187.55        2956.50           2236        1694.00      7381.10
  187.58        2956.75           2239        1773.00      7725.66
  187.61        2957.00           2243        1744.00      7599.17
  187.64        2957.25           2246        1760.00      7668.96
  187.67        2957.50           2250        1756.00      7651.51
  187.71        2957.75           2254        1788.00      7791.08
  187.74        2958.00           2257        1772.00      7721.29
  187.77        2958.25           2261        1812.00      7895.76
  187.80        2958.50           2264        1840.00      8017.88
  187.83        2958.75           2268        1871.00      8153.09
  187.86        2959.00           2271        1946.00      8480.21
  187.89        2959.25           2275        1953.00      8510.75
  187.92        2959.50           2278        1944.00      8471.49
  187.95        2959.75           2282        1977.00      8615.43
  187.98        2960.00           2285        2044.00      8907.67
  188.01        2960.25           2289        2069.00      9016.71
  188.04        2960.50           2293        2119.00      9234.81
  188.07        2960.75           2296        2164.00      9431.10
  188.10        2961.00           2300        2337.00     10185.74
  188.13        2961.25           2303        2984.00     13008.37
  188.16        2961.50           2307        9459.00     41286.34
  188.19        2961.75           2310       23163.00    101315.30
  188.23        2962.00           2314       47099.00    206757.00
  188.26        2962.25           2317       66254.00    291687.50
  188.29        2962.50           2321       93956.00    415393.10
  188.32        2962.75           2324      115353.00    511665.60
  188.35        2963.00           2328      143553.00    639526.50
  188.38        2963.25           2331      164314.00    734381.80
  188.41        2963.50           2335      196030.00    880497.10
  188.44        2963.75           2339      227104.00   1025099.00
  188.47        2964.00           2342      249242.00   1129007.00
  188.50        2964.25           2346      276476.00   1257871.00
  188.53        2964.50           2349      297492.00   1358107.00
  188.56        2964.75           2353      323851.00   1484825.00
  188.59        2965.00           2356      342946.00   1577327.00
  188.62        2965.25           2360      367615.00   1697724.00
  188.65        2965.50           2363      384698.00   1781697.00
  188.68        2965.75           2367      405623.00   1885234.00
  188.71        2966.00           2370      422403.00   1968810.00
  188.75        2966.25           2374      445271.00   2083507.00
  188.78        2966.50           2378      461055.00   2163218.00
  188.81        2966.75           2381      467801.00   2197424.00
  188.84        2967.00           2385      471343.00   2215417.00
  188.87        2967.25           2388      471891.00   2218203.00
  188.90        2967.50           2392      471544.00   2216439.00
  188.93        2967.75           2395      470543.00   2211351.00
  188.96        2968.00           2399      465529.00   2185894.00
  188.99        2968.25           2402      454105.00   2128065.00
  189.02        2968.50           2406      432322.00   2018446.00
  189.05        2968.75           2409      414889.00   1931324.00
  189.08        2969.00           2413      386847.00   1792295.00
  189.11        2969.25           2417      359387.00   1657454.00
  189.14        2969.50           2420      337495.00   1550859.00
  189.17        2969.75           2424      308257.00   1409723.00
  189.20        2970.00           2427      288880.00   1316947.00
  189.23        2970.25           2431      262838.00   1193195.00
  189.26        2970.50           2434      241692.00   1093486.00
  189.30        2970.75           2438      212993.00    959254.50
  189.33        2971.00           2441      190512.00    854969.60
  189.36        2971.25           2445      161517.00    721566.30
  189.39        2971.50           2449      133841.00    595364.60
  189.42        2971.75           2452      112899.00    500591.90
  189.45        2972.00           2456       86377.00    381444.20
  189.48        2972.25           2459       64556.00    284139.00
  189.51        2972.50           2463       35529.00    155694.70
  189.54        2972.75           2466       18143.00     79297.21
  189.57        2973.00           2470        6205.00     27068.49
  189.60        2973.25           2473        3226.00     14064.27
  189.63        2973.50           2477        2381.00     10377.68
  189.66        2973.75           2481        2239.00      9758.25
  189.69        2974.00           2484        2186.00      9527.06
  189.72        2974.25           2488        2125.00      9260.98
  189.75        2974.50           2491        2097.00      9138.85
  189.78        2974.75           2495        2038.00      8881.50
  189.82        2975.00           2498        2045.00      8912.03
  189.85        2975.25           2502        1968.00      8576.17
  189.88        2975.50           2505        1957.00      8528.19
  189.91        2975.75           2509        1915.00      8345.00
  189.94        2976.00           2512        1902.00      8288.30
  189.97        2976.25           2516        1899.00      8275.21
  190.00        2976.50           2520        1828.00      7965.54
  190.03        2976.75           2523        1845.00      8039.69
  190.06        2977.00           2527        1822.00      7939.37
  190.09        2977.25           2530        1782.00      7764.91
  190.12        2977.50           2534        1790.00      7799.80
  190.15        2977.75           2537        1741.00      7586.09
  190.18        2978.00           2541        1730.00      7538.11
  190.21        2978.25           2544        1736.00      7564.28
  190.24        2978.50           2548        1697.00      7394.19
  190.27        2978.75           2552        1682.00      7328.77
  190.30        2979.00           2555        1687.00      7350.57
  190.34        2979.25           2559        1682.00      7328.77
  190.37        2979.50           2562        1676.00      7302.60
  190.40        2979.75           2566        1624.00      7075.81
  190.43        2980.00           2569        1674.00      7293.88
  190.46        2980.25           2573        1607.00      7001.67
  190.49        2980.50           2577        1613.00      7027.84
  190.52        2980.75           2580        1595.00      6949.33
  190.55        2981.00           2584        1554.00      6770.52
  190.58        2981.25           2587        1571.00      6844.66
  190.61        2981.50           2591        1537.00      6696.38
  190.64        2981.75           2594        1564.00      6814.13
  190.67        2982.00           2598        1564.00      6814.13
  190.70        2982.25           2601        1571.00      6844.66
  190.73        2982.50           2605        1551.00      6757.44
  190.76        2982.75           2609        1516.00      6604.80
  190.79        2983.00           2612        1568.00      6831.58
  190.82        2983.25           2616        1528.00      6657.13
  190.86        2983.50           2619        1518.00      6613.52
  190.89        2983.75           2623        1554.00      6770.52
  190.92        2984.00           2626        1532.00      6674.58
HS scan finished at 03:11:08
end
************************************************************
  HS Scan of (1) Internal mercury lamp
************************************************************
Integration time is 0.2294 seconds per sample
dh210319Reading 51.44 .94 3.35pr1000
************************************************************
Dead Time -------------------------  3.4E-08 
Number of Cycles Used -------------  4 
Starting Wavelength (Angstroms) ---  2950 
Final Wavelength (Angstoms) -------  2984 
Wavelength Increment (Angstroms) --  .25 
Filter Wheel #1 Position ---------- (1) Ground quartz diffuser (ND=2.32)
Filter Wheel #2 Position ---------- (1) Neutral Density 0.494



************************************************************
HS scan start time = 19:08:44
Dark Count =  2.1 


Time (GMT)  Wavelength (Ang)  Step Number  Raw Counts  Counts/Second

 1149.64        2950.00           2144        1094.00      4760.58
 1149.83        2950.25           2147        1082.00      4708.25
 1149.86        2950.50           2151        1131.00      4921.92
 1149.89        2950.75           2155        1095.00      4764.94
 1149.92        2951.00           2158        1108.00      4821.63
 1149.95        2951.25           2162        1124.00      4891.40
 1149.98        2951.50           2165        1107.00      4817.27
 1150.01        2951.75           2169        1103.00      4799.82
 1150.04        2952.00           2172        1127.00      4904.48
 1150.07        2952.25           2176        1131.00      4921.92
 1150.10        2952.50           2179        1127.00      4904.48
 1150.14        2952.75           2183        1163.00      5061.46
 1150.17        2953.00           2186        1121.00      4878.32
 1150.20        2953.25           2190        1150.00      5004.78
 1150.23        2953.50           2193        1130.00      4917.56
 1150.26        2953.75           2197        1164.00      5065.82
 1150.29        2954.00           2200        1145.00      4982.97
 1150.32        2954.25           2204        1164.00      5065.82
 1150.35        2954.50           2208        1189.00      5174.84
 1150.38        2954.75           2211        1176.00      5118.15
 1150.41        2955.00           2215        1186.00      5161.76
 1150.44        2955.25           2218        1186.00      5161.76
 1150.47        2955.50           2222        1187.00      5166.12
 1150.50        2955.75           2225        1188.00      5170.48
 1150.53        2956.00           2229        1210.00      5266.42
 1150.56        2956.25           2232        1219.00      5305.66
 1150.59        2956.50           2236        1202.00      5231.53
 1150.62        2956.75           2239        1224.00      5327.47
 1150.66        2957.00           2243        1261.00      5488.82
 1150.69        2957.25           2246        1248.00      5432.13
 1150.72        2957.50           2250        1242.00      5405.96
 1150.75        2957.75           2254        1297.00      5645.81
 1150.78        2958.00           2257        1301.00      5663.25
 1150.81        2958.25           2261        1316.00      5728.67
 1150.84        2958.50           2264        1300.00      5658.89
 1150.87        2958.75           2268        1301.00      5663.25
 1150.90        2959.00           2271        1354.00      5894.38
 1150.93        2959.25           2275        1338.00      5824.61
 1150.96        2959.50           2278        1346.00      5859.49
 1150.99        2959.75           2282        1400.00      6094.99
 1151.02        2960.00           2285        1390.00      6051.38
 1151.05        2960.25           2289        1471.00      6404.62
 1151.08        2960.50           2293        1503.00      6544.18
 1151.11        2960.75           2296        1499.00      6526.73
 1151.14        2961.00           2300        1587.00      6910.52
 1151.17        2961.25           2303        1785.00      7774.07
 1151.21        2961.50           2307        3925.00     17110.65
 1151.24        2961.75           2310       10322.00     45055.46
 1151.27        2962.00           2314       25943.00    113518.80
 1151.30        2962.25           2317       40698.00    178481.30
 1151.33        2962.50           2321       61548.00    270772.10
 1151.36        2962.75           2324       76072.00    335407.00
 1151.39        2963.00           2328       94708.00    418761.80
 1151.42        2963.25           2331      109531.00    485403.40
 1151.45        2963.50           2335      130931.00    582154.50
 1151.48        2963.75           2339      153256.00    683777.60
 1151.51        2964.00           2342      169684.00    759013.90
 1151.54        2964.25           2346      190335.00    854147.40
 1151.57        2964.50           2349      206785.00    930377.50
 1151.60        2964.75           2353      226527.00   1022396.00
 1151.63        2965.00           2356      240750.00   1089056.00
 1151.66        2965.25           2360      260159.00   1180521.00
 1151.70        2965.50           2363      276302.00   1257039.00
 1151.73        2965.75           2367      295668.00   1349375.00
 1151.76        2966.00           2370      310345.00   1419752.00
 1151.79        2966.25           2374      326459.00   1497419.00
 1151.82        2966.50           2378      339977.00   1562900.00
 1151.85        2966.75           2381      343852.00   1581726.00
 1151.88        2967.00           2385      346079.00   1592557.00
 1151.91        2967.25           2388      346330.00   1593778.00
 1151.94        2967.50           2392      346304.00   1593652.00
 1151.97        2967.75           2395      346056.00   1592445.00
 1152.00        2968.00           2399      342565.00   1575471.00
 1152.03        2968.25           2402      333704.00   1532477.00
 1152.06        2968.50           2406      318612.00   1459545.00
 1152.09        2968.75           2409      306674.00   1402117.00
 1152.12        2969.00           2413      287950.00   1312505.00
 1152.15        2969.25           2417      269361.00   1224088.00
 1152.18        2969.50           2420      255398.00   1158031.00
 1152.22        2969.75           2424      235138.00   1062717.00
 1152.25        2970.00           2427      219852.00    991218.10
 1152.28        2970.25           2431      200703.00    902146.40
 1152.31        2970.50           2434      185914.00    833728.50
 1152.34        2970.75           2438      162175.00    724576.10
 1152.37        2971.00           2441      146203.00    651595.60
 1152.40        2971.25           2445      124977.00    555171.40
 1152.43        2971.50           2449      104106.00    460978.20
 1152.46        2971.75           2452       89881.00    397126.00
 1152.49        2972.00           2456       69722.00    307113.00
 1152.52        2972.25           2459       54664.00    240236.30
 1152.55        2972.50           2463       35300.00    154681.90
 1152.58        2972.75           2466       21766.00     95180.68
 1152.61        2973.00           2470        7888.00     34416.45
 1152.64        2973.25           2473        3379.00     14727.95
 1152.67        2973.50           2477        1776.00      7734.82
 1152.70        2973.75           2481        1577.00      6866.90
 1152.73        2974.00           2484        1562.00      6801.49
 1152.77        2974.25           2488        1455.00      6334.84
 1152.80        2974.50           2491        1457.00      6343.57
 1152.83        2974.75           2495        1466.00      6382.82
 1152.86        2975.00           2498        1424.00      6199.65
 1152.89        2975.25           2502        1373.00      5977.24
 1152.92        2975.50           2505        1419.00      6177.85
 1152.95        2975.75           2509        1340.00      5833.33
 1152.98        2976.00           2512        1309.00      5698.14
 1153.01        2976.25           2516        1342.00      5842.05
 1153.04        2976.50           2520        1317.00      5733.03
 1153.07        2976.75           2523        1288.00      5606.56
 1153.10        2977.00           2527        1267.00      5514.98
 1153.13        2977.25           2530        1258.00      5475.74
 1153.16        2977.50           2534        1247.00      5427.77
 1153.19        2977.75           2537        1247.00      5427.77
 1153.22        2978.00           2541        1251.00      5445.21
 1153.25        2978.25           2544        1211.00      5270.78
 1153.29        2978.50           2548        1225.00      5331.83
 1153.32        2978.75           2552        1186.00      5161.76
 1153.35        2979.00           2555        1207.00      5253.34
 1153.38        2979.25           2559        1146.00      4987.33
 1153.41        2979.50           2562        1194.00      5196.65
 1153.44        2979.75           2566        1155.00      5026.58
 1153.47        2980.00           2569        1126.00      4900.12
 1153.50        2980.25           2573        1149.00      5000.41
 1153.53        2980.50           2577        1112.00      4839.07
 1153.56        2980.75           2580        1098.00      4778.02
 1153.59        2981.00           2584        1101.00      4791.10
 1153.62        2981.25           2587        1121.00      4878.32
 1153.65        2981.50           2591        1111.00      4834.71
 1153.68        2981.75           2594        1107.00      4817.27
 1153.71        2982.00           2598        1099.00      4782.38
 1153.74        2982.25           2601        1093.00      4756.22
 1153.77        2982.50           2605        1077.00      4686.45
 1153.81        2982.75           2609        1104.00      4804.18
 1153.84        2983.00           2612        1041.00      4529.47
 1153.87        2983.25           2616        1102.00      4795.46
 1153.90        2983.50           2619        1059.00      4607.96
 1153.93        2983.75           2623        1069.00      4651.56
 1153.96        2984.00           2626        1059.00      4607.96
HS scan finished at 19:14:11
end
