************************************************************
  HS Scan of (1) Internal mercury lamp
************************************************************
Integration time is 0.2294 seconds per sample
dh250319Reading 51.44 .94 2.76pr1000
************************************************************
Dead Time -------------------------  3.4E-08 
Number of Cycles Used -------------  4 
Starting Wavelength (Angstroms) ---  2950 
Final Wavelength (Angstoms) -------  2984 
Wavelength Increment (Angstroms) --  .25 
Filter Wheel #1 Position ---------- (1) Ground quartz diffuser (ND=2.32)
Filter Wheel #2 Position ---------- (1) Neutral Density 0.494



************************************************************
HS scan start time = 02:50:27
Dark Count =  .3 


Time (GMT)  Wavelength (Ang)  Step Number  Raw Counts  Counts/Second

  171.35        2950.00           2144        1704.00      7428.64
  171.54        2950.25           2147        1701.00      7415.56
  171.57        2950.50           2151        1682.00      7332.69
  171.60        2950.75           2155        1698.00      7402.47
  171.63        2951.00           2158        1736.00      7568.21
  171.66        2951.25           2162        1680.00      7323.97
  171.70        2951.50           2165        1710.00      7454.81
  171.73        2951.75           2169        1708.00      7446.09
  171.76        2952.00           2172        1726.00      7524.59
  171.79        2952.25           2176        1737.00      7572.57
  171.82        2952.50           2179        1725.00      7520.23
  171.85        2952.75           2183        1721.00      7502.79
  171.88        2953.00           2186        1794.00      7821.17
  171.91        2953.25           2190        1748.00      7620.55
  171.94        2953.50           2193        1757.00      7659.80
  171.97        2953.75           2197        1756.00      7655.44
  172.00        2954.00           2200        1778.00      7751.39
  172.03        2954.25           2204        1759.00      7668.52
  172.06        2954.50           2208        1776.00      7742.67
  172.09        2954.75           2211        1815.00      7912.76
  172.12        2955.00           2215        1841.00      8026.17
  172.15        2955.25           2218        1780.00      7760.11
  172.18        2955.50           2222        1867.00      8139.57
  172.22        2955.75           2225        1814.00      7908.40
  172.25        2956.00           2229        1848.00      8056.70
  172.28        2956.25           2232        1865.00      8130.84
  172.31        2956.50           2236        1860.00      8109.04
  172.34        2956.75           2239        1836.00      8004.36
  172.37        2957.00           2243        1861.00      8113.40
  172.40        2957.25           2246        1827.00      7965.10
  172.43        2957.50           2250        1892.00      8248.61
  172.46        2957.75           2254        1917.00      8357.65
  172.49        2958.00           2257        1907.00      8314.03
  172.52        2958.25           2261        1934.00      8431.80
  172.55        2958.50           2264        1933.00      8427.44
  172.58        2958.75           2268        1978.00      8623.71
  172.61        2959.00           2271        1992.00      8684.78
  172.64        2959.25           2275        2000.00      8719.67
  172.67        2959.50           2278        2008.00      8754.57
  172.70        2959.75           2282        2093.00      9125.32
  172.74        2960.00           2285        2109.00      9195.11
  172.77        2960.25           2289        2159.00      9413.21
  172.80        2960.50           2293        2204.00      9609.50
  172.83        2960.75           2296        2240.00      9766.54
  172.86        2961.00           2300        2308.00     10063.16
  172.89        2961.25           2303        2649.00     11550.74
  172.92        2961.50           2307        6021.00     26268.88
  172.95        2961.75           2310       14868.00     64954.54
  172.98        2962.00           2314       33875.00    148413.50
  173.01        2962.25           2317       50087.00    219977.00
  173.04        2962.50           2321       73690.00    324795.00
  173.07        2962.75           2324       91791.00    405691.40
  173.10        2963.00           2328      119306.00    529525.40
  173.13        2963.25           2331      137367.00    611386.50
  173.16        2963.50           2335      162232.00    724845.50
  173.19        2963.75           2339      188966.00    847829.80
  173.22        2964.00           2342      210006.00    945359.20
  173.26        2964.25           2346      235831.00   1065975.00
  173.29        2964.50           2349      255733.00   1159620.00
  173.32        2964.75           2353      279866.00   1273996.00
  173.35        2965.00           2356      298810.00   1364421.00
  173.38        2965.25           2360      323819.00   1484675.00
  173.41        2965.50           2363      341490.00   1570257.00
  173.44        2965.75           2367      363621.00   1678167.00
  173.47        2966.00           2370      379793.00   1757539.00
  173.50        2966.25           2374      401348.00   1864024.00
  173.53        2966.50           2378      418826.00   1950957.00
  173.56        2966.75           2381      425036.00   1981973.00
  173.59        2967.00           2385      427339.00   1993493.00
  173.62        2967.25           2388      427337.00   1993483.00
  173.65        2967.50           2392      426592.00   1989756.00
  173.68        2967.75           2395      426759.00   1990591.00
  173.71        2968.00           2399      420734.00   1960480.00
  173.74        2968.25           2402      408570.00   1899881.00
  173.78        2968.50           2406      389509.00   1805439.00
  173.81        2968.75           2409      374681.00   1732402.00
  173.84        2969.00           2413      352652.00   1624580.00
  173.87        2969.25           2417      327176.00   1500893.00
  173.90        2969.50           2420      310552.00   1420756.00
  173.93        2969.75           2424      285231.00   1299547.00
  173.96        2970.00           2427      265748.00   1206975.00
  173.99        2970.25           2431      240210.00   1086528.00
  174.02        2970.50           2434      221115.00    997120.60
  174.05        2970.75           2438      195565.00    878348.20
  174.08        2971.00           2441      179030.00    801999.40
  174.11        2971.25           2445      155087.00    692152.00
  174.14        2971.50           2449      130154.00    578638.50
  174.17        2971.75           2452      109525.00    485384.50
  174.20        2972.00           2456       84109.00    371304.50
  174.23        2972.25           2459       65697.00    289215.00
  174.26        2972.50           2463       42863.00    188045.40
  174.30        2972.75           2466       26995.00    118148.90
  174.33        2973.00           2470        9274.00     40481.58
  174.36        2973.25           2473        4110.00     17925.92
  174.39        2973.50           2477        2488.00     10848.38
  174.42        2973.75           2481        2298.00     10019.54
  174.45        2974.00           2484        2247.00      9797.07
  174.48        2974.25           2488        2181.00      9509.18
  174.51        2974.50           2491        2143.00      9343.42
  174.54        2974.75           2495        2065.00      9003.19
  174.57        2975.00           2498        2065.00      9003.19
  174.60        2975.25           2502        2067.00      9011.92
  174.63        2975.50           2505        2035.00      8872.34
  174.66        2975.75           2509        1966.00      8571.37
  174.69        2976.00           2512        1934.00      8431.80
  174.72        2976.25           2516        1993.00      8689.14
  174.75        2976.50           2520        1948.00      8492.86
  174.78        2976.75           2523        1876.00      8178.82
  174.82        2977.00           2527        1905.00      8305.31
  174.85        2977.25           2530        1826.00      7960.74
  174.88        2977.50           2534        1856.00      8091.59
  174.91        2977.75           2537        1830.00      7978.19
  174.94        2978.00           2541        1830.00      7978.19
  174.97        2978.25           2544        1825.00      7956.38
  175.00        2978.50           2548        1782.00      7768.83
  175.03        2978.75           2552        1766.00      7699.05
  175.06        2979.00           2555        1767.00      7703.41
  175.09        2979.25           2559        1709.00      7450.45
  175.12        2979.50           2562        1722.00      7507.15
  175.15        2979.75           2566        1700.00      7411.20
  175.18        2980.00           2569        1747.00      7616.18
  175.21        2980.25           2573        1689.00      7363.22
  175.24        2980.50           2577        1737.00      7572.57
  175.27        2980.75           2580        1675.00      7302.16
  175.30        2981.00           2584        1701.00      7415.56
  175.33        2981.25           2587        1679.00      7319.61
  175.37        2981.50           2591        1664.00      7254.19
  175.40        2981.75           2594        1640.00      7149.51
  175.43        2982.00           2598        1656.00      7219.30
  175.46        2982.25           2601        1686.00      7350.14
  175.49        2982.50           2605        1632.00      7114.62
  175.52        2982.75           2609        1606.00      7001.23
  175.55        2983.00           2612        1609.00      7014.31
  175.58        2983.25           2616        1599.00      6970.70
  175.61        2983.50           2619        1595.00      6953.26
  175.64        2983.75           2623        1614.00      7036.12
  175.68        2984.00           2626        1647.00      7180.04
HS scan finished at 02:55:54
end
************************************************************
  HS Scan of (1) Internal mercury lamp
************************************************************
Integration time is 0.2294 seconds per sample
dh250319Reading 51.44 .94 3.23pr1000
************************************************************
Dead Time -------------------------  3.4E-08 
Number of Cycles Used -------------  4 
Starting Wavelength (Angstroms) ---  2950 
Final Wavelength (Angstoms) -------  2984 
Wavelength Increment (Angstroms) --  .25 
Filter Wheel #1 Position ---------- (1) Ground quartz diffuser (ND=2.32)
Filter Wheel #2 Position ---------- (1) Neutral Density 0.494



************************************************************
HS scan start time = 19:07:26
Dark Count =  1.6 


Time (GMT)  Wavelength (Ang)  Step Number  Raw Counts  Counts/Second

 1148.34        2950.00           2144        1245.00      5421.23
 1148.53        2950.25           2147        1294.00      5634.91
 1148.56        2950.50           2151        1294.00      5634.91
 1148.59        2950.75           2155        1308.00      5695.96
 1148.63        2951.00           2158        1284.00      5591.30
 1148.66        2951.25           2162        1299.00      5656.71
 1148.69        2951.50           2165        1303.00      5674.16
 1148.72        2951.75           2169        1295.00      5639.27
 1148.75        2952.00           2172        1324.00      5765.73
 1148.78        2952.25           2176        1327.00      5778.82
 1148.81        2952.50           2179        1307.00      5691.60
 1148.84        2952.75           2183        1308.00      5695.96
 1148.87        2953.00           2186        1330.00      5791.90
 1148.90        2953.25           2190        1339.00      5831.15
 1148.93        2953.50           2193        1350.00      5879.12
 1148.96        2953.75           2197        1394.00      6071.00
 1148.99        2954.00           2200        1330.00      5791.90
 1149.02        2954.25           2204        1361.00      5927.09
 1149.05        2954.50           2208        1359.00      5918.37
 1149.08        2954.75           2211        1408.00      6132.05
 1149.11        2955.00           2215        1384.00      6027.39
 1149.14        2955.25           2218        1371.00      5970.70
 1149.18        2955.50           2222        1409.00      6136.42
 1149.21        2955.75           2225        1451.00      6319.58
 1149.24        2956.00           2229        1386.00      6036.11
 1149.27        2956.25           2232        1426.00      6210.55
 1149.30        2956.50           2236        1437.00      6258.52
 1149.33        2956.75           2239        1450.00      6315.22
 1149.36        2957.00           2243        1454.00      6332.66
 1149.39        2957.25           2246        1477.00      6432.97
 1149.42        2957.50           2250        1457.00      6345.75
 1149.45        2957.75           2254        1455.00      6337.02
 1149.48        2958.00           2257        1469.00      6398.08
 1149.51        2958.25           2261        1510.00      6576.89
 1149.54        2958.50           2264        1523.00      6633.58
 1149.57        2958.75           2268        1556.00      6777.50
 1149.60        2959.00           2271        1555.00      6773.14
 1149.63        2959.25           2275        1575.00      6860.36
 1149.67        2959.50           2278        1619.00      7052.26
 1149.70        2959.75           2282        1623.00      7069.70
 1149.73        2960.00           2285        1617.00      7043.54
 1149.76        2960.25           2289        1699.00      7401.16
 1149.79        2960.50           2293        1698.00      7396.80
 1149.82        2960.75           2296        1752.00      7632.32
 1149.85        2961.00           2300        1821.00      7933.26
 1149.88        2961.25           2303        2101.00      9154.55
 1149.91        2961.50           2307        4500.00     19622.50
 1149.94        2961.75           2310       11418.00     49850.78
 1149.97        2962.00           2314       26372.00    115405.70
 1150.00        2962.25           2317       41724.00    183011.40
 1150.03        2962.50           2321       64460.00    283710.50
 1150.06        2962.75           2324       81894.00    361398.70
 1150.09        2963.00           2328      104669.00    463513.40
 1150.12        2963.25           2331      120567.00    535220.00
 1150.15        2963.50           2335      142009.00    632494.80
 1150.19        2963.75           2339      165856.00    741450.00
 1150.22        2964.00           2342      183507.00    822625.80
 1150.25        2964.25           2346      206792.00    930412.30
 1150.28        2964.50           2349      224052.00   1010830.00
 1150.31        2964.75           2353      246449.00   1115855.00
 1150.34        2965.00           2356      264369.00   1200439.00
 1150.37        2965.25           2360      284259.00   1294908.00
 1150.40        2965.50           2363      299036.00   1365497.00
 1150.43        2965.75           2367      319870.00   1465613.00
 1150.46        2966.00           2370      336176.00   1544460.00
 1150.49        2966.25           2374      355133.00   1636677.00
 1150.52        2966.50           2378      369379.00   1706370.00
 1150.55        2966.75           2381      374729.00   1732631.00
 1150.58        2967.00           2385      377506.00   1746281.00
 1150.61        2967.25           2388      377937.00   1748401.00
 1150.64        2967.50           2392      377840.00   1747924.00
 1150.67        2967.75           2395      378036.00   1748888.00
 1150.70        2968.00           2399      375175.00   1734823.00
 1150.74        2968.25           2402      366662.00   1693052.00
 1150.77        2968.50           2406      349295.00   1608214.00
 1150.80        2968.75           2409      335473.00   1541052.00
 1150.83        2969.00           2413      316404.00   1448909.00
 1150.86        2969.25           2417      295209.00   1347182.00
 1150.89        2969.50           2420      278635.00   1268134.00
 1150.92        2969.75           2424      258266.00   1171577.00
 1150.95        2970.00           2427      241393.00   1092079.00
 1150.98        2970.25           2431      219403.00    989125.60
 1151.01        2970.50           2434      202107.00    908660.80
 1151.04        2970.75           2438      181365.00    812750.60
 1151.07        2971.00           2441      162755.00    727235.50
 1151.10        2971.25           2445      137928.00    613930.60
 1151.13        2971.50           2449      114455.00    507610.70
 1151.16        2971.75           2452       98052.00    433771.50
 1151.19        2972.00           2456       76607.00    337795.50
 1151.22        2972.25           2459       60374.00    265562.30
 1151.26        2972.50           2463       38526.00    168902.70
 1151.29        2972.75           2466       23028.00    100721.00
 1151.32        2973.00           2470        7742.00     33780.71
 1151.35        2973.25           2473        3319.00     14468.32
 1151.38        2973.50           2477        1989.00      8666.02
 1151.41        2973.75           2481        1820.00      7928.90
 1151.44        2974.00           2484        1812.00      7894.01
 1151.47        2974.25           2488        1690.00      7361.91
 1151.50        2974.50           2491        1681.00      7322.66
 1151.53        2974.75           2495        1631.00      7104.59
 1151.56        2975.00           2498        1664.00      7248.52
 1151.59        2975.25           2502        1628.00      7091.51
 1151.62        2975.50           2505        1543.00      6720.80
 1151.65        2975.75           2509        1583.00      6895.25
 1151.68        2976.00           2512        1580.00      6882.17
 1151.71        2976.25           2516        1531.00      6668.47
 1151.74        2976.50           2520        1510.00      6576.89
 1151.78        2976.75           2523        1513.00      6589.97
 1151.81        2977.00           2527        1479.00      6441.69
 1151.84        2977.25           2530        1465.00      6380.64
 1151.87        2977.50           2534        1452.00      6323.94
 1151.90        2977.75           2537        1451.00      6319.58
 1151.93        2978.00           2541        1406.00      6123.33
 1151.96        2978.25           2544        1422.00      6193.11
 1151.99        2978.50           2548        1393.00      6066.64
 1152.02        2978.75           2552        1389.00      6049.20
 1152.05        2979.00           2555        1377.00      5996.86
 1152.08        2979.25           2559        1375.00      5988.14
 1152.11        2979.50           2562        1349.00      5874.76
 1152.14        2979.75           2566        1355.00      5900.92
 1152.17        2980.00           2569        1309.00      5700.32
 1152.20        2980.25           2573        1315.00      5726.49
 1152.23        2980.50           2577        1304.00      5678.52
 1152.26        2980.75           2580        1325.00      5770.09
 1152.30        2981.00           2584        1329.00      5787.54
 1152.33        2981.25           2587        1306.00      5687.24
 1152.36        2981.50           2591        1290.00      5617.46
 1152.39        2981.75           2594        1317.00      5735.21
 1152.42        2982.00           2598        1243.00      5412.50
 1152.45        2982.25           2601        1307.00      5691.60
 1152.48        2982.50           2605        1241.00      5403.78
 1152.51        2982.75           2609        1220.00      5312.21
 1152.54        2983.00           2612        1264.00      5504.08
 1152.57        2983.25           2616        1239.00      5395.06
 1152.60        2983.50           2619        1209.00      5264.24
 1152.63        2983.75           2623        1237.00      5386.34
 1152.66        2984.00           2626        1228.00      5347.09
HS scan finished at 19:12:53
end
