************************************************************
  HS Scan of (1) Internal mercury lamp
************************************************************
Integration time is 0.2294 seconds per sample
dh280319Reading 51.44 .94 3pr1000
************************************************************
Dead Time -------------------------  3.4E-08 
Number of Cycles Used -------------  4 
Starting Wavelength (Angstroms) ---  2950 
Final Wavelength (Angstoms) -------  2984 
Wavelength Increment (Angstroms) --  .25 
Filter Wheel #1 Position ---------- (1) Ground quartz diffuser (ND=2.32)
Filter Wheel #2 Position ---------- (1) Neutral Density 0.494



************************************************************
HS scan start time = 02:42:13
Dark Count =  .9 


Time (GMT)  Wavelength (Ang)  Step Number  Raw Counts  Counts/Second

  163.11        2950.00           2144        1538.00      6702.05
  163.31        2950.25           2147        1553.00      6767.47
  163.34        2950.50           2151        1517.00      6610.47
  163.37        2950.75           2155        1549.00      6750.02
  163.40        2951.00           2158        1545.00      6732.58
  163.43        2951.25           2162        1572.00      6850.33
  163.46        2951.50           2165        1549.00      6750.02
  163.49        2951.75           2169        1539.00      6706.41
  163.52        2952.00           2172        1583.00      6898.31
  163.55        2952.25           2176        1600.00      6972.45
  163.58        2952.50           2179        1593.00      6941.92
  163.61        2952.75           2183        1628.00      7094.56
  163.64        2953.00           2186        1578.00      6876.50
  163.67        2953.25           2190        1604.00      6989.89
  163.70        2953.50           2193        1605.00      6994.25
  163.73        2953.75           2197        1608.00      7007.34
  163.76        2954.00           2200        1595.00      6950.64
  163.80        2954.25           2204        1662.00      7242.85
  163.83        2954.50           2208        1654.00      7207.96
  163.86        2954.75           2211        1679.00      7316.99
  163.89        2955.00           2215        1673.00      7290.82
  163.92        2955.25           2218        1673.00      7290.82
  163.95        2955.50           2222        1695.00      7386.77
  163.98        2955.75           2225        1685.00      7343.16
  164.01        2956.00           2229        1702.00      7417.30
  164.04        2956.25           2232        1734.00      7556.87
  164.07        2956.50           2236        1768.00      7705.16
  164.10        2956.75           2239        1732.00      7548.14
  164.13        2957.00           2243        1816.00      7914.51
  164.16        2957.25           2246        1792.00      7809.83
  164.19        2957.50           2250        1828.00      7966.85
  164.22        2957.75           2254        1829.00      7971.21
  164.25        2958.00           2257        1816.00      7914.51
  164.29        2958.25           2261        1878.00      8184.93
  164.32        2958.50           2264        1880.00      8193.65
  164.35        2958.75           2268        1939.00      8450.99
  164.38        2959.00           2271        1953.00      8512.05
  164.41        2959.25           2275        2015.00      8782.48
  164.44        2959.50           2278        1994.00      8690.89
  164.47        2959.75           2282        2066.00      9004.94
  164.50        2960.00           2285        2049.00      8930.79
  164.53        2960.25           2289        2149.00      9366.98
  164.56        2960.50           2293        2194.00      9563.27
  164.59        2960.75           2296        2272.00      9903.51
  164.62        2961.00           2300        2880.00     12555.93
  164.65        2961.25           2303        5488.00     23938.83
  164.68        2961.50           2307       17837.00     77957.46
  164.71        2961.75           2310       33553.00    146993.10
  164.74        2962.00           2314       57442.00    252556.50
  164.77        2962.25           2317       77981.00    343929.10
  164.80        2962.50           2321      107849.00    477831.50
  164.84        2962.75           2324      132120.00    587554.30
  164.87        2963.00           2328      162990.00    728315.40
  164.90        2963.25           2331      187718.00    842062.50
  164.93        2963.50           2335      216993.00    977890.10
  164.96        2963.75           2339      244593.00   1107126.00
  164.99        2964.00           2342      266617.00   1211089.00
  165.02        2964.25           2346      298482.00   1362848.00
  165.05        2964.50           2349      320718.00   1469706.00
  165.08        2964.75           2353      348928.00   1606430.00
  165.11        2965.00           2356      369305.00   1706010.00
  165.14        2965.25           2360      394489.00   1830050.00
  165.17        2965.50           2363      413448.00   1924148.00
  165.20        2965.75           2367      442285.00   2068479.00
  165.23        2966.00           2370      462966.00   2172901.00
  165.26        2966.25           2374      483130.00   2275461.00
  165.29        2966.50           2378      495916.00   2340881.00
  165.32        2966.75           2381      497987.00   2351507.00
  165.36        2967.00           2385      499251.00   2357995.00
  165.39        2967.25           2388      499870.00   2361174.00
  165.42        2967.50           2392      499091.00   2357174.00
  165.45        2967.75           2395      497470.00   2348854.00
  165.48        2968.00           2399      484657.00   2283258.00
  165.51        2968.25           2402      468753.00   2202259.00
  165.54        2968.50           2406      443630.00   2075247.00
  165.57        2968.75           2409      423560.00   1974593.00
  165.60        2969.00           2413      401245.00   1863511.00
  165.63        2969.25           2417      374114.00   1729613.00
  165.66        2969.50           2420      352103.00   1621901.00
  165.69        2969.75           2424      319887.00   1465698.00
  165.72        2970.00           2427      297428.00   1357802.00
  165.75        2970.25           2431      268681.00   1220870.00
  165.78        2970.50           2434      246218.00   1114771.00
  165.81        2970.75           2438      216130.00    973867.70
  165.84        2971.00           2441      193301.00    867867.90
  165.88        2971.25           2445      159807.00    713738.30
  165.91        2971.50           2449      125748.00    558668.10
  165.94        2971.75           2452      102829.00    455240.10
  165.97        2972.00           2456       73096.00    322145.20
  166.00        2972.25           2459       51022.00    224112.30
  166.03        2972.50           2463       25499.00    111573.70
  166.06        2972.75           2466       11890.00     51918.51
  166.09        2973.00           2470        4309.00     18791.86
  166.12        2973.25           2473        2818.00     12285.43
  166.15        2973.50           2477        2398.00     10453.15
  166.18        2973.75           2481        2257.00      9838.08
  166.21        2974.00           2484        2232.00      9729.03
  166.24        2974.25           2488        2130.00      9284.10
  166.27        2974.50           2491        2121.00      9244.84
  166.30        2974.75           2495        2062.00      8987.49
  166.33        2975.00           2498        2079.00      9061.64
  166.36        2975.25           2502        2055.00      8956.96
  166.40        2975.50           2505        2040.00      8891.53
  166.43        2975.75           2509        1947.00      8485.88
  166.46        2976.00           2512        1943.00      8468.44
  166.49        2976.25           2516        1910.00      8324.50
  166.52        2976.50           2520        1860.00      8106.42
  166.55        2976.75           2523        1814.00      7905.79
  166.58        2977.00           2527        1853.00      8075.89
  166.61        2977.25           2530        1827.00      7962.49
  166.64        2977.50           2534        1823.00      7945.04
  166.67        2977.75           2537        1849.00      8058.44
  166.70        2978.00           2541        1783.00      7770.58
  166.73        2978.25           2544        1808.00      7879.62
  166.76        2978.50           2548        1728.00      7530.70
  166.79        2978.75           2552        1744.00      7600.48
  166.82        2979.00           2555        1770.00      7713.88
  166.85        2979.25           2559        1707.00      7439.11
  166.88        2979.50           2562        1704.00      7426.02
  166.92        2979.75           2566        1678.00      7312.63
  166.95        2980.00           2569        1719.00      7491.45
  166.98        2980.25           2573        1643.00      7159.98
  167.01        2980.50           2577        1618.00      7050.95
  167.04        2980.75           2580        1623.00      7072.76
  167.07        2981.00           2584        1638.00      7138.18
  167.10        2981.25           2587        1662.00      7242.85
  167.13        2981.50           2591        1657.00      7221.04
  167.16        2981.75           2594        1641.00      7151.26
  167.19        2982.00           2598        1630.00      7103.28
  167.22        2982.25           2601        1602.00      6981.17
  167.25        2982.50           2605        1606.00      6998.61
  167.28        2982.75           2609        1580.00      6885.22
  167.31        2983.00           2612        1546.00      6736.94
  167.34        2983.25           2616        1596.00      6955.00
  167.37        2983.50           2619        1607.00      7002.98
  167.41        2983.75           2623        1563.00      6811.08
  167.44        2984.00           2626        1562.00      6806.72
HS scan finished at 02:47:40
end
************************************************************
  HS Scan of (1) Internal mercury lamp
************************************************************
Integration time is 0.2294 seconds per sample
dh280319Reading 51.44 .94 3.37pr1000
************************************************************
Dead Time -------------------------  3.4E-08 
Number of Cycles Used -------------  4 
Starting Wavelength (Angstroms) ---  2950 
Final Wavelength (Angstoms) -------  2984 
Wavelength Increment (Angstroms) --  .25 
Filter Wheel #1 Position ---------- (1) Ground quartz diffuser (ND=2.32)
Filter Wheel #2 Position ---------- (1) Neutral Density 0.494



************************************************************
HS scan start time = 19:40:04
Dark Count =  1.9 


Time (GMT)  Wavelength (Ang)  Step Number  Raw Counts  Counts/Second

 1180.97        2950.00           2144        1211.00      5271.65
 1181.17        2950.25           2147        1214.00      5284.73
 1181.20        2950.50           2151        1237.00      5385.03
 1181.23        2950.75           2155        1191.00      5184.44
 1181.26        2951.00           2158        1259.00      5480.97
 1181.29        2951.25           2162        1198.00      5214.96
 1181.32        2951.50           2165        1212.00      5276.01
 1181.35        2951.75           2169        1239.00      5393.75
 1181.38        2952.00           2172        1228.00      5345.78
 1181.41        2952.25           2176        1264.00      5502.77
 1181.44        2952.50           2179        1261.00      5489.69
 1181.47        2952.75           2183        1248.00      5433.00
 1181.50        2953.00           2186        1239.00      5393.75
 1181.53        2953.25           2190        1296.00      5642.32
 1181.56        2953.50           2193        1228.00      5345.78
 1181.59        2953.75           2197        1274.00      5546.38
 1181.62        2954.00           2200        1272.00      5537.66
 1181.66        2954.25           2204        1326.00      5773.15
 1181.69        2954.50           2208        1294.00      5633.60
 1181.72        2954.75           2211        1300.00      5659.76
 1181.75        2955.00           2215        1334.00      5808.03
 1181.78        2955.25           2218        1275.00      5550.74
 1181.81        2955.50           2222        1325.00      5768.79
 1181.84        2955.75           2225        1321.00      5751.34
 1181.87        2956.00           2229        1366.00      5947.58
 1181.90        2956.25           2232        1359.00      5917.06
 1181.93        2956.50           2236        1337.00      5821.12
 1181.96        2956.75           2239        1356.00      5903.98
 1181.99        2957.00           2243        1393.00      6065.33
 1182.02        2957.25           2246        1376.00      5991.19
 1182.05        2957.50           2250        1409.00      6135.11
 1182.08        2957.75           2254        1367.00      5951.95
 1182.11        2958.00           2257        1493.00      6501.44
 1182.14        2958.25           2261        1437.00      6257.22
 1182.18        2958.50           2264        1463.00      6370.60
 1182.21        2958.75           2268        1454.00      6331.35
 1182.24        2959.00           2271        1473.00      6414.22
 1182.27        2959.25           2275        1462.00      6366.24
 1182.30        2959.50           2278        1511.00      6579.94
 1182.33        2959.75           2282        1543.00      6719.50
 1182.36        2960.00           2285        1581.00      6885.22
 1182.39        2960.25           2289        1615.00      7033.50
 1182.42        2960.50           2293        1663.00      7242.85
 1182.45        2960.75           2296        1622.00      7064.03
 1182.48        2961.00           2300        1720.00      7491.45
 1182.51        2961.25           2303        2072.00      9026.75
 1182.54        2961.50           2307        5587.00     24366.74
 1182.57        2961.75           2310       13738.00     60000.65
 1182.60        2962.00           2314       29743.00    130222.60
 1182.63        2962.25           2317       44420.00    194914.80
 1182.66        2962.50           2321       65934.00    290261.60
 1182.70        2962.75           2324       81183.00    358221.00
 1182.73        2963.00           2328      100500.00    444766.30
 1182.76        2963.25           2331      115623.00    512881.40
 1182.79        2963.50           2335      137915.00    613870.10
 1182.82        2963.75           2339      162476.00    725955.80
 1182.85        2964.00           2342      179107.00    802346.50
 1182.88        2964.25           2346      200681.00    902045.40
 1182.91        2964.50           2349      216034.00    973415.70
 1182.94        2964.75           2353      237200.00   1072390.00
 1182.97        2965.00           2356      252681.00   1145213.00
 1183.00        2965.25           2360      274884.00   1250302.00
 1183.03        2965.50           2363      289309.00   1318991.00
 1183.06        2965.75           2367      308344.00   1410138.00
 1183.09        2966.00           2370      323544.00   1483339.00
 1183.12        2966.25           2374      343932.00   1582116.00
 1183.16        2966.50           2378      360748.00   1664104.00
 1183.19        2966.75           2381      367079.00   1695093.00
 1183.22        2967.00           2385      370232.00   1710552.00
 1183.25        2967.25           2388      371229.00   1715444.00
 1183.28        2967.50           2392      372264.00   1720524.00
 1183.31        2967.75           2395      371029.00   1714463.00
 1183.34        2968.00           2399      368573.00   1702416.00
 1183.38        2968.25           2402      363104.00   1675628.00
 1183.41        2968.50           2406      348649.00   1605067.00
 1183.44        2968.75           2409      333130.00   1529697.00
 1183.47        2969.00           2413      310556.00   1420767.00
 1183.50        2969.25           2417      286699.00   1306539.00
 1183.53        2969.50           2420      271719.00   1235275.00
 1183.56        2969.75           2424      250250.00   1133753.00
 1183.59        2970.00           2427      233583.00   1055428.00
 1183.62        2970.25           2431      210646.00    948328.80
 1183.65        2970.50           2434      192353.00    863478.20
 1183.68        2970.75           2438      170200.00    761384.30
 1183.71        2971.00           2441      153497.00    684879.30
 1183.74        2971.25           2445      131695.00    585621.30
 1183.77        2971.50           2449      109778.00    486517.30
 1183.80        2971.75           2452       93511.00    413394.50
 1183.83        2972.00           2456       72417.00    319115.50
 1183.86        2972.25           2459       56298.00    247479.50
 1183.90        2972.50           2463       33658.00    147451.00
 1183.93        2972.75           2466       19050.00     83269.85
 1183.96        2973.00           2470        6399.00     27912.71
 1183.99        2973.25           2473        3080.00     13424.17
 1184.02        2973.50           2477        1924.00      8381.20
 1184.05        2973.75           2481        1736.00      7561.23
 1184.08        2974.00           2484        1734.00      7552.51
 1184.11        2974.25           2488        1636.00      7125.09
 1184.14        2974.50           2491        1674.00      7290.82
 1184.17        2974.75           2495        1586.00      6907.03
 1184.20        2975.00           2498        1582.00      6889.58
 1184.23        2975.25           2502        1543.00      6719.50
 1184.26        2975.50           2505        1478.00      6436.02
 1184.29        2975.75           2509        1439.00      6265.94
 1184.32        2976.00           2512        1468.00      6392.41
 1184.35        2976.25           2516        1451.00      6318.27
 1184.38        2976.50           2520        1441.00      6274.66
 1184.42        2976.75           2523        1476.00      6427.30
 1184.45        2977.00           2527        1384.00      6026.08
 1184.48        2977.25           2530        1417.00      6170.00
 1184.51        2977.50           2534        1357.00      5908.34
 1184.54        2977.75           2537        1344.00      5851.64
 1184.57        2978.00           2541        1346.00      5860.37
 1184.60        2978.25           2544        1365.00      5943.22
 1184.63        2978.50           2548        1325.00      5768.79
 1184.66        2978.75           2552        1297.00      5646.68
 1184.69        2979.00           2555        1288.00      5607.43
 1184.72        2979.25           2559        1290.00      5616.16
 1184.75        2979.50           2562        1279.00      5568.19
 1184.78        2979.75           2566        1286.00      5598.71
 1184.81        2980.00           2569        1283.00      5585.63
 1184.84        2980.25           2573        1233.00      5367.59
 1184.87        2980.50           2577        1263.00      5498.41
 1184.90        2980.75           2580        1232.00      5363.23
 1184.93        2981.00           2584        1247.00      5428.64
 1184.97        2981.25           2587        1201.00      5228.04
 1185.00        2981.50           2591        1219.00      5306.54
 1185.03        2981.75           2594        1241.00      5402.47
 1185.06        2982.00           2598        1223.00      5323.98
 1185.09        2982.25           2601        1233.00      5367.59
 1185.12        2982.50           2605        1195.00      5201.88
 1185.15        2982.75           2609        1178.00      5127.75
 1185.18        2983.00           2612        1191.00      5184.44
 1185.21        2983.25           2616        1210.00      5267.29
 1185.24        2983.50           2619        1211.00      5271.65
 1185.27        2983.75           2623        1182.00      5145.19
 1185.30        2984.00           2626        1184.00      5153.91
HS scan finished at 19:45:32
end
