************************************************************
  HS Scan of (1) Internal mercury lamp
************************************************************
Integration time is 0.2294 seconds per sample
dh280318Reading 51.44 .94 3.05pr1000
************************************************************
Dead Time -------------------------  3.4E-08 
Number of Cycles Used -------------  4 
Starting Wavelength (Angstroms) ---  2950 
Final Wavelength (Angstoms) -------  2984 
Wavelength Increment (Angstroms) --  .25 
Filter Wheel #1 Position ---------- (1) Ground quartz diffuser (ND=2.32)
Filter Wheel #2 Position ---------- (1) Neutral Density 0.494



************************************************************
HS scan start time = 02:40:45
Dark Count =  .8 


Time (GMT)  Wavelength (Ang)  Step Number  Raw Counts  Counts/Second

  161.65        2950.00           2144         160.00       694.00
  161.85        2950.25           2147         152.00       659.13
  161.88        2950.50           2151         134.00       580.66
  161.91        2950.75           2155         132.00       571.94
  161.94        2951.00           2158         159.00       689.64
  161.97        2951.25           2162         141.00       611.17
  162.00        2951.50           2165         145.00       628.61
  162.03        2951.75           2169         135.00       585.02
  162.06        2952.00           2172         148.00       641.69
  162.09        2952.25           2176         170.00       737.59
  162.12        2952.50           2179         149.00       646.05
  162.15        2952.75           2183         155.00       672.20
  162.18        2953.00           2186         143.00       619.89
  162.21        2953.25           2190         132.00       571.94
  162.24        2953.50           2193         174.00       755.03
  162.27        2953.75           2197         143.00       619.89
  162.31        2954.00           2200         136.00       589.38
  162.34        2954.25           2204         162.00       702.72
  162.37        2954.50           2208         162.00       702.72
  162.40        2954.75           2211         155.00       672.20
  162.43        2955.00           2215         141.00       611.17
  162.46        2955.25           2218         134.00       580.66
  162.49        2955.50           2222         153.00       663.48
  162.52        2955.75           2225         154.00       667.84
  162.55        2956.00           2229         147.00       637.33
  162.58        2956.25           2232         156.00       676.56
  162.61        2956.50           2236         156.00       676.56
  162.64        2956.75           2239         159.00       689.64
  162.67        2957.00           2243         158.00       685.28
  162.70        2957.25           2246         161.00       698.36
  162.73        2957.50           2250         164.00       711.44
  162.76        2957.75           2254         146.00       632.97
  162.79        2958.00           2257         166.00       720.16
  162.83        2958.25           2261         159.00       689.64
  162.86        2958.50           2264         167.00       724.52
  162.89        2958.75           2268         177.00       768.11
  162.92        2959.00           2271         188.00       816.06
  162.95        2959.25           2275         175.00       759.39
  162.98        2959.50           2278         180.00       781.19
  163.01        2959.75           2282         184.00       798.63
  163.04        2960.00           2285         186.00       807.35
  163.07        2960.25           2289         195.00       846.58
  163.10        2960.50           2293         196.00       850.94
  163.13        2960.75           2296         226.00       981.72
  163.16        2961.00           2300         335.00      1456.92
  163.19        2961.25           2303         866.00      3772.06
  163.22        2961.50           2307        2801.00     12211.70
  163.25        2961.75           2310        4961.00     21638.41
  163.28        2962.00           2314        8239.00     35955.87
  163.31        2962.25           2317       10802.00     47160.13
  163.35        2962.50           2321       14038.00     61318.64
  163.38        2962.75           2324       16562.00     72371.41
  163.41        2963.00           2328       20354.00     88992.49
  163.44        2963.25           2331       22906.00    100189.00
  163.47        2963.50           2335       26439.00    115703.60
  163.50        2963.75           2339       29584.00    129528.20
  163.53        2964.00           2342       32363.00    141754.80
  163.56        2964.25           2346       36145.00    158410.60
  163.59        2964.50           2349       39079.00    171344.90
  163.62        2964.75           2353       42718.00    187403.00
  163.65        2965.00           2356       45198.00    198356.80
  163.68        2965.25           2360       48245.00    211826.20
  163.71        2965.50           2363       50694.00    222661.00
  163.74        2965.75           2367       54425.00    239183.10
  163.77        2966.00           2370       56831.00    249847.50
  163.80        2966.25           2374       59385.00    261176.50
  163.83        2966.50           2378       60579.00    266475.80
  163.87        2966.75           2381       61031.00    268482.40
  163.90        2967.00           2385       61075.00    268677.70
  163.93        2967.25           2388       60985.00    268278.10
  163.96        2967.50           2392       60913.00    267958.50
  163.99        2967.75           2395       60680.00    266924.20
  164.02        2968.00           2399       58736.00    258296.80
  164.05        2968.25           2402       56172.00    246925.80
  164.08        2968.50           2406       52752.00    231772.20
  164.11        2968.75           2409       50332.00    221058.90
  164.14        2969.00           2413       47149.00    206979.80
  164.17        2969.25           2417       43983.00    192989.30
  164.20        2969.50           2420       41722.00    183006.10
  164.23        2969.75           2424       37372.00    163818.40
  164.26        2970.00           2427       34689.00    151996.20
  164.29        2970.25           2431       30493.00    133526.40
  164.32        2970.50           2434       27851.00    121908.80
  164.35        2970.75           2438       24244.00    106062.70
  164.39        2971.00           2441       21330.00     93273.53
  164.42        2971.25           2445       17806.00     77822.03
  164.45        2971.50           2449       14008.00     61187.33
  164.48        2971.75           2452       11471.00     50086.10
  164.51        2972.00           2456        8170.00     35654.36
  164.54        2972.25           2459        5612.00     24480.70
  164.57        2972.50           2463        2756.00     12015.37
  164.60        2972.75           2466        1289.00      5616.59
  164.63        2973.00           2470         437.00      1901.61
  164.66        2973.25           2473         267.00      1160.46
  164.69        2973.50           2477         213.00       925.05
  164.72        2973.75           2481         216.00       938.13
  164.75        2974.00           2484         215.00       933.77
  164.78        2974.25           2488         204.00       885.82
  164.81        2974.50           2491         204.00       885.82
  164.84        2974.75           2495         195.00       846.58
  164.87        2975.00           2498         186.00       807.35
  164.91        2975.25           2502         187.00       811.71
  164.94        2975.50           2505         186.00       807.35
  164.97        2975.75           2509         178.00       772.47
  165.00        2976.00           2512         178.00       772.47
  165.03        2976.25           2516         166.00       720.16
  165.06        2976.50           2520         165.00       715.80
  165.09        2976.75           2523         164.00       711.44
  165.12        2977.00           2527         168.00       728.88
  165.15        2977.25           2530         167.00       724.52
  165.18        2977.50           2534         166.00       720.16
  165.21        2977.75           2537         160.00       694.00
  165.24        2978.00           2541         154.00       667.84
  165.27        2978.25           2544         157.00       680.92
  165.30        2978.50           2548         160.00       694.00
  165.33        2978.75           2552         167.00       724.52
  165.36        2979.00           2555         171.00       741.95
  165.39        2979.25           2559         142.00       615.53
  165.42        2979.50           2562         151.00       654.77
  165.46        2979.75           2566         145.00       628.61
  165.49        2980.00           2569         137.00       593.73
  165.52        2980.25           2573         134.00       580.66
  165.55        2980.50           2577         144.00       624.25
  165.58        2980.75           2580         144.00       624.25
  165.61        2981.00           2584         143.00       619.89
  165.64        2981.25           2587         131.00       567.58
  165.67        2981.50           2591         140.00       606.81
  165.70        2981.75           2594         132.00       571.94
  165.73        2982.00           2598         155.00       672.20
  165.76        2982.25           2601         140.00       606.81
  165.79        2982.50           2605         150.00       650.41
  165.82        2982.75           2609         128.00       554.50
  165.85        2983.00           2612         153.00       663.48
  165.88        2983.25           2616         127.00       550.14
  165.91        2983.50           2619         129.00       558.86
  165.94        2983.75           2623         146.00       632.97
  165.98        2984.00           2626         135.00       585.02
HS scan finished at 02:46:12
end
************************************************************
  HS Scan of (1) Internal mercury lamp
************************************************************
Integration time is 0.2294 seconds per sample
dh280318Reading 51.44 .94 2.74pr1000
************************************************************
Dead Time -------------------------  3.4E-08 
Number of Cycles Used -------------  4 
Starting Wavelength (Angstroms) ---  2950 
Final Wavelength (Angstoms) -------  2984 
Wavelength Increment (Angstroms) --  .25 
Filter Wheel #1 Position ---------- (1) Ground quartz diffuser (ND=2.32)
Filter Wheel #2 Position ---------- (1) Neutral Density 0.494



************************************************************
HS scan start time = 19:37:27
Dark Count =  .5 


Time (GMT)  Wavelength (Ang)  Step Number  Raw Counts  Counts/Second

 1178.36        2950.00           2144         146.00       634.28
 1178.55        2950.25           2147         137.00       595.04
 1178.58        2950.50           2151         149.00       647.36
 1178.61        2950.75           2155         150.00       651.71
 1178.64        2951.00           2158         159.00       690.95
 1178.67        2951.25           2162         149.00       647.36
 1178.70        2951.50           2165         147.00       638.64
 1178.73        2951.75           2169         147.00       638.64
 1178.76        2952.00           2172         148.00       643.00
 1178.79        2952.25           2176         148.00       643.00
 1178.82        2952.50           2179         141.00       612.48
 1178.86        2952.75           2183         148.00       643.00
 1178.89        2953.00           2186         157.00       682.23
 1178.92        2953.25           2190         164.00       712.75
 1178.95        2953.50           2193         154.00       669.15
 1178.98        2953.75           2197         140.00       608.12
 1179.01        2954.00           2200         170.00       738.90
 1179.04        2954.25           2204         159.00       690.95
 1179.07        2954.50           2208         163.00       708.39
 1179.10        2954.75           2211         161.00       699.67
 1179.13        2955.00           2215         165.00       717.11
 1179.16        2955.25           2218         154.00       669.15
 1179.19        2955.50           2222         165.00       717.11
 1179.22        2955.75           2225         165.00       717.11
 1179.25        2956.00           2229         168.00       730.18
 1179.28        2956.25           2232         156.00       677.87
 1179.31        2956.50           2236         172.00       747.62
 1179.34        2956.75           2239         166.00       721.46
 1179.38        2957.00           2243         170.00       738.90
 1179.41        2957.25           2246         170.00       738.90
 1179.44        2957.50           2250         175.00       760.70
 1179.47        2957.75           2254         174.00       756.34
 1179.50        2958.00           2257         189.00       821.73
 1179.53        2958.25           2261         176.00       765.06
 1179.56        2958.50           2264         184.00       799.93
 1179.59        2958.75           2268         192.00       834.81
 1179.62        2959.00           2271         198.00       860.97
 1179.65        2959.25           2275         191.00       830.45
 1179.68        2959.50           2278         192.00       834.81
 1179.71        2959.75           2282         199.00       865.33
 1179.74        2960.00           2285         207.00       900.20
 1179.77        2960.25           2289         211.00       917.64
 1179.80        2960.50           2293         226.00       983.03
 1179.83        2960.75           2296         228.00       991.75
 1179.86        2961.00           2300         307.00      1336.15
 1179.90        2961.25           2303         715.00      3114.98
 1179.93        2961.50           2307        2480.00     10812.61
 1179.96        2961.75           2310        4466.00     19478.89
 1179.99        2962.00           2314        7559.00     32985.97
 1180.02        2962.25           2317       10049.00     43868.79
 1180.05        2962.50           2321       13450.00     58746.26
 1180.08        2962.75           2324       16276.00     71119.90
 1180.11        2963.00           2328       20227.00     88436.84
 1180.14        2963.25           2331       23000.00    100602.90
 1180.17        2963.50           2335       26481.00    115889.50
 1180.20        2963.75           2339       30102.00    131807.80
 1180.23        2964.00           2342       32741.00    143420.00
 1180.26        2964.25           2346       36685.00    160791.60
 1180.29        2964.50           2349       38999.00    170993.40
 1180.32        2964.75           2353       42752.00    187554.50
 1180.35        2965.00           2356       45366.00    199100.50
 1180.38        2965.25           2360       48806.00    214308.70
 1180.42        2965.50           2363       51307.00    225375.60
 1180.45        2965.75           2367       54569.00    239822.50
 1180.48        2966.00           2370       56921.00    250247.90
 1180.51        2966.25           2374       59405.00    261266.50
 1180.54        2966.50           2378       61630.00    271143.40
 1180.57        2966.75           2381       61828.00    272022.60
 1180.60        2967.00           2385       61906.00    272369.00
 1180.63        2967.25           2388       61866.00    272191.40
 1180.66        2967.50           2392       61560.00    270832.50
 1180.69        2967.75           2395       61383.00    270046.60
 1180.72        2968.00           2399       59818.00    263099.40
 1180.75        2968.25           2402       57289.00    251879.80
 1180.78        2968.50           2406       54079.00    237651.40
 1180.81        2968.75           2409       51670.00    226982.60
 1180.84        2969.00           2413       48316.00    212141.50
 1180.87        2969.25           2417       44414.00    194894.40
 1180.90        2969.50           2420       41896.00    183775.50
 1180.94        2969.75           2424       38384.00    168281.40
 1180.97        2970.00           2427       35709.00    156490.90
 1181.00        2970.25           2431       31981.00    140074.90
 1181.03        2970.50           2434       29176.00    127735.30
 1181.06        2970.75           2438       25452.00    111369.00
 1181.09        2971.00           2441       22630.00     98979.01
 1181.12        2971.25           2445       18778.00     82083.61
 1181.15        2971.50           2449       14867.00     64949.29
 1181.18        2971.75           2452       12031.00     52537.10
 1181.21        2972.00           2456        8534.00     37246.35
 1181.24        2972.25           2459        5980.00     26088.96
 1181.27        2972.50           2463        3082.00     13439.01
 1181.30        2972.75           2466        1442.00      6285.13
 1181.33        2973.00           2470         461.00      2007.55
 1181.36        2973.25           2473         290.00      1262.04
 1181.39        2973.50           2477         236.00      1026.63
 1181.42        2973.75           2481         218.00       948.16
 1181.46        2974.00           2484         241.00      1048.42
 1181.49        2974.25           2488         208.00       904.56
 1181.52        2974.50           2491         214.00       930.72
 1181.55        2974.75           2495         196.00       852.25
 1181.58        2975.00           2498         198.00       860.97
 1181.61        2975.25           2502         203.00       882.76
 1181.64        2975.50           2505         204.00       887.12
 1181.67        2975.75           2509         189.00       821.73
 1181.70        2976.00           2512         183.00       795.58
 1181.73        2976.25           2516         186.00       808.65
 1181.76        2976.50           2520         162.00       704.03
 1181.79        2976.75           2523         176.00       765.06
 1181.82        2977.00           2527         175.00       760.70
 1181.85        2977.25           2530         169.00       734.54
 1181.88        2977.50           2534         169.00       734.54
 1181.91        2977.75           2537         182.00       791.22
 1181.94        2978.00           2541         167.00       725.82
 1181.98        2978.25           2544         168.00       730.18
 1182.01        2978.50           2548         173.00       751.98
 1182.04        2978.75           2552         165.00       717.11
 1182.07        2979.00           2555         158.00       686.59
 1182.10        2979.25           2559         156.00       677.87
 1182.13        2979.50           2562         164.00       712.75
 1182.16        2979.75           2566         151.00       656.07
 1182.19        2980.00           2569         165.00       717.11
 1182.22        2980.25           2573         144.00       625.56
 1182.25        2980.50           2577         161.00       699.67
 1182.28        2980.75           2580         158.00       686.59
 1182.31        2981.00           2584         138.00       599.40
 1182.34        2981.25           2587         149.00       647.36
 1182.37        2981.50           2591         152.00       660.43
 1182.40        2981.75           2594         149.00       647.36
 1182.43        2982.00           2598         165.00       717.11
 1182.46        2982.25           2601         144.00       625.56
 1182.50        2982.50           2605         147.00       638.64
 1182.53        2982.75           2609         144.00       625.56
 1182.56        2983.00           2612         147.00       638.64
 1182.59        2983.25           2616         157.00       682.23
 1182.62        2983.50           2619         155.00       673.51
 1182.65        2983.75           2623         147.00       638.64
 1182.68        2984.00           2626         143.00       621.20
HS scan finished at 19:42:54
end
