************************************************************
  HS Scan of (1) Internal mercury lamp
************************************************************
Integration time is 0.2294 seconds per sample
dh290318Reading 51.44 .94 2.54pr1000
************************************************************
Dead Time -------------------------  3.4E-08 
Number of Cycles Used -------------  4 
Starting Wavelength (Angstroms) ---  2950 
Final Wavelength (Angstoms) -------  2984 
Wavelength Increment (Angstroms) --  .25 
Filter Wheel #1 Position ---------- (1) Ground quartz diffuser (ND=2.32)
Filter Wheel #2 Position ---------- (1) Neutral Density 0.494



************************************************************
HS scan start time = 02:32:32
Dark Count =  .4 


Time (GMT)  Wavelength (Ang)  Step Number  Raw Counts  Counts/Second

  153.43        2950.00           2144         150.00       652.15
  153.62        2950.25           2147         144.00       625.99
  153.66        2950.50           2151         150.00       652.15
  153.69        2950.75           2155         155.00       673.95
  153.72        2951.00           2158         165.00       717.54
  153.75        2951.25           2162         157.00       682.67
  153.78        2951.50           2165         175.00       761.14
  153.81        2951.75           2169         160.00       695.74
  153.84        2952.00           2172         160.00       695.74
  153.87        2952.25           2176         158.00       687.03
  153.90        2952.50           2179         161.00       700.10
  153.93        2952.75           2183         157.00       682.67
  153.96        2953.00           2186         161.00       700.10
  153.99        2953.25           2190         168.00       730.62
  154.02        2953.50           2193         159.00       691.39
  154.05        2953.75           2197         157.00       682.67
  154.08        2954.00           2200         163.00       708.82
  154.11        2954.25           2204         160.00       695.74
  154.14        2954.50           2208         177.00       769.85
  154.18        2954.75           2211         166.00       721.90
  154.21        2955.00           2215         165.00       717.54
  154.24        2955.25           2218         176.00       765.50
  154.27        2955.50           2222         171.00       743.70
  154.30        2955.75           2225         165.00       717.54
  154.33        2956.00           2229         184.00       800.37
  154.36        2956.25           2232         181.00       787.29
  154.39        2956.50           2236         167.00       726.26
  154.42        2956.75           2239         185.00       804.73
  154.45        2957.00           2243         180.00       782.93
  154.48        2957.25           2246         195.00       848.32
  154.51        2957.50           2250         183.00       796.01
  154.54        2957.75           2254         195.00       848.32
  154.57        2958.00           2257         178.00       774.21
  154.60        2958.25           2261         194.00       843.96
  154.63        2958.50           2264         180.00       782.93
  154.66        2958.75           2268         194.00       843.96
  154.70        2959.00           2271         186.00       809.09
  154.73        2959.25           2275         193.00       839.61
  154.76        2959.50           2278         202.00       878.84
  154.79        2959.75           2282         200.00       870.12
  154.82        2960.00           2285         237.00      1031.42
  154.85        2960.25           2289         218.00       948.59
  154.88        2960.50           2293         248.00      1079.38
  154.91        2960.75           2296         223.00       970.39
  154.94        2961.00           2300         268.00      1166.57
  154.97        2961.25           2303         509.00      2217.26
  155.00        2961.50           2307        1900.00      8283.06
  155.03        2961.75           2310        3923.00     17109.34
  155.06        2962.00           2314        7169.00     31282.60
  155.09        2962.25           2317        9762.00     42614.45
  155.12        2962.50           2321       13133.00     57359.36
  155.15        2962.75           2324       15545.00     67918.65
  155.19        2963.00           2328       18974.00     82943.26
  155.22        2963.25           2331       21671.00     94771.33
  155.25        2963.50           2335       25972.00    113653.70
  155.28        2963.75           2339       29711.00    130088.50
  155.31        2964.00           2342       32403.00    141932.60
  155.34        2964.25           2346       36145.00    158412.40
  155.37        2964.50           2349       38504.00    168810.90
  155.40        2964.75           2353       42074.00    184561.70
  155.43        2965.00           2356       44859.00    196860.80
  155.46        2965.25           2360       48667.00    213694.40
  155.49        2965.50           2363       51012.00    224070.30
  155.52        2965.75           2367       54364.00    238914.60
  155.55        2966.00           2370       56862.00    249986.80
  155.58        2966.25           2374       60202.00    264804.10
  155.61        2966.50           2378       62246.00    273879.40
  155.64        2966.75           2381       63299.00    278556.90
  155.67        2967.00           2385       63146.00    277877.20
  155.70        2967.25           2388       63472.00    279325.50
  155.74        2967.50           2392       63242.00    278303.60
  155.77        2967.75           2395       63247.00    278325.90
  155.80        2968.00           2399       62000.00    272786.90
  155.83        2968.25           2402       60479.00    266033.60
  155.86        2968.50           2406       57023.00    250700.70
  155.89        2968.75           2409       54039.00    237474.70
  155.92        2969.00           2413       50425.00    221472.30
  155.95        2969.25           2417       46592.00    204519.30
  155.99        2969.50           2420       43869.00    192487.60
  156.03        2969.75           2424       40216.00    176362.10
  156.06        2970.00           2427       37159.00    162881.30
  156.09        2970.25           2431       32726.00    143354.40
  156.12        2970.50           2434       30068.00    131658.70
  156.15        2970.75           2438       26061.00    114044.70
  156.18        2971.00           2441       23293.00    101889.40
  156.21        2971.25           2445       19597.00     85674.66
  156.24        2971.50           2449       16122.00     70445.77
  156.27        2971.75           2452       13489.00     58917.39
  156.30        2972.00           2456       10043.00     43842.99
  156.33        2972.25           2459        7410.00     32335.45
  156.36        2972.50           2463        4089.00     17833.83
  156.39        2972.75           2466        1987.00      8662.53
  156.42        2973.00           2470         639.00      2784.05
  156.45        2973.25           2473         325.00      1415.06
  156.48        2973.50           2477         255.00      1109.89
  156.52        2973.75           2481         235.00      1022.70
  156.55        2974.00           2484         245.00      1066.30
  156.58        2974.25           2488         234.00      1018.34
  156.61        2974.50           2491         222.00       966.03
  156.64        2974.75           2495         207.00       900.64
  156.67        2975.00           2498         212.00       922.44
  156.70        2975.25           2502         214.00       931.15
  156.73        2975.50           2505         193.00       839.61
  156.76        2975.75           2509         202.00       878.84
  156.79        2976.00           2512         202.00       878.84
  156.82        2976.25           2516         198.00       861.40
  156.85        2976.50           2520         187.00       813.45
  156.88        2976.75           2523         186.00       809.09
  156.91        2977.00           2527         188.00       817.81
  156.94        2977.25           2530         193.00       839.61
  156.97        2977.50           2534         191.00       830.89
  157.00        2977.75           2537         190.00       826.53
  157.04        2978.00           2541         163.00       708.82
  157.07        2978.25           2544         169.00       734.98
  157.10        2978.50           2548         173.00       752.42
  157.13        2978.75           2552         184.00       800.37
  157.16        2979.00           2555         184.00       800.37
  157.19        2979.25           2559         170.00       739.34
  157.22        2979.50           2562         164.00       713.18
  157.25        2979.75           2566         156.00       678.31
  157.28        2980.00           2569         176.00       765.50
  157.31        2980.25           2573         163.00       708.82
  157.34        2980.50           2577         163.00       708.82
  157.37        2980.75           2580         163.00       708.82
  157.40        2981.00           2584         157.00       682.67
  157.43        2981.25           2587         169.00       734.98
  157.46        2981.50           2591         157.00       682.67
  157.49        2981.75           2594         161.00       700.10
  157.52        2982.00           2598         147.00       639.07
  157.56        2982.25           2601         150.00       652.15
  157.59        2982.50           2605         148.00       643.43
  157.62        2982.75           2609         154.00       669.59
  157.65        2983.00           2612         154.00       669.59
  157.68        2983.25           2616         162.00       704.46
  157.71        2983.50           2619         144.00       625.99
  157.74        2983.75           2623         148.00       643.43
  157.77        2984.00           2626         153.00       665.23
HS scan finished at 02:37:59
end
************************************************************
  HS Scan of (1) Internal mercury lamp
************************************************************
Integration time is 0.2294 seconds per sample
dh290318Reading 51.44 .94 2.72pr1000
************************************************************
Dead Time -------------------------  3.4E-08 
Number of Cycles Used -------------  4 
Starting Wavelength (Angstroms) ---  2950 
Final Wavelength (Angstoms) -------  2984 
Wavelength Increment (Angstroms) --  .25 
Filter Wheel #1 Position ---------- (1) Ground quartz diffuser (ND=2.32)
Filter Wheel #2 Position ---------- (1) Neutral Density 0.494



************************************************************
HS scan start time = 19:37:28
Dark Count =  .4 


Time (GMT)  Wavelength (Ang)  Step Number  Raw Counts  Counts/Second

 1178.36        2950.00           2144         133.00       578.04
 1178.55        2950.25           2147         122.00       530.09
 1178.58        2950.50           2151         170.00       739.34
 1178.62        2950.75           2155         138.00       599.84
 1178.65        2951.00           2158         122.00       530.09
 1178.68        2951.25           2162         122.00       530.09
 1178.71        2951.50           2165         121.00       525.73
 1178.74        2951.75           2169         121.00       525.73
 1178.77        2952.00           2172         140.00       608.56
 1178.80        2952.25           2176         141.00       612.92
 1178.83        2952.50           2179         121.00       525.73
 1178.86        2952.75           2183         140.00       608.56
 1178.89        2953.00           2186         128.00       556.24
 1178.92        2953.25           2190         181.00       787.29
 1178.95        2953.50           2193         162.00       704.46
 1178.98        2953.75           2197         124.00       538.81
 1179.01        2954.00           2200         147.00       639.07
 1179.04        2954.25           2204         145.00       630.35
 1179.07        2954.50           2208         168.00       730.62
 1179.10        2954.75           2211         138.00       599.84
 1179.13        2955.00           2215         150.00       652.15
 1179.17        2955.25           2218         141.00       612.92
 1179.20        2955.50           2222         149.00       647.79
 1179.23        2955.75           2225         157.00       682.67
 1179.26        2956.00           2229         147.00       639.07
 1179.29        2956.25           2232         142.00       617.28
 1179.32        2956.50           2236         152.00       660.87
 1179.35        2956.75           2239         143.00       621.63
 1179.38        2957.00           2243         150.00       652.15
 1179.41        2957.25           2246         147.00       639.07
 1179.44        2957.50           2250         167.00       726.26
 1179.47        2957.75           2254         148.00       643.43
 1179.50        2958.00           2257         159.00       691.39
 1179.53        2958.25           2261         160.00       695.74
 1179.56        2958.50           2264         155.00       673.95
 1179.59        2958.75           2268         173.00       752.42
 1179.62        2959.00           2271         171.00       743.70
 1179.65        2959.25           2275         169.00       734.98
 1179.69        2959.50           2278         177.00       769.85
 1179.72        2959.75           2282         177.00       769.85
 1179.75        2960.00           2285         168.00       730.62
 1179.78        2960.25           2289         194.00       843.96
 1179.81        2960.50           2293         193.00       839.61
 1179.84        2960.75           2296         185.00       804.73
 1179.87        2961.00           2300         229.00       996.55
 1179.90        2961.25           2303         414.00      1803.07
 1179.93        2961.50           2307        1540.00      6712.95
 1179.96        2961.75           2310        3331.00     14525.92
 1179.99        2962.00           2314        6136.00     26770.65
 1180.02        2962.25           2317        8402.00     36669.93
 1180.05        2962.50           2321       11408.00     49812.28
 1180.08        2962.75           2324       13599.00     59398.83
 1180.11        2963.00           2328       16422.00     71759.88
 1180.14        2963.25           2331       18820.00     82268.16
 1180.17        2963.50           2335       22013.00     96271.89
 1180.21        2963.75           2339       25283.00    110627.20
 1180.24        2964.00           2342       27617.00    120882.00
 1180.27        2964.25           2346       30833.00    135023.90
 1180.30        2964.50           2349       33254.00    145678.80
 1180.33        2964.75           2353       36064.00    158055.50
 1180.36        2965.00           2356       38348.00    168123.10
 1180.39        2965.25           2360       41428.00    181710.30
 1180.42        2965.50           2363       43699.00    191736.70
 1180.45        2965.75           2367       46630.00    204687.20
 1180.48        2966.00           2370       49279.00    216401.60
 1180.51        2966.25           2374       51319.00    225429.20
 1180.54        2966.50           2378       52588.00    231047.70
 1180.57        2966.75           2381       53143.00    233505.70
 1180.60        2967.00           2385       53362.00    234475.70
 1180.63        2967.25           2388       53458.00    234900.90
 1180.68        2967.50           2392       53143.00    233505.70
 1180.71        2967.75           2395       52996.00    232854.60
 1180.74        2968.00           2399       51438.00    225956.00
 1180.77        2968.25           2402       49383.00    216861.60
 1180.80        2968.50           2406       46630.00    204687.20
 1180.83        2968.75           2409       44904.00    197059.60
 1180.86        2969.00           2413       41886.00    183731.80
 1180.89        2969.25           2417       38793.00    170085.40
 1180.92        2969.50           2420       36328.00    159218.80
 1180.95        2969.75           2424       33104.00    145018.40
 1180.99        2970.00           2427       30971.00    135631.00
 1181.02        2970.25           2431       27807.00    121717.10
 1181.05        2970.50           2434       25381.00    111057.60
 1181.08        2970.75           2438       22008.00     96249.96
 1181.11        2971.00           2441       19434.00     84959.98
 1181.14        2971.25           2445       16353.00     71457.62
 1181.17        2971.50           2449       13363.00     58365.93
 1181.20        2971.75           2452       11032.00     48167.74
 1181.23        2972.00           2456        8144.00     35542.49
 1181.26        2972.25           2459        6011.00     26224.77
 1181.29        2972.50           2463        3306.00     14416.83
 1181.32        2972.75           2466        1664.00      7253.75
 1181.35        2973.00           2470         483.00      2103.90
 1181.38        2973.25           2473         290.00      1262.48
 1181.41        2973.50           2477         211.00       918.08
 1181.44        2973.75           2481         193.00       839.61
 1181.48        2974.00           2484         186.00       809.09
 1181.51        2974.25           2488         179.00       778.57
 1181.54        2974.50           2491         170.00       739.34
 1181.57        2974.75           2495         170.00       739.34
 1181.60        2975.00           2498         183.00       796.01
 1181.63        2975.25           2502         181.00       787.29
 1181.66        2975.50           2505         171.00       743.70
 1181.69        2975.75           2509         167.00       726.26
 1181.72        2976.00           2512         163.00       708.82
 1181.75        2976.25           2516         154.00       669.59
 1181.78        2976.50           2520         147.00       639.07
 1181.81        2976.75           2523         155.00       673.95
 1181.84        2977.00           2527         174.00       756.78
 1181.87        2977.25           2530         156.00       678.31
 1181.90        2977.50           2534         144.00       625.99
 1181.93        2977.75           2537         160.00       695.74
 1181.96        2978.00           2541         146.00       634.71
 1181.99        2978.25           2544         150.00       652.15
 1182.04        2978.50           2548         143.00       621.63
 1182.07        2978.75           2552         139.00       604.20
 1182.10        2979.00           2555         136.00       591.12
 1182.13        2979.25           2559         151.00       656.51
 1182.16        2979.50           2562         148.00       643.43
 1182.19        2979.75           2566         131.00       569.32
 1182.22        2980.00           2569         132.00       573.68
 1182.25        2980.25           2573         125.00       543.17
 1182.29        2980.50           2577         128.00       556.24
 1182.32        2980.75           2580         124.00       538.81
 1182.35        2981.00           2584         143.00       621.63
 1182.38        2981.25           2587         156.00       678.31
 1182.41        2981.50           2591         125.00       543.17
 1182.44        2981.75           2594         124.00       538.81
 1182.47        2982.00           2598         121.00       525.73
 1182.50        2982.25           2601         119.00       517.01
 1182.53        2982.50           2605         148.00       643.43
 1182.56        2982.75           2609         122.00       530.09
 1182.59        2983.00           2612         145.00       630.35
 1182.62        2983.25           2616         138.00       599.84
 1182.65        2983.50           2619         140.00       608.56
 1182.68        2983.75           2623         139.00       604.20
 1182.71        2984.00           2626         129.00       560.60
HS scan finished at 19:42:56
end
