************************************************************
  HS Scan of (1) Internal mercury lamp
************************************************************
Integration time is 0.2294 seconds per sample
dh240319Reading 51.44 .94 2.74pr1000
************************************************************
Dead Time -------------------------  3.4E-08 
Number of Cycles Used -------------  4 
Starting Wavelength (Angstroms) ---  2950 
Final Wavelength (Angstoms) -------  2984 
Wavelength Increment (Angstroms) --  .25 
Filter Wheel #1 Position ---------- (1) Ground quartz diffuser (ND=2.32)
Filter Wheel #2 Position ---------- (1) Neutral Density 0.494



************************************************************
HS scan start time = 02:54:22
Dark Count =  .5 


Time (GMT)  Wavelength (Ang)  Step Number  Raw Counts  Counts/Second

  175.27        2950.00           2144        1662.00      7244.59
  175.46        2950.25           2147        1660.00      7235.87
  175.49        2950.50           2151        1688.00      7357.99
  175.52        2950.75           2155        1686.00      7349.26
  175.55        2951.00           2158        1733.00      7554.25
  175.58        2951.25           2162        1696.00      7392.88
  175.62        2951.50           2165        1716.00      7480.11
  175.65        2951.75           2169        1715.00      7475.74
  175.68        2952.00           2172        1728.00      7532.44
  175.71        2952.25           2176        1708.00      7445.22
  175.74        2952.50           2179        1730.00      7541.17
  175.77        2952.75           2183        1746.00      7610.95
  175.80        2953.00           2186        1701.00      7414.69
  175.83        2953.25           2190        1713.00      7467.02
  175.86        2953.50           2193        1754.00      7645.84
  175.89        2953.75           2197        1760.00      7672.01
  175.92        2954.00           2200        1762.00      7680.73
  175.95        2954.25           2204        1765.00      7693.82
  175.98        2954.50           2208        1736.00      7567.34
  176.01        2954.75           2211        1775.00      7737.43
  176.04        2955.00           2215        1782.00      7767.96
  176.07        2955.25           2218        1776.00      7741.79
  176.10        2955.50           2222        1784.00      7776.69
  176.14        2955.75           2225        1825.00      7955.51
  176.17        2956.00           2229        1786.00      7785.41
  176.20        2956.25           2232        1837.00      8007.85
  176.23        2956.50           2236        1849.00      8060.19
  176.26        2956.75           2239        1863.00      8121.25
  176.29        2957.00           2243        1870.00      8151.78
  176.32        2957.25           2246        1873.00      8164.86
  176.35        2957.50           2250        1893.00      8252.10
  176.38        2957.75           2254        1942.00      8465.82
  176.41        2958.00           2257        1893.00      8252.10
  176.44        2958.25           2261        1899.00      8278.27
  176.47        2958.50           2264        1965.00      8566.14
  176.50        2958.75           2268        1957.00      8531.25
  176.53        2959.00           2271        2001.00      8723.16
  176.56        2959.25           2275        2048.00      8928.17
  176.59        2959.50           2278        2050.00      8936.89
  176.62        2959.75           2282        2041.00      8897.64
  176.66        2960.00           2285        2104.00      9172.43
  176.69        2960.25           2289        2144.00      9346.91
  176.72        2960.50           2293        2214.00      9652.25
  176.75        2960.75           2296        2184.00      9521.39
  176.78        2961.00           2300        2314.00     10088.47
  176.81        2961.25           2303        2695.00     11750.55
  176.84        2961.50           2307        6982.00     30465.28
  176.87        2961.75           2310       16356.00     71470.32
  176.90        2962.00           2314       35764.00    156733.20
  176.93        2962.25           2317       51177.00    224800.10
  176.96        2962.50           2321       73879.00    325636.50
  176.99        2962.75           2324       91225.00    403154.10
  177.02        2963.00           2328      114846.00    509380.30
  177.05        2963.25           2331      133933.00    595785.50
  177.08        2963.50           2335      161608.00    721986.40
  177.11        2963.75           2339      187714.00    842045.90
  177.14        2964.00           2342      207444.00    933447.20
  177.17        2964.25           2346      231777.00   1046973.00
  177.21        2964.50           2349      250175.00   1133406.00
  177.24        2964.75           2353      273705.00   1244709.00
  177.27        2965.00           2356      293000.00   1336627.00
  177.30        2965.25           2360      316874.00   1451178.00
  177.33        2965.50           2363      334143.00   1534611.00
  177.36        2965.75           2367      355585.00   1638888.00
  177.39        2966.00           2370      372397.00   1721184.00
  177.42        2966.25           2374      393277.00   1824058.00
  177.45        2966.50           2378      411608.00   1914991.00
  177.48        2966.75           2381      418421.00   1948936.00
  177.51        2967.00           2385      423081.00   1972201.00
  177.54        2967.25           2388      423268.00   1973135.00
  177.57        2967.50           2392      423413.00   1973860.00
  177.60        2967.75           2395      422344.00   1968519.00
  177.63        2968.00           2399      419553.00   1954584.00
  177.66        2968.25           2402      412845.00   1921148.00
  177.69        2968.50           2406      395350.00   1834312.00
  177.73        2968.75           2409      379299.00   1755107.00
  177.76        2969.00           2413      354480.00   1633496.00
  177.79        2969.25           2417      327923.00   1504504.00
  177.82        2969.50           2420      307584.00   1406494.00
  177.85        2969.75           2424      283510.00   1291345.00
  177.88        2970.00           2427      267224.00   1213966.00
  177.91        2970.25           2431      241396.00   1092098.00
  177.94        2970.50           2434      222972.00   1005790.00
  177.97        2970.75           2438      194632.00    874028.60
  178.00        2971.00           2441      173765.00    777771.90
  178.03        2971.25           2445      147613.00    658030.80
  178.06        2971.50           2449      123578.00    548845.70
  178.09        2971.75           2452      104605.00    463230.40
  178.12        2972.00           2456       79551.00    350938.90
  178.15        2972.25           2459       60007.00    263938.20
  178.18        2972.50           2463       35967.00    157627.60
  178.21        2972.75           2466       19558.00     85503.22
  178.25        2973.00           2470        6762.00     29504.30
  178.28        2973.25           2473        3588.00     15646.95
  178.31        2973.50           2477        2392.00     10428.72
  178.34        2973.75           2481        2231.00      9726.41
  178.37        2974.00           2484        2229.00      9717.68
  178.40        2974.25           2488        2113.00      9211.69
  178.43        2974.50           2491        2068.00      9015.41
  178.46        2974.75           2495        2089.00      9107.01
  178.49        2975.00           2498        2035.00      8871.46
  178.52        2975.25           2502        2030.00      8849.65
  178.55        2975.50           2505        1983.00      8644.65
  178.58        2975.75           2509        1933.00      8426.56
  178.61        2976.00           2512        1999.00      8714.44
  178.64        2976.25           2516        1979.00      8627.20
  178.67        2976.50           2520        1921.00      8374.22
  178.70        2976.75           2523        1868.00      8143.06
  178.73        2977.00           2527        1887.00      8225.93
  178.77        2977.25           2530        1855.00      8086.36
  178.80        2977.50           2534        1848.00      8055.82
  178.83        2977.75           2537        1818.00      7924.98
  178.86        2978.00           2541        1801.00      7850.83
  178.89        2978.25           2544        1795.00      7824.66
  178.92        2978.50           2548        1772.00      7724.35
  178.95        2978.75           2552        1784.00      7776.69
  178.98        2979.00           2555        1750.00      7628.40
  179.01        2979.25           2559        1698.00      7401.60
  179.04        2979.50           2562        1708.00      7445.22
  179.07        2979.75           2566        1678.00      7314.37
  179.10        2980.00           2569        1682.00      7331.82
  179.13        2980.25           2573        1686.00      7349.26
  179.16        2980.50           2577        1688.00      7357.99
  179.19        2980.75           2580        1691.00      7371.07
  179.22        2981.00           2584        1646.00      7174.81
  179.25        2981.25           2587        1653.00      7205.34
  179.29        2981.50           2591        1661.00      7240.23
  179.32        2981.75           2594        1634.00      7122.47
  179.35        2982.00           2598        1637.00      7135.56
  179.38        2982.25           2601        1623.00      7074.50
  179.41        2982.50           2605        1621.00      7065.78
  179.44        2982.75           2609        1616.00      7043.97
  179.47        2983.00           2612        1585.00      6908.77
  179.50        2983.25           2616        1604.00      6991.64
  179.53        2983.50           2619        1584.00      6904.41
  179.56        2983.75           2623        1591.00      6934.94
  179.59        2984.00           2626        1582.00      6895.69
HS scan finished at 02:59:49
end
************************************************************
  HS Scan of (1) Internal mercury lamp
************************************************************
Integration time is 0.2294 seconds per sample
dh240319Reading 51.44 .94 3.11pr1000
************************************************************
Dead Time -------------------------  3.4E-08 
Number of Cycles Used -------------  4 
Starting Wavelength (Angstroms) ---  2950 
Final Wavelength (Angstoms) -------  2984 
Wavelength Increment (Angstroms) --  .25 
Filter Wheel #1 Position ---------- (1) Ground quartz diffuser (ND=2.32)
Filter Wheel #2 Position ---------- (1) Neutral Density 0.494



************************************************************
HS scan start time = 19:07:27
Dark Count =  1 


Time (GMT)  Wavelength (Ang)  Step Number  Raw Counts  Counts/Second

 1148.35        2950.00           2144        1179.00      5136.03
 1148.54        2950.25           2147        1181.00      5144.75
 1148.57        2950.50           2151        1174.00      5114.23
 1148.60        2950.75           2155        1185.00      5162.20
 1148.63        2951.00           2158        1231.00      5362.79
 1148.66        2951.25           2162        1192.00      5192.72
 1148.69        2951.50           2165        1193.00      5197.08
 1148.73        2951.75           2169        1213.00      5284.30
 1148.76        2952.00           2172        1238.00      5393.32
 1148.79        2952.25           2176        1224.00      5332.27
 1148.82        2952.50           2179        1228.00      5349.71
 1148.85        2952.75           2183        1237.00      5388.96
 1148.88        2953.00           2186        1218.00      5306.10
 1148.91        2953.25           2190        1262.00      5497.98
 1148.94        2953.50           2193        1260.00      5489.26
 1148.97        2953.75           2197        1290.00      5620.08
 1149.00        2954.00           2200        1251.00      5450.01
 1149.03        2954.25           2204        1229.00      5354.07
 1149.06        2954.50           2208        1263.00      5502.34
 1149.09        2954.75           2211        1243.00      5415.12
 1149.12        2955.00           2215        1258.00      5480.53
 1149.15        2955.25           2218        1299.00      5659.33
 1149.18        2955.50           2222        1318.00      5742.19
 1149.21        2955.75           2225        1298.00      5654.97
 1149.25        2956.00           2229        1283.00      5589.55
 1149.28        2956.25           2232        1298.00      5654.97
 1149.31        2956.50           2236        1321.00      5755.27
 1149.34        2956.75           2239        1344.00      5855.57
 1149.37        2957.00           2243        1336.00      5820.68
 1149.40        2957.25           2246        1356.00      5907.90
 1149.43        2957.50           2250        1365.00      5947.15
 1149.46        2957.75           2254        1366.00      5951.51
 1149.49        2958.00           2257        1394.00      6073.62
 1149.52        2958.25           2261        1403.00      6112.87
 1149.55        2958.50           2264        1383.00      6025.65
 1149.58        2958.75           2268        1398.00      6091.06
 1149.61        2959.00           2271        1395.00      6077.98
 1149.64        2959.25           2275        1448.00      6309.11
 1149.67        2959.50           2278        1500.00      6535.89
 1149.70        2959.75           2282        1461.00      6365.81
 1149.73        2960.00           2285        1537.00      6697.25
 1149.77        2960.25           2289        1506.00      6562.06
 1149.80        2960.50           2293        1540.00      6710.34
 1149.83        2960.75           2296        1608.00      7006.90
 1149.86        2961.00           2300        1639.00      7142.10
 1149.89        2961.25           2303        1795.00      7822.48
 1149.92        2961.50           2307        3024.00     13183.76
 1149.95        2961.75           2310        7288.00     31799.84
 1149.98        2962.00           2314       20648.00     90281.06
 1150.01        2962.25           2317       35330.00    154818.90
 1150.04        2962.50           2321       55553.00    244181.00
 1150.07        2962.75           2324       70618.00    311107.00
 1150.10        2963.00           2328       90827.00    401368.60
 1150.13        2963.25           2331      105490.00    467210.50
 1150.16        2963.50           2335      126626.00    562644.50
 1150.19        2963.75           2339      149006.00    664381.80
 1150.22        2964.00           2342      165023.00    737633.00
 1150.25        2964.25           2346      185351.00    831135.30
 1150.29        2964.50           2349      199261.00    895466.20
 1150.32        2964.75           2353      219478.00    989478.30
 1150.35        2965.00           2356      234471.00   1059595.00
 1150.38        2965.25           2360      252707.00   1145340.00
 1150.41        2965.50           2363      265995.00   1208142.00
 1150.44        2965.75           2367      285511.00   1300879.00
 1150.47        2966.00           2370      301390.00   1376777.00
 1150.50        2966.25           2374      319586.00   1464246.00
 1150.53        2966.50           2378      333172.00   1529905.00
 1150.56        2966.75           2381      335651.00   1541918.00
 1150.59        2967.00           2385      339093.00   1558614.00
 1150.62        2967.25           2388      339455.00   1560371.00
 1150.65        2967.50           2392      339301.00   1559624.00
 1150.68        2967.75           2395      338896.00   1557658.00
 1150.71        2968.00           2399      335319.00   1540308.00
 1150.74        2968.25           2402      327157.00   1500798.00
 1150.77        2968.50           2406      312496.00   1430101.00
 1150.81        2968.75           2409      299922.00   1369743.00
 1150.84        2969.00           2413      281089.00   1279813.00
 1150.87        2969.25           2417      260853.00   1183807.00
 1150.90        2969.50           2420      245733.00   1112488.00
 1150.93        2969.75           2424      225849.00   1019231.00
 1150.96        2970.00           2427      211107.00    950477.80
 1150.99        2970.25           2431      191940.00    861572.50
 1151.02        2970.50           2434      178173.00    798049.90
 1151.05        2970.75           2438      158016.00    705542.20
 1151.08        2971.00           2441      141908.00    632037.80
 1151.11        2971.25           2445      121708.00    540382.80
 1151.14        2971.50           2449      100208.00    443458.30
 1151.17        2971.75           2452       83474.00    368462.50
 1151.20        2972.00           2456       64295.00    282979.90
 1151.23        2972.25           2459       51813.00    227613.50
 1151.26        2972.50           2463       34535.00    151317.10
 1151.29        2972.75           2466       20349.00     88969.69
 1151.33        2973.00           2470        6781.00     29585.11
 1151.36        2973.25           2473        3001.00     13083.41
 1151.39        2973.50           2477        1844.00      8036.20
 1151.42        2973.75           2481        1674.00      7294.75
 1151.45        2974.00           2484        1634.00      7120.29
 1151.48        2974.25           2488        1607.00      7002.54
 1151.51        2974.50           2491        1564.00      6815.01
 1151.54        2974.75           2495        1517.00      6610.03
 1151.57        2975.00           2498        1510.00      6579.50
 1151.60        2975.25           2502        1499.00      6531.53
 1151.63        2975.50           2505        1438.00      6265.50
 1151.66        2975.75           2509        1464.00      6378.89
 1151.70        2976.00           2512        1424.00      6204.45
 1151.73        2976.25           2516        1389.00      6051.81
 1151.76        2976.50           2520        1384.00      6030.01
 1151.79        2976.75           2523        1384.00      6030.01
 1151.82        2977.00           2527        1348.00      5873.01
 1151.85        2977.25           2530        1364.00      5942.79
 1151.88        2977.50           2534        1320.00      5750.91
 1151.91        2977.75           2537        1312.00      5716.02
 1151.94        2978.00           2541        1303.00      5676.77
 1151.97        2978.25           2544        1304.00      5681.13
 1152.00        2978.50           2548        1311.00      5711.66
 1152.04        2978.75           2552        1287.00      5607.00
 1152.07        2979.00           2555        1280.00      5576.47
 1152.10        2979.25           2559        1242.00      5410.76
 1152.13        2979.50           2562        1231.00      5362.79
 1152.16        2979.75           2566        1241.00      5406.40
 1152.19        2980.00           2569        1227.00      5345.35
 1152.22        2980.25           2573        1222.00      5323.54
 1152.25        2980.50           2577        1198.00      5218.89
 1152.28        2980.75           2580        1204.00      5245.05
 1152.31        2981.00           2584        1209.00      5266.85
 1152.34        2981.25           2587        1177.00      5127.31
 1152.37        2981.50           2591        1187.00      5170.92
 1152.40        2981.75           2594        1167.00      5083.70
 1152.43        2982.00           2598        1233.00      5371.51
 1152.46        2982.25           2601        1151.00      5013.93
 1152.49        2982.50           2605        1149.00      5005.21
 1152.52        2982.75           2609        1155.00      5031.38
 1152.56        2983.00           2612        1179.00      5136.03
 1152.59        2983.25           2616        1125.00      4900.56
 1152.62        2983.50           2619        1164.00      5070.62
 1152.65        2983.75           2623        1138.00      4957.24
 1152.68        2984.00           2626        1154.00      5027.01
HS scan finished at 19:12:54
end
