************************************************************
  HS Scan of (1) Internal mercury lamp
************************************************************
Integration time is 0.2294 seconds per sample
dh260318Reading 51.44 .94 2.8pr1000
************************************************************
Dead Time -------------------------  3.4E-08 
Number of Cycles Used -------------  4 
Starting Wavelength (Angstroms) ---  2950 
Final Wavelength (Angstoms) -------  2984 
Wavelength Increment (Angstroms) --  .25 
Filter Wheel #1 Position ---------- (1) Ground quartz diffuser (ND=2.32)
Filter Wheel #2 Position ---------- (1) Neutral Density 0.494



************************************************************
HS scan start time = 02:45:29
Dark Count =  .7 


Time (GMT)  Wavelength (Ang)  Step Number  Raw Counts  Counts/Second

  166.39        2950.00           2144         134.00       581.09
  166.58        2950.25           2147         136.00       589.81
  166.61        2950.50           2151         137.00       594.17
  166.64        2950.75           2155         153.00       663.92
  166.67        2951.00           2158         158.00       685.72
  166.70        2951.25           2162         144.00       624.69
  166.74        2951.50           2165         141.00       611.61
  166.77        2951.75           2169         141.00       611.61
  166.80        2952.00           2172         139.00       602.89
  166.83        2952.25           2176         137.00       594.17
  166.86        2952.50           2179         133.00       576.73
  166.89        2952.75           2183         143.00       620.33
  166.92        2953.00           2186         141.00       611.61
  166.95        2953.25           2190         146.00       633.41
  166.98        2953.50           2193         139.00       602.89
  167.02        2953.75           2197         138.00       598.53
  167.05        2954.00           2200         147.00       637.76
  167.08        2954.25           2204         154.00       668.28
  167.11        2954.50           2208         151.00       655.20
  167.14        2954.75           2211         150.00       650.84
  167.17        2955.00           2215         149.00       646.48
  167.20        2955.25           2218         145.00       629.05
  167.23        2955.50           2222         150.00       650.84
  167.26        2955.75           2225         149.00       646.48
  167.29        2956.00           2229         152.00       659.56
  167.33        2956.25           2232         157.00       681.36
  167.37        2956.50           2236         146.00       633.41
  167.40        2956.75           2239         149.00       646.48
  167.43        2957.00           2243         156.00       677.00
  167.46        2957.25           2246         159.00       690.08
  167.49        2957.50           2250         163.00       707.51
  167.52        2957.75           2254         170.00       738.03
  167.55        2958.00           2257         160.00       694.44
  167.58        2958.25           2261         167.00       724.95
  167.61        2958.50           2264         159.00       690.08
  167.64        2958.75           2268         162.00       703.16
  167.67        2959.00           2271         176.00       764.19
  167.70        2959.25           2275         181.00       785.98
  167.73        2959.50           2278         173.00       751.11
  167.76        2959.75           2282         191.00       829.58
  167.80        2960.00           2285         182.00       790.34
  167.83        2960.25           2289         192.00       833.94
  167.86        2960.50           2293         193.00       838.30
  167.89        2960.75           2296         203.00       881.89
  167.92        2961.00           2300         278.00      1208.86
  167.95        2961.25           2303         587.00      2556.02
  167.98        2961.50           2307        2280.00      9939.28
  168.01        2961.75           2310        4287.00     18696.71
  168.04        2962.00           2314        7167.00     31272.55
  168.07        2962.25           2317        9417.00     41104.92
  168.10        2962.50           2321       12291.00     53673.71
  168.13        2962.75           2324       14563.00     63617.40
  168.16        2963.00           2328       18031.00     78808.53
  168.19        2963.25           2331       20429.00     89321.86
  168.22        2963.50           2335       24077.00    105329.90
  168.25        2963.75           2339       27598.00    120797.20
  168.28        2964.00           2342       30180.00    132150.00
  168.32        2964.25           2346       33412.00    146373.10
  168.35        2964.50           2349       35474.00    155454.60
  168.38        2964.75           2353       38988.00    170944.00
  168.41        2965.00           2356       41402.00    181594.20
  168.44        2965.25           2360       44871.00    196912.50
  168.47        2965.50           2363       46850.00    205658.40
  168.50        2965.75           2367       49773.00    218585.80
  168.53        2966.00           2370       51859.00    227818.50
  168.56        2966.25           2374       55056.00    241979.60
  168.59        2966.50           2378       56789.00    249661.80
  168.62        2966.75           2381       57122.00    251138.30
  168.65        2967.00           2385       57268.00    251785.80
  168.68        2967.25           2388       57226.00    251599.50
  168.71        2967.50           2392       57313.00    251985.30
  168.74        2967.75           2395       56883.00    250078.60
  168.77        2968.00           2399       55317.00    243136.40
  168.80        2968.25           2402       53608.00    235564.00
  168.84        2968.50           2406       50581.00    222161.30
  168.87        2968.75           2409       47554.00    208770.90
  168.90        2969.00           2413       44038.00    193232.70
  168.93        2969.25           2417       40511.00    177662.40
  168.96        2969.50           2420       38192.00    167433.90
  168.99        2969.75           2424       34898.00    152917.20
  169.02        2970.00           2427       32508.00    142393.50
  169.05        2970.25           2431       28568.00    125061.20
  169.08        2970.50           2434       26008.00    113810.50
  169.11        2970.75           2438       22821.00     99816.38
  169.14        2971.00           2441       20144.00     88071.98
  169.17        2971.25           2445       17098.00     74720.11
  169.20        2971.50           2449       13634.00     59550.71
  169.23        2971.75           2452       11229.00     49028.05
  169.26        2972.00           2456        8042.00     35095.47
  169.29        2972.25           2459        5610.00     24472.41
  169.32        2972.50           2463        2771.00     12081.25
  169.36        2972.75           2466        1241.00      5407.71
  169.39        2973.00           2470         392.00      1705.85
  169.42        2973.25           2473         280.00      1217.57
  169.45        2973.50           2477         210.00       912.41
  169.48        2973.75           2481         205.00       890.61
  169.51        2974.00           2484         201.00       873.17
  169.54        2974.25           2488         194.00       842.66
  169.57        2974.50           2491         188.00       816.50
  169.60        2974.75           2495         177.00       768.55
  169.63        2975.00           2498         180.00       781.63
  169.66        2975.25           2502         185.00       803.42
  169.69        2975.50           2505         180.00       781.63
  169.72        2975.75           2509         176.00       764.19
  169.75        2976.00           2512         164.00       711.87
  169.78        2976.25           2516         168.00       729.31
  169.81        2976.50           2520         171.00       742.39
  169.84        2976.75           2523         160.00       694.44
  169.88        2977.00           2527         166.00       720.59
  169.91        2977.25           2530         156.00       677.00
  169.94        2977.50           2534         165.00       716.23
  169.97        2977.75           2537         160.00       694.44
  170.00        2978.00           2541         166.00       720.59
  170.03        2978.25           2544         157.00       681.36
  170.06        2978.50           2548         152.00       659.56
  170.09        2978.75           2552         149.00       646.48
  170.12        2979.00           2555         151.00       655.20
  170.15        2979.25           2559         158.00       685.72
  170.18        2979.50           2562         148.00       642.12
  170.21        2979.75           2566         135.00       585.45
  170.24        2980.00           2569         139.00       602.89
  170.27        2980.25           2573         144.00       624.69
  170.30        2980.50           2577         150.00       650.84
  170.33        2980.75           2580         137.00       594.17
  170.36        2981.00           2584         164.00       711.87
  170.39        2981.25           2587         155.00       672.64
  170.43        2981.50           2591         130.00       563.66
  170.46        2981.75           2594         149.00       646.48
  170.49        2982.00           2598         148.00       642.12
  170.52        2982.25           2601         139.00       602.89
  170.55        2982.50           2605         152.00       659.56
  170.58        2982.75           2609         128.00       554.94
  170.61        2983.00           2612         144.00       624.69
  170.64        2983.25           2616         160.00       694.44
  170.67        2983.50           2619         141.00       611.61
  170.70        2983.75           2623         135.00       585.45
  170.73        2984.00           2626         128.00       554.94
HS scan finished at 02:50:57
end
************************************************************
  HS Scan of (1) Internal mercury lamp
************************************************************
Integration time is 0.2294 seconds per sample
dh260318Reading 51.44 .94 3.07pr1000
************************************************************
Dead Time -------------------------  3.4E-08 
Number of Cycles Used -------------  4 
Starting Wavelength (Angstroms) ---  2950 
Final Wavelength (Angstoms) -------  2984 
Wavelength Increment (Angstroms) --  .25 
Filter Wheel #1 Position ---------- (1) Ground quartz diffuser (ND=2.32)
Filter Wheel #2 Position ---------- (1) Neutral Density 0.494



************************************************************
HS scan start time = 19:37:31
Dark Count =  1.1 


Time (GMT)  Wavelength (Ang)  Step Number  Raw Counts  Counts/Second

 1178.41        2950.00           2144         110.00       474.72
 1178.60        2950.25           2147         128.00       553.19
 1178.63        2950.50           2151         148.00       640.38
 1178.66        2950.75           2155         120.00       518.32
 1178.69        2951.00           2158         118.00       509.60
 1178.72        2951.25           2162         151.00       653.46
 1178.75        2951.50           2165         127.00       548.83
 1178.79        2951.75           2169         171.00       740.65
 1178.82        2952.00           2172         133.00       574.99
 1178.85        2952.25           2176         153.00       662.18
 1178.88        2952.50           2179         126.00       544.47
 1178.91        2952.75           2183         111.00       479.08
 1178.94        2953.00           2186         120.00       518.32
 1178.97        2953.25           2190         145.00       627.30
 1179.00        2953.50           2193         142.00       614.22
 1179.03        2953.75           2197         139.00       601.15
 1179.06        2954.00           2200         113.00       487.80
 1179.09        2954.25           2204         132.00       570.63
 1179.12        2954.50           2208         126.00       544.47
 1179.15        2954.75           2211         122.00       527.04
 1179.18        2955.00           2215         144.00       622.94
 1179.21        2955.25           2218         144.00       622.94
 1179.24        2955.50           2222         139.00       601.15
 1179.27        2955.75           2225         163.00       705.77
 1179.31        2956.00           2229         146.00       631.66
 1179.34        2956.25           2232         163.00       705.77
 1179.37        2956.50           2236         135.00       583.71
 1179.40        2956.75           2239         131.00       566.27
 1179.43        2957.00           2243         131.00       566.27
 1179.46        2957.25           2246         134.00       579.35
 1179.49        2957.50           2250         141.00       609.86
 1179.52        2957.75           2254         137.00       592.43
 1179.55        2958.00           2257         159.00       688.33
 1179.58        2958.25           2261         146.00       631.66
 1179.61        2958.50           2264         158.00       683.97
 1179.64        2958.75           2268         152.00       657.82
 1179.67        2959.00           2271         160.00       692.69
 1179.70        2959.25           2275         173.00       749.37
 1179.73        2959.50           2278         148.00       640.38
 1179.76        2959.75           2282         164.00       710.13
 1179.79        2960.00           2285         155.00       670.90
 1179.83        2960.25           2289         161.00       697.05
 1179.86        2960.50           2293         183.00       792.96
 1179.89        2960.75           2296         173.00       749.37
 1179.92        2961.00           2300         238.00      1032.73
 1179.95        2961.25           2303         376.00      1634.35
 1179.98        2961.50           2307        1242.00      5410.32
 1180.01        2961.75           2310        2839.00     12376.18
 1180.04        2962.00           2314        5707.00     24894.21
 1180.07        2962.25           2317        8085.00     35281.62
 1180.10        2962.50           2321       11039.00     48195.31
 1180.13        2962.75           2324       13054.00     57010.58
 1180.16        2963.00           2328       15917.00     69544.81
 1180.19        2963.25           2331       18103.00     79122.33
 1180.22        2963.50           2335       21579.00     94364.62
 1180.25        2963.75           2339       24606.00    107650.90
 1180.28        2964.00           2342       27085.00    118540.90
 1180.31        2964.25           2346       29974.00    131242.10
 1180.35        2964.50           2349       32115.00    140662.00
 1180.38        2964.75           2353       35126.00    153919.80
 1180.41        2965.00           2356       37509.00    164421.00
 1180.44        2965.25           2360       40042.00    175591.40
 1180.47        2965.50           2363       42327.00    185675.40
 1180.50        2965.75           2367       45131.00    198059.40
 1180.53        2966.00           2370       47019.00    206403.80
 1180.56        2966.25           2374       49617.00    217893.80
 1180.59        2966.50           2378       50981.00    223929.90
 1180.62        2966.75           2381       51378.00    225687.20
 1180.65        2967.00           2385       51228.00    225023.20
 1180.68        2967.25           2388       51326.00    225457.00
 1180.71        2967.50           2392       50989.00    223965.30
 1180.74        2967.75           2395       50585.00    222177.30
 1180.77        2968.00           2399       48827.00    214399.00
 1180.80        2968.25           2402       46719.00    205077.50
 1180.83        2968.50           2406       43965.00    192908.50
 1180.87        2968.75           2409       41811.00    183397.70
 1180.90        2969.00           2413       39058.00    171251.00
 1180.93        2969.25           2417       36041.00    157951.00
 1180.96        2969.50           2420       34161.00    149669.50
 1180.99        2969.75           2424       31071.00    136067.90
 1181.02        2970.00           2427       28898.00    126510.30
 1181.05        2970.25           2431       25820.00    112982.90
 1181.08        2970.50           2434       23696.00    103655.40
 1181.11        2970.75           2438       20904.00     91403.50
 1181.14        2971.00           2441       18451.00     80647.60
 1181.17        2971.25           2445       15347.00     67048.50
 1181.20        2971.50           2449       12111.00     52884.46
 1181.23        2971.75           2452        9885.00     43149.14
 1181.26        2972.00           2456        7286.00     31790.67
 1181.29        2972.25           2459        5263.00     22955.58
 1181.32        2972.50           2463        2804.00     12223.48
 1181.35        2972.75           2466        1330.00      5794.08
 1181.39        2973.00           2470         422.00      1834.90
 1181.42        2973.25           2473         275.00      1194.03
 1181.45        2973.50           2477         200.00       867.07
 1181.48        2973.75           2481         180.00       779.88
 1181.51        2974.00           2484         189.00       819.12
 1181.54        2974.25           2488         174.00       753.72
 1181.57        2974.50           2491         168.00       727.57
 1181.60        2974.75           2495         174.00       753.72
 1181.63        2975.00           2498         164.00       710.13
 1181.66        2975.25           2502         167.00       723.21
 1181.69        2975.50           2505         160.00       692.69
 1181.72        2975.75           2509         141.00       609.86
 1181.75        2976.00           2512         150.00       649.10
 1181.78        2976.25           2516         159.00       688.33
 1181.81        2976.50           2520         147.00       636.02
 1181.84        2976.75           2523         146.00       631.66
 1181.87        2977.00           2527         143.00       618.58
 1181.91        2977.25           2530         142.00       614.22
 1181.94        2977.50           2534         137.00       592.43
 1181.97        2977.75           2537         144.00       622.94
 1182.00        2978.00           2541         141.00       609.86
 1182.03        2978.25           2544         137.00       592.43
 1182.06        2978.50           2548         141.00       609.86
 1182.09        2978.75           2552         121.00       522.68
 1182.12        2979.00           2555         176.00       762.44
 1182.15        2979.25           2559         134.00       579.35
 1182.18        2979.50           2562         129.00       557.55
 1182.21        2979.75           2566         128.00       553.19
 1182.24        2980.00           2569         121.00       522.68
 1182.27        2980.25           2573         132.00       570.63
 1182.30        2980.50           2577         144.00       622.94
 1182.33        2980.75           2580         134.00       579.35
 1182.36        2981.00           2584         112.00       483.44
 1182.39        2981.25           2587         105.00       452.93
 1182.43        2981.50           2591         113.00       487.80
 1182.46        2981.75           2594         160.00       692.69
 1182.49        2982.00           2598         141.00       609.86
 1182.52        2982.25           2601         127.00       548.83
 1182.55        2982.50           2605         117.00       505.24
 1182.58        2982.75           2609         117.00       505.24
 1182.61        2983.00           2612         123.00       531.40
 1182.64        2983.25           2616         136.00       588.07
 1182.67        2983.50           2619         124.00       535.76
 1182.70        2983.75           2623         125.00       540.11
 1182.73        2984.00           2626         100.00       431.13
HS scan finished at 19:42:57
end
