************************************************************
  HS Scan of (1) Internal mercury lamp
************************************************************
Integration time is 0.2294 seconds per sample
dh250318Reading 51.44 .94 2.9pr1000
************************************************************
Dead Time -------------------------  3.4E-08 
Number of Cycles Used -------------  4 
Starting Wavelength (Angstroms) ---  2950 
Final Wavelength (Angstoms) -------  2984 
Wavelength Increment (Angstroms) --  .25 
Filter Wheel #1 Position ---------- (1) Ground quartz diffuser (ND=2.32)
Filter Wheel #2 Position ---------- (1) Neutral Density 0.494



************************************************************
HS scan start time = 02:49:29
Dark Count =  .5 


Time (GMT)  Wavelength (Ang)  Step Number  Raw Counts  Counts/Second

  170.37        2950.00           2144         156.00       677.87
  170.57        2950.25           2147         141.00       612.48
  170.60        2950.50           2151         127.00       551.45
  170.63        2950.75           2155         122.00       529.65
  170.66        2951.00           2158         142.00       616.84
  170.69        2951.25           2162         159.00       690.95
  170.72        2951.50           2165         139.00       603.76
  170.75        2951.75           2169         134.00       581.96
  170.78        2952.00           2172         162.00       704.03
  170.81        2952.25           2176         145.00       629.92
  170.84        2952.50           2179         143.00       621.20
  170.87        2952.75           2183         134.00       581.96
  170.90        2953.00           2186         140.00       608.12
  170.93        2953.25           2190         150.00       651.71
  170.97        2953.50           2193         129.00       560.17
  171.00        2953.75           2197         165.00       717.11
  171.03        2954.00           2200         134.00       581.96
  171.06        2954.25           2204         132.00       573.25
  171.09        2954.50           2208         141.00       612.48
  171.12        2954.75           2211         159.00       690.95
  171.15        2955.00           2215         166.00       721.46
  171.18        2955.25           2218         154.00       669.15
  171.21        2955.50           2222         153.00       664.79
  171.24        2955.75           2225         153.00       664.79
  171.27        2956.00           2229         167.00       725.82
  171.30        2956.25           2232         169.00       734.54
  171.33        2956.50           2236         151.00       656.07
  171.36        2956.75           2239         135.00       586.32
  171.39        2957.00           2243         160.00       695.31
  171.42        2957.25           2246         143.00       621.20
  171.45        2957.50           2250         153.00       664.79
  171.49        2957.75           2254         175.00       760.70
  171.52        2958.00           2257         158.00       686.59
  171.55        2958.25           2261         157.00       682.23
  171.58        2958.50           2264         158.00       686.59
  171.61        2958.75           2268         156.00       677.87
  171.64        2959.00           2271         168.00       730.18
  171.67        2959.25           2275         168.00       730.18
  171.70        2959.50           2278         177.00       769.42
  171.73        2959.75           2282         179.00       778.14
  171.76        2960.00           2285         186.00       808.65
  171.79        2960.25           2289         187.00       813.01
  171.82        2960.50           2293         187.00       813.01
  171.85        2960.75           2296         209.00       908.92
  171.88        2961.00           2300         233.00      1013.55
  171.91        2961.25           2303         479.00      2086.02
  171.94        2961.50           2307        1944.00      8474.54
  171.97        2961.75           2310        3839.00     16742.31
  172.01        2962.00           2314        6350.00     27704.81
  172.04        2962.25           2317        8458.00     36914.22
  172.07        2962.50           2321       11582.00     50572.94
  172.10        2962.75           2324       13921.00     60807.80
  172.13        2963.00           2328       17322.00     75702.46
  172.16        2963.25           2331       19393.00     84779.78
  172.19        2963.50           2335       22802.00     99733.88
  172.22        2963.75           2339       26477.00    115871.90
  172.25        2964.00           2342       29142.00    127585.80
  172.28        2964.25           2346       32337.00    141641.70
  172.31        2964.50           2349       34671.00    151918.30
  172.34        2964.75           2353       37850.00    165926.90
  172.37        2965.00           2356       40159.00    176110.20
  172.40        2965.25           2360       43452.00    190645.40
  172.43        2965.50           2363       45500.00    199692.60
  172.46        2965.75           2367       48793.00    214251.20
  172.49        2966.00           2370       50883.00    223498.80
  172.53        2966.25           2374       53530.00    235219.40
  172.56        2966.50           2378       54824.00    240952.40
  172.59        2966.75           2381       55239.00    242791.50
  172.62        2967.00           2385       55268.00    242920.10
  172.65        2967.25           2388       55415.00    243571.60
  172.68        2967.50           2392       55044.00    241927.30
  172.71        2967.75           2395       54760.00    240668.80
  172.74        2968.00           2399       52891.00    232389.10
  172.77        2968.25           2402       50376.00    221255.00
  172.80        2968.50           2406       47965.00    210589.20
  172.83        2968.75           2409       45738.00    200744.30
  172.86        2969.00           2413       42732.00    187466.10
  172.89        2969.25           2417       39566.00    173494.20
  172.92        2969.50           2420       37192.00    163026.20
  172.95        2969.75           2424       34085.00    149337.40
  172.98        2970.00           2427       31191.00    136598.50
  173.01        2970.25           2431       27982.00    122485.90
  173.05        2970.50           2434       25756.00    112704.40
  173.08        2970.75           2438       22472.00     98285.61
  173.11        2971.00           2441       20360.00     89020.12
  173.14        2971.25           2445       17326.00     75719.98
  173.17        2971.50           2449       13948.00     60925.99
  173.20        2971.75           2452       11334.00     49488.17
  173.23        2972.00           2456        8095.00     35327.94
  173.26        2972.25           2459        5937.00     25901.18
  173.29        2972.50           2463        3409.00     14865.84
  173.32        2972.75           2466        1743.00      7597.86
  173.35        2973.00           2470         517.00      2251.70
  173.38        2973.25           2473         264.00      1148.69
  173.41        2973.50           2477         211.00       917.64
  173.44        2973.75           2481         192.00       834.81
  173.47        2974.00           2484         204.00       887.12
  173.50        2974.25           2488         191.00       830.45
  173.53        2974.50           2491         178.00       773.78
  173.56        2974.75           2495         187.00       813.01
  173.60        2975.00           2498         177.00       769.42
  173.63        2975.25           2502         181.00       786.86
  173.66        2975.50           2505         180.00       782.50
  173.69        2975.75           2509         163.00       708.39
  173.72        2976.00           2512         166.00       721.46
  173.75        2976.25           2516         164.00       712.75
  173.78        2976.50           2520         171.00       743.26
  173.81        2976.75           2523         164.00       712.75
  173.84        2977.00           2527         152.00       660.43
  173.87        2977.25           2530         140.00       608.12
  173.90        2977.50           2534         145.00       629.92
  173.93        2977.75           2537         157.00       682.23
  173.96        2978.00           2541         142.00       616.84
  173.99        2978.25           2544         154.00       669.15
  174.02        2978.50           2548         152.00       660.43
  174.05        2978.75           2552         144.00       625.56
  174.08        2979.00           2555         176.00       765.06
  174.12        2979.25           2559         133.00       577.61
  174.15        2979.50           2562         134.00       581.96
  174.18        2979.75           2566         169.00       734.54
  174.21        2980.00           2569         157.00       682.23
  174.24        2980.25           2573         153.00       664.79
  174.27        2980.50           2577         133.00       577.61
  174.30        2980.75           2580         145.00       629.92
  174.33        2981.00           2584         137.00       595.04
  174.36        2981.25           2587         122.00       529.65
  174.39        2981.50           2591         155.00       673.51
  174.42        2981.75           2594         150.00       651.71
  174.45        2982.00           2598         143.00       621.20
  174.48        2982.25           2601         122.00       529.65
  174.51        2982.50           2605         117.00       507.86
  174.54        2982.75           2609         148.00       643.00
  174.57        2983.00           2612         132.00       573.25
  174.61        2983.25           2616         125.00       542.73
  174.64        2983.50           2619         119.00       516.57
  174.67        2983.75           2623         133.00       577.61
  174.70        2984.00           2626         126.00       547.09
HS scan finished at 02:54:55
end
************************************************************
  HS Scan of (1) Internal mercury lamp
************************************************************
Integration time is 0.2294 seconds per sample
dh250318Reading 51.44 .94 3.19pr1000
************************************************************
Dead Time -------------------------  3.4E-08 
Number of Cycles Used -------------  4 
Starting Wavelength (Angstroms) ---  2950 
Final Wavelength (Angstoms) -------  2984 
Wavelength Increment (Angstroms) --  .25 
Filter Wheel #1 Position ---------- (1) Ground quartz diffuser (ND=2.32)
Filter Wheel #2 Position ---------- (1) Neutral Density 0.494



************************************************************
HS scan start time = 19:07:26
Dark Count =  1.2 


Time (GMT)  Wavelength (Ang)  Step Number  Raw Counts  Counts/Second

 1148.33        2950.00           2144         109.00       469.93
 1148.53        2950.25           2147         138.00       596.35
 1148.56        2950.50           2151         112.00       483.01
 1148.59        2950.75           2155         103.00       443.77
 1148.62        2951.00           2158         111.00       478.65
 1148.65        2951.25           2162         101.00       435.05
 1148.68        2951.50           2165         109.00       469.93
 1148.71        2951.75           2169         127.00       548.40
 1148.74        2952.00           2172         115.00       496.09
 1148.77        2952.25           2176         109.00       469.93
 1148.80        2952.50           2179         106.00       456.85
 1148.83        2952.75           2183         128.00       552.76
 1148.86        2953.00           2186         154.00       666.10
 1148.89        2953.25           2190         109.00       469.93
 1148.92        2953.50           2193         120.00       517.88
 1148.96        2953.75           2197         151.00       653.02
 1148.99        2954.00           2200         120.00       517.88
 1149.02        2954.25           2204         135.00       583.27
 1149.05        2954.50           2208         106.00       456.85
 1149.08        2954.75           2211         110.00       474.29
 1149.11        2955.00           2215         135.00       583.27
 1149.14        2955.25           2218         148.00       639.94
 1149.17        2955.50           2222         117.00       504.80
 1149.20        2955.75           2225         137.00       591.99
 1149.23        2956.00           2229         156.00       674.82
 1149.26        2956.25           2232         152.00       657.38
 1149.29        2956.50           2236         123.00       530.96
 1149.32        2956.75           2239         120.00       517.88
 1149.35        2957.00           2243         145.00       626.87
 1149.38        2957.25           2246         137.00       591.99
 1149.41        2957.50           2250         121.00       522.24
 1149.44        2957.75           2254         129.00       557.12
 1149.48        2958.00           2257         136.00       587.63
 1149.51        2958.25           2261         162.00       700.98
 1149.54        2958.50           2264         132.00       570.19
 1149.57        2958.75           2268         154.00       666.10
 1149.60        2959.00           2271         170.00       735.85
 1149.63        2959.25           2275         144.00       622.51
 1149.66        2959.50           2278         145.00       626.87
 1149.69        2959.75           2282         135.00       583.27
 1149.72        2960.00           2285         155.00       670.46
 1149.75        2960.25           2289         160.00       692.26
 1149.78        2960.50           2293         180.00       779.45
 1149.81        2960.75           2296         172.00       744.57
 1149.84        2961.00           2300         190.00       823.04
 1149.87        2961.25           2303         390.00      1694.95
 1149.90        2961.50           2307        1553.00      6766.16
 1149.93        2961.75           2310        2965.00     12925.47
 1149.96        2962.00           2314        5265.00     22963.87
 1149.99        2962.25           2317        7214.00     31475.69
 1150.03        2962.50           2321        9785.00     42711.50
 1150.06        2962.75           2324       11613.00     50705.47
 1150.09        2963.00           2328       14215.00     62091.72
 1150.12        2963.25           2331       16470.00     71966.65
 1150.15        2963.50           2335       19387.00     84750.41
 1150.18        2963.75           2339       22420.00     98054.34
 1150.21        2964.00           2342       24610.00    107668.10
 1150.24        2964.25           2346       27500.00    120364.30
 1150.27        2964.50           2349       29484.00    129086.70
 1150.30        2964.75           2353       32597.00    142783.00
 1150.33        2965.00           2356       34687.00    151985.60
 1150.36        2965.25           2360       36864.00    161577.50
 1150.39        2965.50           2363       38871.00    170425.80
 1150.42        2965.75           2367       41559.00    182284.90
 1150.45        2966.00           2370       43297.00    189957.90
 1150.48        2966.25           2374       45487.00    199632.00
 1150.51        2966.50           2378       47328.00    207769.40
 1150.55        2966.75           2381       47540.00    208706.80
 1150.58        2967.00           2385       47710.00    209458.50
 1150.61        2967.25           2388       47720.00    209502.70
 1150.64        2967.50           2392       47939.00    210471.10
 1150.67        2967.75           2395       47615.00    209038.40
 1150.70        2968.00           2399       46435.00    203821.70
 1150.73        2968.25           2402       44916.00    197109.10
 1150.76        2968.50           2406       42349.00    185772.10
 1150.79        2968.75           2409       40209.00    176327.70
 1150.82        2969.00           2413       37330.00    163631.50
 1150.85        2969.25           2417       34237.00    150003.70
 1150.88        2969.50           2420       32398.00    141907.10
 1150.91        2969.75           2424       29826.00    130590.80
 1150.94        2970.00           2427       27635.00    120957.60
 1150.97        2970.25           2431       24584.00    107553.90
 1151.00        2970.50           2434       22267.00     97382.94
 1151.03        2970.75           2438       19344.00     84561.88
 1151.07        2971.00           2441       17235.00     75318.18
 1151.10        2971.25           2445       14750.00     64433.95
 1151.13        2971.50           2449       11837.00     51685.34
 1151.16        2971.75           2452        9763.00     42615.32
 1151.19        2972.00           2456        6971.00     30414.17
 1151.22        2972.25           2459        4999.00     21802.56
 1151.25        2972.50           2463        2558.00     11149.82
 1151.28        2972.75           2466        1229.00      5353.20
 1151.31        2973.00           2470         382.00      1660.08
 1151.34        2973.25           2473         229.00       993.06
 1151.37        2973.50           2477         178.00       770.73
 1151.40        2973.75           2481         163.00       705.34
 1151.43        2974.00           2484         172.00       744.57
 1151.46        2974.25           2488         162.00       700.98
 1151.49        2974.50           2491         160.00       692.26
 1151.52        2974.75           2495         172.00       744.57
 1151.55        2975.00           2498         159.00       687.90
 1151.59        2975.25           2502         147.00       635.58
 1151.62        2975.50           2505         147.00       635.58
 1151.65        2975.75           2509         141.00       609.43
 1151.68        2976.00           2512         158.00       683.54
 1151.71        2976.25           2516         143.00       618.15
 1151.74        2976.50           2520         137.00       591.99
 1151.77        2976.75           2523         127.00       548.40
 1151.80        2977.00           2527         153.00       661.74
 1151.83        2977.25           2530         124.00       535.32
 1151.86        2977.50           2534         147.00       635.58
 1151.89        2977.75           2537         142.00       613.79
 1151.92        2978.00           2541         127.00       548.40
 1151.95        2978.25           2544         156.00       674.82
 1151.98        2978.50           2548         119.00       513.52
 1152.01        2978.75           2552         143.00       618.15
 1152.04        2979.00           2555         155.00       670.46
 1152.08        2979.25           2559         132.00       570.19
 1152.11        2979.50           2562         125.00       539.68
 1152.14        2979.75           2566         116.00       500.44
 1152.17        2980.00           2569         133.00       574.55
 1152.20        2980.25           2573         106.00       456.85
 1152.23        2980.50           2577         155.00       670.46
 1152.26        2980.75           2580         147.00       635.58
 1152.29        2981.00           2584         134.00       578.91
 1152.32        2981.25           2587         128.00       552.76
 1152.35        2981.50           2591         134.00       578.91
 1152.38        2981.75           2594         110.00       474.29
 1152.41        2982.00           2598         142.00       613.79
 1152.44        2982.25           2601         114.00       491.73
 1152.47        2982.50           2605         105.00       452.49
 1152.50        2982.75           2609         111.00       478.65
 1152.53        2983.00           2612          98.00       421.98
 1152.56        2983.25           2616         104.00       448.13
 1152.59        2983.50           2619         128.00       552.76
 1152.63        2983.75           2623         110.00       474.29
 1152.66        2984.00           2626         125.00       539.68
HS scan finished at 19:12:53
end
