************************************************************
  HS Scan of 
************************************************************
Integration time is 0.2294 seconds per sample
dh040417Reading 51.44 .94 3.27pr1000
************************************************************
Dead Time -------------------------  3.4E-08 
Number of Cycles Used -------------  4 
Starting Wavelength (Angstroms) ---  2950 
Final Wavelength (Angstoms) -------  2984 
Wavelength Increment (Angstroms) --  .25 
Filter Wheel #1 Position ---------- (1) Ground quartz diffuser (ND=2.32)
Filter Wheel #2 Position ---------- (1) Neutral Density 0.494



************************************************************
HS scan start time = 02:39:52
Dark Count =  1.5 


Time (GMT)  Wavelength (Ang)  Step Number  Raw Counts  Counts/Second

  160.77        2950.00           2144         693.00      3014.69
  160.96        2950.25           2147         701.00      3049.58
  160.99        2950.50           2151         694.00      3019.05
  161.02        2950.75           2155         698.00      3036.49
  161.05        2951.00           2158         708.00      3080.10
  161.08        2951.25           2162         711.00      3093.18
  161.11        2951.50           2165         703.00      3058.30
  161.14        2951.75           2169         724.00      3149.86
  161.17        2952.00           2172         721.00      3136.78
  161.20        2952.25           2176         716.00      3114.98
  161.24        2952.50           2179         742.00      3228.34
  161.27        2952.75           2183         730.00      3176.02
  161.30        2953.00           2186         727.00      3162.94
  161.33        2953.25           2190         745.00      3241.42
  161.36        2953.50           2193         754.00      3280.66
  161.39        2953.75           2197         742.00      3228.34
  161.42        2954.00           2200         805.00      3503.03
  161.45        2954.25           2204         731.00      3180.38
  161.48        2954.50           2208         745.00      3241.42
  161.51        2954.75           2211         782.00      3402.75
  161.54        2955.00           2215         784.00      3411.47
  161.57        2955.25           2218         764.00      3324.26
  161.60        2955.50           2222         769.00      3346.07
  161.63        2955.75           2225         772.00      3359.15
  161.66        2956.00           2229         811.00      3529.19
  161.69        2956.25           2232         813.00      3537.91
  161.72        2956.50           2236         826.00      3594.60
  161.76        2956.75           2239         841.00      3660.00
  161.79        2957.00           2243         832.00      3620.76
  161.82        2957.25           2246         806.00      3507.39
  161.85        2957.50           2250         843.00      3668.72
  161.88        2957.75           2254         842.00      3664.36
  161.91        2958.00           2257         862.00      3751.57
  161.94        2958.25           2261         897.00      3904.18
  161.97        2958.50           2264         888.00      3864.94
  162.00        2958.75           2268         912.00      3969.59
  162.03        2959.00           2271         910.00      3960.86
  162.06        2959.25           2275         962.00      4187.61
  162.09        2959.50           2278         947.00      4122.20
  162.12        2959.75           2282         965.00      4200.69
  162.15        2960.00           2285         957.00      4165.80
  162.18        2960.25           2289         996.00      4335.86
  162.21        2960.50           2293        1040.00      4527.72
  162.24        2960.75           2296        1073.00      4671.62
  162.28        2961.00           2300        1338.00      5827.22
  162.31        2961.25           2303        2750.00     11986.14
  162.34        2961.50           2307        9790.00     42732.06
  162.37        2961.75           2310       18641.00     81478.68
  162.40        2962.00           2314       32286.00    141412.80
  162.43        2962.25           2317       43246.00    189731.40
  162.46        2962.50           2321       57374.00    252252.30
  162.49        2962.75           2324       67746.00    298322.30
  162.52        2963.00           2328       82565.00    364397.50
  162.55        2963.25           2331       94989.00    420025.00
  162.58        2963.50           2335      111378.00    493731.30
  162.61        2963.75           2339      126957.00    564141.80
  162.64        2964.00           2342      138238.00    615340.50
  162.67        2964.25           2346      153651.00    685584.70
  162.70        2964.50           2349      165111.00    738034.20
  162.73        2964.75           2353      179226.00    802896.40
  162.76        2965.00           2356      190396.00    854432.10
  162.80        2965.25           2360      203375.00    914545.20
  162.83        2965.50           2363      212986.00    959220.50
  162.86        2965.75           2367      229294.00   1035343.00
  162.89        2966.00           2370      239721.00   1084226.00
  162.92        2966.25           2374      252237.00   1143121.00
  162.95        2966.50           2378      258467.00   1172527.00
  162.98        2966.75           2381      260118.00   1180330.00
  163.01        2967.00           2385      260184.00   1180642.00
  163.04        2967.25           2388      260543.00   1182339.00
  163.07        2967.50           2392      260256.00   1180982.00
  163.10        2967.75           2395      259510.00   1177456.00
  163.13        2968.00           2399      253186.00   1147596.00
  163.16        2968.25           2402      244614.00   1107222.00
  163.19        2968.50           2406      230370.00   1040380.00
  163.22        2968.75           2409      219826.00    991099.60
  163.25        2969.00           2413      204949.00    921852.20
  163.28        2969.25           2417      190941.00    856951.20
  163.32        2969.50           2420      179159.00    802587.90
  163.35        2969.75           2424      163314.00    729797.20
  163.38        2970.00           2427      150524.00    671306.00
  163.41        2970.25           2431      134203.00    597007.00
  163.44        2970.50           2434      123315.00    547650.90
  163.47        2970.75           2438      108266.00    479707.00
  163.50        2971.00           2441       96130.00    425144.40
  163.53        2971.25           2445       81329.00    358875.00
  163.56        2971.50           2449       67232.00    296035.80
  163.59        2971.75           2452       54985.00    241661.50
  163.62        2972.00           2456       38877.00    170451.00
  163.65        2972.25           2459       27237.00    119207.10
  163.68        2972.50           2463       13500.00     58960.71
  163.71        2972.75           2466        6136.00     26765.85
  163.74        2973.00           2470        2114.00      9211.69
  163.77        2973.25           2473        1356.00      5905.72
  163.80        2973.50           2477        1109.00      4828.60
  163.84        2973.75           2481        1094.00      4763.20
  163.87        2974.00           2484        1058.00      4606.21
  163.90        2974.25           2488        1026.00      4466.68
  163.93        2974.50           2491        1022.00      4449.23
  163.96        2974.75           2495         962.00      4187.61
  163.99        2975.00           2498         953.00      4148.36
  164.02        2975.25           2502         933.00      4061.15
  164.05        2975.50           2505         948.00      4126.56
  164.08        2975.75           2509         928.00      4039.35
  164.11        2976.00           2512         918.00      3995.75
  164.14        2976.25           2516         901.00      3921.62
  164.17        2976.50           2520         855.00      3721.05
  164.20        2976.75           2523         872.00      3795.17
  164.23        2977.00           2527         874.00      3803.89
  164.26        2977.25           2530         858.00      3734.13
  164.29        2977.50           2534         857.00      3729.77
  164.32        2977.75           2537         836.00      3638.20
  164.35        2978.00           2541         825.00      3590.24
  164.39        2978.25           2544         836.00      3638.20
  164.42        2978.50           2548         803.00      3494.31
  164.45        2978.75           2552         805.00      3503.03
  164.48        2979.00           2555         821.00      3572.80
  164.51        2979.25           2559         760.00      3306.82
  164.54        2979.50           2562         790.00      3437.63
  164.57        2979.75           2566         775.00      3372.23
  164.60        2980.00           2569         778.00      3385.31
  164.63        2980.25           2573         774.00      3367.87
  164.66        2980.50           2577         757.00      3293.74
  164.69        2980.75           2580         742.00      3228.34
  164.72        2981.00           2584         769.00      3346.07
  164.75        2981.25           2587         774.00      3367.87
  164.78        2981.50           2591         737.00      3206.54
  164.81        2981.75           2594         775.00      3372.23
  164.84        2982.00           2598         725.00      3154.22
  164.87        2982.25           2601         757.00      3293.74
  164.91        2982.50           2605         716.00      3114.98
  164.94        2982.75           2609         697.00      3032.13
  164.97        2983.00           2612         775.00      3372.23
  165.00        2983.25           2616         761.00      3311.18
  165.03        2983.50           2619         758.00      3298.10
  165.06        2983.75           2623         722.00      3141.14
  165.09        2984.00           2626         734.00      3193.46
HS scan finished at 02:45:19
end
************************************************************
  HS Scan of 
************************************************************
Integration time is 0.2294 seconds per sample
dh040417Reading 51.44 .94 3.33pr1000
************************************************************
Dead Time -------------------------  3.4E-08 
Number of Cycles Used -------------  4 
Starting Wavelength (Angstroms) ---  2950 
Final Wavelength (Angstoms) -------  2984 
Wavelength Increment (Angstroms) --  .25 
Filter Wheel #1 Position ---------- (1) Ground quartz diffuser (ND=2.32)
Filter Wheel #2 Position ---------- (1) Neutral Density 0.494



************************************************************
HS scan start time = 19:37:31
Dark Count =  2.4 


Time (GMT)  Wavelength (Ang)  Step Number  Raw Counts  Counts/Second

 1178.41        2950.00           2144         571.00      2478.85
 1178.60        2950.25           2147         597.00      2592.21
 1178.63        2950.50           2151         630.00      2736.09
 1178.66        2950.75           2155         613.00      2661.97
 1178.69        2951.00           2158         595.00      2583.49
 1178.73        2951.25           2162         636.00      2762.25
 1178.76        2951.50           2165         629.00      2731.73
 1178.79        2951.75           2169         615.00      2670.69
 1178.82        2952.00           2172         613.00      2661.97
 1178.85        2952.25           2176         644.00      2797.13
 1178.88        2952.50           2179         618.00      2683.77
 1178.91        2952.75           2183         629.00      2731.73
 1178.94        2953.00           2186         667.00      2897.41
 1178.97        2953.25           2190         607.00      2635.81
 1179.00        2953.50           2193         659.00      2862.53
 1179.03        2953.75           2197         655.00      2845.09
 1179.06        2954.00           2200         641.00      2784.05
 1179.09        2954.25           2204         640.00      2779.69
 1179.12        2954.50           2208         652.00      2832.01
 1179.15        2954.75           2211         678.00      2945.37
 1179.18        2955.00           2215         657.00      2853.81
 1179.21        2955.25           2218         690.00      2997.69
 1179.25        2955.50           2222         649.00      2818.93
 1179.28        2955.75           2225         669.00      2906.13
 1179.31        2956.00           2229         679.00      2949.73
 1179.34        2956.25           2232         693.00      3010.77
 1179.37        2956.50           2236         689.00      2993.33
 1179.40        2956.75           2239         682.00      2962.81
 1179.43        2957.00           2243         685.00      2975.89
 1179.46        2957.25           2246         704.00      3058.73
 1179.49        2957.50           2250         707.00      3071.81
 1179.52        2957.75           2254         696.00      3023.85
 1179.55        2958.00           2257         727.00      3159.01
 1179.58        2958.25           2261         756.00      3285.46
 1179.61        2958.50           2264         742.00      3224.42
 1179.64        2958.75           2268         743.00      3228.78
 1179.67        2959.00           2271         786.00      3416.26
 1179.70        2959.25           2275         799.00      3472.95
 1179.73        2959.50           2278         790.00      3433.70
 1179.77        2959.75           2282         801.00      3481.67
 1179.80        2960.00           2285         828.00      3599.39
 1179.83        2960.25           2289         838.00      3643.00
 1179.86        2960.50           2293         849.00      3690.96
 1179.89        2960.75           2296         879.00      3821.77
 1179.92        2961.00           2300         943.00      4100.83
 1179.95        2961.25           2303        1376.00      5989.01
 1179.98        2961.50           2307        4893.00     21334.56
 1180.01        2961.75           2310       10527.00     45950.55
 1180.04        2962.00           2314       20151.00     88095.21
 1180.07        2962.25           2317       28477.00    124653.60
 1180.10        2962.50           2321       39455.00    172996.30
 1180.13        2962.75           2324       47085.00    206689.80
 1180.16        2963.00           2328       58554.00    257482.30
 1180.19        2963.25           2331       68234.00    300489.50
 1180.22        2963.50           2335       81099.00    357843.60
 1180.25        2963.75           2339       93795.00    414665.80
 1180.29        2964.00           2342      103149.00    456672.40
 1180.32        2964.25           2346      114578.00    508162.20
 1180.35        2964.50           2349      123158.00    546936.40
 1180.38        2964.75           2353      135311.00    602034.80
 1180.41        2965.00           2356      144421.00    643474.40
 1180.44        2965.25           2360      154794.00    690803.30
 1180.47        2965.50           2363      163018.00    728436.80
 1180.50        2965.75           2367      174353.00    780466.80
 1180.53        2966.00           2370      181586.00    813765.50
 1180.56        2966.25           2374      191580.00    859901.30
 1180.59        2966.50           2378      200388.00    900684.30
 1180.62        2966.75           2381      203340.00    914378.40
 1180.65        2967.00           2385      203738.00    916225.80
 1180.68        2967.25           2388      204314.00    918899.70
 1180.71        2967.50           2392      204081.00    917818.00
 1180.74        2967.75           2395      203587.00    915524.90
 1180.77        2968.00           2399      201570.00    906166.10
 1180.80        2968.25           2402      196212.00    881334.20
 1180.84        2968.50           2406      185615.00    832347.10
 1180.87        2968.75           2409      176829.00    791857.00
 1180.90        2969.00           2413      164596.00    735669.00
 1180.93        2969.25           2417      153007.00    682638.70
 1180.96        2969.50           2420      144352.00    643160.10
 1180.99        2969.75           2424      132112.00    587511.20
 1181.02        2970.00           2427      122361.00    543330.30
 1181.05        2970.25           2431      109249.00    484131.40
 1181.08        2970.50           2434      100744.00    445860.60
 1181.11        2970.75           2438       88018.00    388782.80
 1181.14        2971.00           2441       78817.00    347653.60
 1181.17        2971.25           2445       67043.00    295191.10
 1181.20        2971.50           2449       55830.00    245402.60
 1181.23        2971.75           2452       47576.00    208860.70
 1181.26        2972.00           2456       35267.00    154535.20
 1181.29        2972.25           2459       25717.00    112524.70
 1181.32        2972.50           2463       14434.00     63045.20
 1181.36        2972.75           2466        7629.00     33283.50
 1181.39        2973.00           2470        2514.00     10952.64
 1181.42        2973.25           2473        1269.00      5522.40
 1181.45        2973.50           2477        1007.00      4379.90
 1181.48        2973.75           2481         913.00      3970.02
 1181.51        2974.00           2484         864.00      3756.36
 1181.54        2974.25           2488         864.00      3756.36
 1181.57        2974.50           2491         836.00      3634.28
 1181.60        2974.75           2495         833.00      3621.20
 1181.63        2975.00           2498         811.00      3525.27
 1181.66        2975.25           2502         789.00      3429.34
 1181.69        2975.50           2505         777.00      3377.02
 1181.72        2975.75           2509         784.00      3407.54
 1181.75        2976.00           2512         774.00      3363.94
 1181.78        2976.25           2516         751.00      3263.66
 1181.81        2976.50           2520         774.00      3363.94
 1181.85        2976.75           2523         762.00      3311.62
 1181.88        2977.00           2527         742.00      3224.42
 1181.91        2977.25           2530         735.00      3193.90
 1181.94        2977.50           2534         733.00      3185.18
 1181.97        2977.75           2537         713.00      3097.97
 1182.00        2978.00           2541         720.00      3128.49
 1182.03        2978.25           2544         675.00      2932.29
 1182.06        2978.50           2548         676.00      2936.65
 1182.09        2978.75           2552         690.00      2997.69
 1182.12        2979.00           2555         674.00      2927.93
 1182.15        2979.25           2559         680.00      2954.09
 1182.18        2979.50           2562         678.00      2945.37
 1182.21        2979.75           2566         656.00      2849.45
 1182.24        2980.00           2569         671.00      2914.85
 1182.27        2980.25           2573         629.00      2731.73
 1182.30        2980.50           2577         660.00      2866.89
 1182.33        2980.75           2580         640.00      2779.69
 1182.36        2981.00           2584         664.00      2884.33
 1182.40        2981.25           2587         683.00      2967.17
 1182.43        2981.50           2591         620.00      2692.49
 1182.46        2981.75           2594         630.00      2736.09
 1182.49        2982.00           2598         626.00      2718.65
 1182.52        2982.25           2601         642.00      2788.41
 1182.55        2982.50           2605         630.00      2736.09
 1182.58        2982.75           2609         618.00      2683.77
 1182.61        2983.00           2612         608.00      2640.17
 1182.64        2983.25           2616         626.00      2718.65
 1182.67        2983.50           2619         615.00      2670.69
 1182.70        2983.75           2623         632.00      2744.81
 1182.73        2984.00           2626         644.00      2797.13
HS scan finished at 19:42:57
end
