************************************************************
  HS Scan of (1) Internal mercury lamp
************************************************************
Integration time is 0.2294 seconds per sample
dh050419Reading 51.44 .94 2.68pr1000
************************************************************
Dead Time -------------------------  3.4E-08 
Number of Cycles Used -------------  4 
Starting Wavelength (Angstroms) ---  2950 
Final Wavelength (Angstoms) -------  2984 
Wavelength Increment (Angstroms) --  .25 
Filter Wheel #1 Position ---------- (1) Ground quartz diffuser (ND=2.32)
Filter Wheel #2 Position ---------- (1) Neutral Density 0.494



************************************************************
HS scan start time = 01:57:30
Dark Count =  .3 


Time (GMT)  Wavelength (Ang)  Step Number  Raw Counts  Counts/Second

  118.39        2950.00           2144        1693.00      7380.67
  118.59        2950.25           2147        1697.00      7398.11
  118.62        2950.50           2151        1715.00      7476.62
  118.65        2950.75           2155        1690.00      7367.58
  118.68        2951.00           2158        1725.00      7520.23
  118.71        2951.25           2162        1695.00      7389.39
  118.74        2951.50           2165        1738.00      7576.93
  118.77        2951.75           2169        1729.00      7537.68
  118.80        2952.00           2172        1703.00      7424.28
  118.83        2952.25           2176        1803.00      7860.43
  118.86        2952.50           2179        1761.00      7677.24
  118.89        2952.75           2183        1798.00      7838.62
  118.92        2953.00           2186        1733.00      7555.12
  118.96        2953.25           2190        1726.00      7524.59
  118.99        2953.50           2193        1767.00      7703.41
  119.02        2953.75           2197        1805.00      7869.15
  119.05        2954.00           2200        1782.00      7768.83
  119.08        2954.25           2204        1752.00      7637.99
  119.11        2954.50           2208        1782.00      7768.83
  119.14        2954.75           2211        1807.00      7877.87
  119.17        2955.00           2215        1818.00      7925.85
  119.20        2955.25           2218        1805.00      7869.15
  119.23        2955.50           2222        1839.00      8017.44
  119.26        2955.75           2225        1837.00      8008.72
  119.29        2956.00           2229        1842.00      8030.53
  119.32        2956.25           2232        1852.00      8074.14
  119.35        2956.50           2236        1824.00      7952.02
  119.38        2956.75           2239        1864.00      8126.48
  119.41        2957.00           2243        1921.00      8375.10
  119.44        2957.25           2246        1927.00      8401.27
  119.47        2957.50           2250        1937.00      8444.88
  119.51        2957.75           2254        1919.00      8366.37
  119.54        2958.00           2257        1977.00      8619.35
  119.57        2958.25           2261        1962.00      8553.93
  119.60        2958.50           2264        1987.00      8662.97
  119.63        2958.75           2268        2012.00      8772.01
  119.66        2959.00           2271        2023.00      8819.99
  119.69        2959.25           2275        2032.00      8859.25
  119.72        2959.50           2278        2067.00      9011.92
  119.75        2959.75           2282        2163.00      9430.66
  119.78        2960.00           2285        2144.00      9347.78
  119.81        2960.25           2289        2163.00      9430.66
  119.84        2960.50           2293        2194.00      9565.88
  119.87        2960.75           2296        2189.00      9544.07
  119.90        2961.00           2300        2410.00     10508.11
  119.93        2961.25           2303        3385.00     14761.98
  119.96        2961.50           2307       10041.00     43834.69
  119.99        2961.75           2310       20921.00     91481.56
  120.03        2962.00           2314       39451.00    172987.90
  120.06        2962.25           2317       56638.00    248994.00
  120.09        2962.50           2321       80374.00    354614.80
  120.12        2962.75           2324       98199.00    434437.50
  120.15        2963.00           2328      122277.00    542959.80
  120.18        2963.25           2331      141512.00    630238.80
  120.21        2963.50           2335      170498.00    762760.30
  120.24        2963.75           2339      197716.00    888310.00
  120.27        2964.00           2342      216167.00    974043.00
  120.30        2964.25           2346      239958.00   1085344.00
  120.33        2964.50           2349      257005.00   1165626.00
  120.36        2964.75           2353      284621.00   1296640.00
  120.39        2965.00           2356      303322.00   1386042.00
  120.42        2965.25           2360      325901.00   1494731.00
  120.45        2965.50           2363      342625.00   1575771.00
  120.48        2965.75           2367      364312.00   1681549.00
  120.51        2966.00           2370      380547.00   1761251.00
  120.55        2966.25           2374      402945.00   1871945.00
  120.58        2966.50           2378      421457.00   1964090.00
  120.61        2966.75           2381      426535.00   1989470.00
  120.64        2967.00           2385      428815.00   2000881.00
  120.67        2967.25           2388      429043.00   2002023.00
  120.70        2967.50           2392      429172.00   2002669.00
  120.73        2967.75           2395      428442.00   1999014.00
  120.76        2968.00           2399      423332.00   1973456.00
  120.79        2968.25           2402      413841.00   1926108.00
  120.82        2968.50           2406      393725.00   1826274.00
  120.85        2968.75           2409      376347.00   1740589.00
  120.88        2969.00           2413      351204.00   1617521.00
  120.91        2969.25           2417      326304.00   1496679.00
  120.94        2969.50           2420      308577.00   1411265.00
  120.97        2969.75           2424      284336.00   1295281.00
  121.00        2970.00           2427      264005.00   1198722.00
  121.03        2970.25           2431      236211.00   1067758.00
  121.07        2970.50           2434      216467.00    975441.20
  121.10        2970.75           2438      190015.00    852676.80
  121.13        2971.00           2441      171121.00    765621.90
  121.16        2971.25           2445      147476.00    657407.10
  121.19        2971.50           2449      121237.00    538255.70
  121.22        2971.75           2452      101320.00    448458.70
  121.25        2972.00           2456       74686.00    329234.70
  121.28        2972.25           2459       55467.00    243803.00
  121.31        2972.50           2463       31633.00    138544.30
  121.34        2972.75           2466       16968.00     74152.28
  121.37        2973.00           2470        5661.00     24696.85
  121.40        2973.25           2473        3086.00     13457.33
  121.43        2973.50           2477        2431.00     10599.72
  121.46        2973.75           2481        2242.00      9775.26
  121.49        2974.00           2484        2212.00      9644.40
  121.52        2974.25           2488        2143.00      9343.42
  121.55        2974.50           2491        2134.00      9304.16
  121.59        2974.75           2495        2077.00      9055.53
  121.62        2975.00           2498        2095.00      9134.05
  121.65        2975.25           2502        2030.00      8850.53
  121.68        2975.50           2505        2005.00      8741.48
  121.71        2975.75           2509        1972.00      8597.54
  121.74        2976.00           2512        1989.00      8671.69
  121.77        2976.25           2516        1979.00      8628.08
  121.80        2976.50           2520        1885.00      8218.08
  121.83        2976.75           2523        1907.00      8314.03
  121.86        2977.00           2527        1914.00      8344.56
  121.89        2977.25           2530        1873.00      8165.74
  121.92        2977.50           2534        1850.00      8065.42
  121.95        2977.75           2537        1826.00      7960.74
  121.98        2978.00           2541        1794.00      7821.17
  122.01        2978.25           2544        1794.00      7821.17
  122.04        2978.50           2548        1781.00      7764.47
  122.07        2978.75           2552        1772.00      7725.22
  122.11        2979.00           2555        1742.00      7594.38
  122.14        2979.25           2559        1721.00      7502.79
  122.17        2979.50           2562        1729.00      7537.68
  122.20        2979.75           2566        1710.00      7454.81
  122.23        2980.00           2569        1672.00      7289.08
  122.26        2980.25           2573        1696.00      7393.75
  122.29        2980.50           2577        1698.00      7402.47
  122.32        2980.75           2580        1654.00      7210.57
  122.35        2981.00           2584        1676.00      7306.52
  122.38        2981.25           2587        1677.00      7310.88
  122.41        2981.50           2591        1692.00      7376.30
  122.44        2981.75           2594        1693.00      7380.67
  122.47        2982.00           2598        1636.00      7132.07
  122.50        2982.25           2601        1645.00      7171.32
  122.53        2982.50           2605        1637.00      7136.43
  122.56        2982.75           2609        1648.00      7184.41
  122.59        2983.00           2612        1649.00      7188.77
  122.63        2983.25           2616        1620.00      7062.29
  122.66        2983.50           2619        1621.00      7066.65
  122.69        2983.75           2623        1561.00      6804.97
  122.72        2984.00           2626        1647.00      7180.04
HS scan finished at 02:02:56
end
************************************************************
  HS Scan of (1) Internal mercury lamp
************************************************************
Integration time is 0.2294 seconds per sample
dh050419Reading 51.44 .94 3.09pr1000
************************************************************
Dead Time -------------------------  3.4E-08 
Number of Cycles Used -------------  4 
Starting Wavelength (Angstroms) ---  2950 
Final Wavelength (Angstoms) -------  2984 
Wavelength Increment (Angstroms) --  .25 
Filter Wheel #1 Position ---------- (1) Ground quartz diffuser (ND=2.32)
Filter Wheel #2 Position ---------- (1) Neutral Density 0.494



************************************************************
HS scan start time = 19:37:23
Dark Count =  .9 


Time (GMT)  Wavelength (Ang)  Step Number  Raw Counts  Counts/Second

 1178.29        2950.00           2144        1354.00      5899.61
 1178.48        2950.25           2147        1331.00      5799.31
 1178.51        2950.50           2151        1398.00      6091.50
 1178.54        2950.75           2155        1399.00      6095.86
 1178.57        2951.00           2158        1396.00      6082.78
 1178.60        2951.25           2162        1404.00      6117.66
 1178.63        2951.50           2165        1374.00      5986.83
 1178.66        2951.75           2169        1381.00      6017.36
 1178.70        2952.00           2172        1391.00      6060.97
 1178.73        2952.25           2176        1401.00      6104.58
 1178.76        2952.50           2179        1415.00      6165.63
 1178.79        2952.75           2183        1425.00      6209.24
 1178.82        2953.00           2186        1373.00      5982.47
 1178.85        2953.25           2190        1452.00      6326.99
 1178.88        2953.50           2193        1428.00      6222.33
 1178.91        2953.75           2197        1477.00      6436.02
 1178.94        2954.00           2200        1426.00      6213.61
 1178.97        2954.25           2204        1447.00      6305.19
 1179.00        2954.50           2208        1445.00      6296.47
 1179.03        2954.75           2211        1427.00      6217.97
 1179.06        2955.00           2215        1416.00      6170.00
 1179.09        2955.25           2218        1486.00      6475.27
 1179.12        2955.50           2222        1496.00      6518.88
 1179.15        2955.75           2225        1485.00      6470.91
 1179.18        2956.00           2229        1481.00      6453.47
 1179.21        2956.25           2232        1542.00      6719.50
 1179.25        2956.50           2236        1494.00      6510.16
 1179.28        2956.75           2239        1548.00      6745.66
 1179.31        2957.00           2243        1548.00      6745.66
 1179.34        2957.25           2246        1514.00      6597.38
 1179.37        2957.50           2250        1523.00      6636.63
 1179.40        2957.75           2254        1586.00      6911.39
 1179.43        2958.00           2257        1592.00      6937.56
 1179.46        2958.25           2261        1647.00      7177.43
 1179.49        2958.50           2264        1609.00      7011.70
 1179.52        2958.75           2268        1672.00      7286.46
 1179.55        2959.00           2271        1657.00      7221.04
 1179.58        2959.25           2275        1659.00      7229.76
 1179.61        2959.50           2278        1716.00      7478.36
 1179.64        2959.75           2282        1750.00      7626.65
 1179.67        2960.00           2285        1740.00      7583.04
 1179.70        2960.25           2289        1757.00      7657.18
 1179.73        2960.50           2293        1869.00      8145.67
 1179.77        2960.75           2296        1819.00      7927.59
 1179.80        2961.00           2300        1944.00      8472.80
 1179.83        2961.25           2303        2257.00      9838.08
 1179.86        2961.50           2307        5573.00     24309.97
 1179.89        2961.75           2310       13729.00     59965.64
 1179.93        2962.00           2314       30399.00    133112.40
 1179.96        2962.25           2317       45998.00    201891.60
 1179.99        2962.50           2321       67166.00    295744.90
 1180.02        2962.75           2324       84420.00    372692.40
 1180.05        2963.00           2328      108818.00    482196.30
 1180.08        2963.25           2331      127603.00    567071.50
 1180.11        2963.50           2335      149863.00    668292.20
 1180.15        2963.75           2339      172041.00    769846.00
 1180.18        2964.00           2342      188668.00    846450.30
 1180.21        2964.25           2346      212454.00    956746.80
 1180.24        2964.50           2349      231637.00   1046316.00
 1180.27        2964.75           2353      255279.00   1157474.00
 1180.30        2965.00           2356      270418.00   1229107.00
 1180.33        2965.25           2360      290866.00   1326430.00
 1180.36        2965.50           2363      306836.00   1402900.00
 1180.39        2965.75           2367      328881.00   1509135.00
 1180.42        2966.00           2370      343471.00   1579880.00
 1180.45        2966.25           2374      364413.00   1682040.00
 1180.48        2966.50           2378      380272.00   1759894.00
 1180.51        2966.75           2381      385505.00   1785677.00
 1180.54        2967.00           2385      388442.00   1800168.00
 1180.57        2967.25           2388      389357.00   1804686.00
 1180.60        2967.50           2392      389037.00   1803106.00
 1180.63        2967.75           2395      389210.00   1803960.00
 1180.67        2968.00           2399      386310.00   1789647.00
 1180.70        2968.25           2402      377824.00   1747849.00
 1180.73        2968.50           2406      359988.00   1660393.00
 1180.76        2968.75           2409      345781.00   1591113.00
 1180.79        2969.00           2413      326308.00   1496695.00
 1180.82        2969.25           2417      305427.00   1396137.00
 1180.85        2969.50           2420      288911.00   1317096.00
 1180.88        2969.75           2424      265186.00   1204311.00
 1180.91        2970.00           2427      249412.00   1129809.00
 1180.94        2970.25           2431      227149.00   1025311.00
 1180.97        2970.50           2434      210025.00    945444.80
 1181.00        2970.75           2438      186619.00    836988.30
 1181.03        2971.00           2441      167393.00    748503.70
 1181.06        2971.25           2445      143447.00    639045.00
 1181.09        2971.50           2449      117850.00    522943.40
 1181.12        2971.75           2452       98964.00    437870.30
 1181.15        2972.00           2456       73947.00    325937.80
 1181.19        2972.25           2459       55959.00    245981.10
 1181.22        2972.50           2463       34932.00    153066.10
 1181.25        2972.75           2466       21370.00     93448.58
 1181.28        2973.00           2470        7892.00     34439.17
 1181.31        2973.25           2473        3562.00     15531.74
 1181.34        2973.50           2477        2101.00      9157.60
 1181.37        2973.75           2481        1925.00      8389.93
 1181.40        2974.00           2484        1920.00      8368.12
 1181.43        2974.25           2488        1832.00      7984.30
 1181.46        2974.50           2491        1820.00      7931.96
 1181.49        2974.75           2495        1749.00      7622.29
 1181.52        2975.00           2498        1750.00      7626.65
 1181.55        2975.25           2502        1680.00      7321.35
 1181.58        2975.50           2505        1647.00      7177.43
 1181.61        2975.75           2509        1648.00      7181.79
 1181.64        2976.00           2512        1635.00      7125.09
 1181.67        2976.25           2516        1621.00      7064.03
 1181.71        2976.50           2520        1614.00      7033.50
 1181.74        2976.75           2523        1579.00      6880.86
 1181.77        2977.00           2527        1566.00      6824.16
 1181.80        2977.25           2530        1516.00      6606.10
 1181.83        2977.50           2534        1544.00      6728.22
 1181.86        2977.75           2537        1499.00      6531.97
 1181.89        2978.00           2541        1467.00      6392.41
 1181.92        2978.25           2544        1480.00      6449.10
 1181.95        2978.50           2548        1480.00      6449.10
 1181.98        2978.75           2552        1478.00      6440.38
 1182.01        2979.00           2555        1440.00      6274.66
 1182.04        2979.25           2559        1463.00      6374.97
 1182.07        2979.50           2562        1390.00      6056.61
 1182.10        2979.75           2566        1393.00      6069.69
 1182.13        2980.00           2569        1413.00      6156.91
 1182.16        2980.25           2573        1396.00      6082.78
 1182.19        2980.50           2577        1399.00      6095.86
 1182.23        2980.75           2580        1376.00      5995.55
 1182.26        2981.00           2584        1407.00      6130.75
 1182.29        2981.25           2587        1409.00      6139.47
 1182.32        2981.50           2591        1387.00      6043.53
 1182.35        2981.75           2594        1307.00      5694.65
 1182.38        2982.00           2598        1332.00      5803.67
 1182.41        2982.25           2601        1341.00      5842.92
 1182.44        2982.50           2605        1351.00      5886.53
 1182.47        2982.75           2609        1330.00      5794.95
 1182.50        2983.00           2612        1328.00      5786.23
 1182.53        2983.25           2616        1320.00      5751.34
 1182.56        2983.50           2619        1318.00      5742.62
 1182.59        2983.75           2623        1322.00      5760.06
 1182.62        2984.00           2626        1304.00      5681.57
HS scan finished at 19:42:51
end
