************************************************************
  HS Scan of 
************************************************************
Integration time is 0.2294 seconds per sample
dh010417Reading 51.44 .94 2.9pr1000
************************************************************
Dead Time -------------------------  3.4E-08 
Number of Cycles Used -------------  4 
Starting Wavelength (Angstroms) ---  2950 
Final Wavelength (Angstoms) -------  2984 
Wavelength Increment (Angstroms) --  .25 
Filter Wheel #1 Position ---------- (1) Ground quartz diffuser (ND=2.32)
Filter Wheel #2 Position ---------- (1) Neutral Density 0.494



************************************************************
HS scan start time = 02:17:01
Dark Count =  .8 


Time (GMT)  Wavelength (Ang)  Step Number  Raw Counts  Counts/Second

  137.92        2950.00           2144         834.00      3632.53
  138.12        2950.25           2147         870.00      3789.50
  138.15        2950.50           2151         824.00      3588.93
  138.18        2950.75           2155         830.00      3615.09
  138.21        2951.00           2158         831.00      3619.45
  138.24        2951.25           2162         842.00      3667.41
  138.27        2951.50           2165         857.00      3732.82
  138.30        2951.75           2169         841.00      3663.05
  138.33        2952.00           2172         861.00      3750.26
  138.36        2952.25           2176         887.00      3863.63
  138.39        2952.50           2179         823.00      3584.57
  138.42        2952.75           2183         847.00      3689.22
  138.45        2953.00           2186         877.00      3820.03
  138.48        2953.25           2190         865.00      3767.70
  138.51        2953.50           2193         886.00      3859.27
  138.54        2953.75           2197         847.00      3689.22
  138.58        2954.00           2200         836.00      3641.25
  138.61        2954.25           2204         897.00      3907.23
  138.64        2954.50           2208         872.00      3798.22
  138.67        2954.75           2211         898.00      3911.59
  138.70        2955.00           2215         903.00      3933.39
  138.73        2955.25           2218         912.00      3972.64
  138.76        2955.50           2222         883.00      3846.19
  138.79        2955.75           2225         910.00      3963.92
  138.82        2956.00           2229         936.00      4077.29
  138.85        2956.25           2232         934.00      4068.57
  138.88        2956.50           2236         931.00      4055.49
  138.91        2956.75           2239         947.00      4125.25
  138.94        2957.00           2243         947.00      4125.25
  138.97        2957.25           2246         975.00      4247.34
  139.00        2957.50           2250         968.00      4216.82
  139.03        2957.75           2254        1000.00      4356.36
  139.06        2958.00           2257         979.00      4264.79
  139.10        2958.25           2261        1010.00      4399.96
  139.13        2958.50           2264        1038.00      4522.06
  139.16        2958.75           2268        1013.00      4413.04
  139.19        2959.00           2271        1028.00      4478.45
  139.22        2959.25           2275        1032.00      4495.89
  139.25        2959.50           2278        1055.00      4596.18
  139.28        2959.75           2282        1106.00      4818.57
  139.31        2960.00           2285        1080.00      4705.20
  139.34        2960.25           2289        1128.00      4914.51
  139.37        2960.50           2293        1139.00      4962.48
  139.40        2960.75           2296        1178.00      5132.54
  139.43        2961.00           2300        1246.00      5429.08
  139.46        2961.25           2303        1645.00      7169.14
  139.49        2961.50           2307        5834.00     25450.09
  139.52        2961.75           2310       13545.00     59160.73
  139.55        2962.00           2314       25708.00    112492.20
  139.58        2962.25           2317       35895.00    157309.10
  139.62        2962.50           2321       51062.00    224289.80
  139.65        2962.75           2324       62253.00    273908.70
  139.68        2963.00           2328       79175.00    349258.90
  139.71        2963.25           2331       91378.00    403838.30
  139.74        2963.50           2335      105874.00    468939.70
  139.77        2963.75           2339      119977.00    532556.20
  139.80        2964.00           2342      133390.00    593319.00
  139.83        2964.25           2346      149516.00    666709.50
  139.86        2964.50           2349      161195.00    720093.60
  139.89        2964.75           2353      175992.00    788013.00
  139.92        2965.00           2356      186434.00    836134.60
  139.95        2965.25           2360      200095.00    899333.20
  139.98        2965.50           2363      211107.00    950478.60
  140.01        2965.75           2367      225330.00   1016806.00
  140.04        2966.00           2370      236085.00   1067164.00
  140.07        2966.25           2374      248696.00   1126437.00
  140.10        2966.50           2378      258189.00   1171217.00
  140.14        2966.75           2381      260575.00   1182493.00
  140.17        2967.00           2385      262030.00   1189374.00
  140.20        2967.25           2388      262293.00   1190619.00
  140.23        2967.50           2392      261728.00   1187946.00
  140.26        2967.75           2395      261719.00   1187903.00
  140.29        2968.00           2399      258446.00   1172431.00
  140.32        2968.25           2402      250106.00   1133080.00
  140.35        2968.50           2406      238291.00   1077515.00
  140.38        2968.75           2409      228015.00   1029362.00
  140.41        2969.00           2413      214248.00    965100.30
  140.44        2969.25           2417      200406.00    900775.20
  140.47        2969.50           2420      188561.00    845956.50
  140.50        2969.75           2424      172999.00    774249.20
  140.53        2970.00           2427      161559.00    721760.60
  140.56        2970.25           2431      145697.00    649295.40
  140.59        2970.50           2434      134429.00    598036.40
  140.62        2970.75           2438      118375.00    525315.90
  140.66        2971.00           2441      106469.00    471618.10
  140.69        2971.25           2445       89492.00    395389.70
  140.72        2971.50           2449       71869.00    316679.20
  140.75        2971.75           2452       59964.00    263746.00
  140.78        2972.00           2456       44869.00    196903.20
  140.81        2972.25           2459       33872.00    148398.10
  140.84        2972.50           2463       20101.00     87882.96
  140.87        2972.75           2466       11161.00     48730.20
  140.90        2973.00           2470        3792.00     16535.89
  140.93        2973.25           2473        1809.00      7884.42
  140.96        2973.50           2477        1251.00      5450.88
  140.99        2973.75           2481        1173.00      5110.74
  141.02        2974.00           2484        1198.00      5219.76
  141.05        2974.25           2488        1160.00      5054.05
  141.08        2974.50           2491        1109.00      4831.66
  141.11        2974.75           2495        1086.00      4731.36
  141.14        2975.00           2498        1069.00      4657.23
  141.17        2975.25           2502        1039.00      4526.42
  141.21        2975.50           2505        1082.00      4713.92
  141.24        2975.75           2509        1036.00      4513.33
  141.27        2976.00           2512        1041.00      4535.14
  141.30        2976.25           2516        1015.00      4421.76
  141.33        2976.50           2520        1013.00      4413.04
  141.36        2976.75           2523         984.00      4286.59
  141.39        2977.00           2527         958.00      4173.22
  141.42        2977.25           2530         970.00      4225.54
  141.45        2977.50           2534         973.00      4238.62
  141.48        2977.75           2537         967.00      4212.46
  141.51        2978.00           2541         946.00      4120.89
  141.54        2978.25           2544         906.00      3946.48
  141.57        2978.50           2548         939.00      4090.37
  141.60        2978.75           2552         883.00      3846.19
  141.63        2979.00           2555         895.00      3898.51
  141.66        2979.25           2559         900.00      3920.31
  141.69        2979.50           2562         894.00      3894.15
  141.73        2979.75           2566         874.00      3806.94
  141.76        2980.00           2569         895.00      3898.51
  141.79        2980.25           2573         892.00      3885.43
  141.82        2980.50           2577         872.00      3798.22
  141.85        2980.75           2580         874.00      3806.94
  141.88        2981.00           2584         854.00      3719.74
  141.91        2981.25           2587         848.00      3693.58
  141.94        2981.50           2591         837.00      3645.61
  141.97        2981.75           2594         853.00      3715.38
  142.00        2982.00           2598         847.00      3689.22
  142.03        2982.25           2601         856.00      3728.46
  142.06        2982.50           2605         816.00      3554.05
  142.09        2982.75           2609         834.00      3632.53
  142.12        2983.00           2612         838.00      3649.97
  142.15        2983.25           2616         824.00      3588.93
  142.18        2983.50           2619         822.00      3580.21
  142.21        2983.75           2623         849.00      3697.94
  142.25        2984.00           2626         791.00      3445.04
HS scan finished at 02:22:28
end
************************************************************
  HS Scan of 
************************************************************
Integration time is 0.2294 seconds per sample
dh010417Reading 51.44 .94 3.11pr1000
************************************************************
Dead Time -------------------------  3.4E-08 
Number of Cycles Used -------------  4 
Starting Wavelength (Angstroms) ---  2950 
Final Wavelength (Angstoms) -------  2984 
Wavelength Increment (Angstroms) --  .25 
Filter Wheel #1 Position ---------- (1) Ground quartz diffuser (ND=2.32)
Filter Wheel #2 Position ---------- (1) Neutral Density 0.494



************************************************************
HS scan start time = 19:37:28
Dark Count =  1.6 


Time (GMT)  Wavelength (Ang)  Step Number  Raw Counts  Counts/Second

 1178.36        2950.00           2144         796.00      3463.36
 1178.55        2950.25           2147         788.00      3428.47
 1178.58        2950.50           2151         810.00      3524.40
 1178.61        2950.75           2155         809.00      3520.04
 1178.64        2951.00           2158         826.00      3594.16
 1178.67        2951.25           2162         829.00      3607.24
 1178.70        2951.50           2165         811.00      3528.76
 1178.74        2951.75           2169         805.00      3502.60
 1178.77        2952.00           2172         813.00      3537.48
 1178.80        2952.25           2176         819.00      3563.64
 1178.83        2952.50           2179         840.00      3655.21
 1178.86        2952.75           2183         848.00      3690.09
 1178.89        2953.00           2186         839.00      3650.85
 1178.92        2953.25           2190         853.00      3711.89
 1178.95        2953.50           2193         877.00      3816.54
 1178.98        2953.75           2197         839.00      3650.85
 1179.01        2954.00           2200         863.00      3755.49
 1179.04        2954.25           2204         863.00      3755.49
 1179.07        2954.50           2208         866.00      3768.57
 1179.10        2954.75           2211         884.00      3847.06
 1179.13        2955.00           2215         854.00      3716.25
 1179.16        2955.25           2218         855.00      3720.61
 1179.19        2955.50           2222         870.00      3786.02
 1179.22        2955.75           2225         875.00      3807.82
 1179.26        2956.00           2229         921.00      4008.39
 1179.29        2956.25           2232         932.00      4056.36
 1179.32        2956.50           2236         908.00      3951.71
 1179.35        2956.75           2239         918.00      3995.31
 1179.38        2957.00           2243         930.00      4047.64
 1179.41        2957.25           2246         970.00      4222.05
 1179.44        2957.50           2250         947.00      4121.76
 1179.47        2957.75           2254         935.00      4069.44
 1179.50        2958.00           2257         958.00      4169.73
 1179.53        2958.25           2261         986.00      4291.82
 1179.56        2958.50           2264         955.00      4156.65
 1179.59        2958.75           2268         960.00      4178.45
 1179.62        2959.00           2271        1006.00      4379.03
 1179.65        2959.25           2275        1007.00      4383.39
 1179.68        2959.50           2278        1011.00      4400.83
 1179.71        2959.75           2282        1079.00      4697.35
 1179.74        2960.00           2285        1010.00      4396.47
 1179.78        2960.25           2289        1084.00      4719.15
 1179.81        2960.50           2293        1075.00      4679.91
 1179.84        2960.75           2296        1146.00      4989.51
 1179.87        2961.00           2300        1225.00      5334.01
 1179.90        2961.25           2303        1651.00      7191.82
 1179.93        2961.50           2307        5724.00     24966.26
 1179.96        2961.75           2310       12685.00     55393.69
 1179.99        2962.00           2314       24550.00    107402.80
 1180.02        2962.25           2317       33983.00    148883.40
 1180.05        2962.50           2321       48094.00    211154.80
 1180.08        2962.75           2324       59488.00    261630.00
 1180.11        2963.00           2328       74678.00    329193.20
 1180.14        2963.25           2331       85815.00    378928.20
 1180.17        2963.50           2335       99268.00    439232.60
 1180.20        2963.75           2339      113418.00    502931.40
 1180.23        2964.00           2342      124804.00    554390.40
 1180.26        2964.25           2346      139829.00    622575.30
 1180.29        2964.50           2349      151773.00    677007.10
 1180.33        2964.75           2353      165605.00    740299.00
 1180.36        2965.00           2356      175255.00    784618.90
 1180.39        2965.25           2360      189986.00    852536.80
 1180.42        2965.50           2363      200241.00    900006.50
 1180.45        2965.75           2367      214314.00    965403.90
 1180.48        2966.00           2370      223197.00   1006836.00
 1180.51        2966.25           2374      235501.00   1064422.00
 1180.54        2966.50           2378      244096.00   1104785.00
 1180.57        2966.75           2381      246209.00   1114725.00
 1180.60        2967.00           2385      247145.00   1119131.00
 1180.63        2967.25           2388      246843.00   1117709.00
 1180.66        2967.50           2392      246596.00   1116546.00
 1180.69        2967.75           2395      245853.00   1113050.00
 1180.72        2968.00           2399      241757.00   1093790.00
 1180.75        2968.25           2402      234423.00   1059367.00
 1180.78        2968.50           2406      222489.00   1003530.00
 1180.82        2968.75           2409      213549.00    961841.40
 1180.85        2969.00           2413      200360.00    900558.20
 1180.88        2969.25           2417      186544.00    836638.80
 1180.91        2969.50           2420      175614.00    786270.30
 1180.94        2969.75           2424      161368.00    720882.10
 1180.97        2970.00           2427      150631.00    671794.00
 1181.00        2970.25           2431      136794.00    608776.40
 1181.03        2970.50           2434      125999.00    559801.80
 1181.06        2970.75           2438      111424.00    493938.20
 1181.09        2971.00           2441      100401.00    444322.80
 1181.12        2971.25           2445       84976.00    375175.50
 1181.15        2971.50           2449       68763.00    302846.90
 1181.18        2971.75           2452       57254.00    251719.70
 1181.21        2972.00           2456       42322.00    185651.20
 1181.24        2972.25           2459       31894.00    139687.10
 1181.27        2972.50           2463       19661.00     85950.02
 1181.30        2972.75           2466       11083.00     48385.56
 1181.33        2973.00           2470        3497.00     15245.04
 1181.37        2973.25           2473        1635.00      7122.04
 1181.40        2973.50           2477        1202.00      5233.71
 1181.43        2973.75           2481        1143.00      4976.43
 1181.46        2974.00           2484        1136.00      4945.91
 1181.49        2974.25           2488        1082.00      4710.43
 1181.52        2974.50           2491        1092.00      4754.04
 1181.55        2974.75           2495        1077.00      4688.63
 1181.58        2975.00           2498        1060.00      4614.50
 1181.61        2975.25           2502        1005.00      4374.67
 1181.64        2975.50           2505        1024.00      4457.52
 1181.67        2975.75           2509         985.00      4287.46
 1181.70        2976.00           2512         985.00      4287.46
 1181.73        2976.25           2516         954.00      4152.29
 1181.76        2976.50           2520         982.00      4274.38
 1181.79        2976.75           2523         943.00      4104.32
 1181.82        2977.00           2527         944.00      4108.68
 1181.85        2977.25           2530         952.00      4143.57
 1181.89        2977.50           2534         937.00      4078.16
 1181.92        2977.75           2537         896.00      3899.38
 1181.95        2978.00           2541         922.00      4012.75
 1181.98        2978.25           2544         903.00      3929.91
 1182.01        2978.50           2548         919.00      3999.67
 1182.04        2978.75           2552         871.00      3790.38
 1182.07        2979.00           2555         895.00      3895.02
 1182.10        2979.25           2559         876.00      3812.18
 1182.13        2979.50           2562         869.00      3781.65
 1182.16        2979.75           2566         841.00      3659.57
 1182.19        2980.00           2569         869.00      3781.65
 1182.22        2980.25           2573         861.00      3746.77
 1182.25        2980.50           2577         822.00      3576.72
 1182.28        2980.75           2580         809.00      3520.04
 1182.31        2981.00           2584         843.00      3668.29
 1182.34        2981.25           2587         832.00      3620.32
 1182.37        2981.50           2591         813.00      3537.48
 1182.41        2981.75           2594         797.00      3467.71
 1182.44        2982.00           2598         797.00      3467.71
 1182.47        2982.25           2601         787.00      3424.11
 1182.51        2982.50           2605         785.00      3415.39
 1182.54        2982.75           2609         822.00      3576.72
 1182.57        2983.00           2612         787.00      3424.11
 1182.60        2983.25           2616         790.00      3437.19
 1182.63        2983.50           2619         800.00      3480.80
 1182.67        2983.75           2623         794.00      3454.63
 1182.70        2984.00           2626         781.00      3397.95
HS scan finished at 19:42:55
end
