************************************************************
  HS Scan of 
************************************************************
Integration time is 0.2294 seconds per sample
dh060417Reading 51.44 .94 2.82pr1000
************************************************************
Dead Time -------------------------  3.4E-08 
Number of Cycles Used -------------  4 
Starting Wavelength (Angstroms) ---  2950 
Final Wavelength (Angstoms) -------  2984 
Wavelength Increment (Angstroms) --  .25 
Filter Wheel #1 Position ---------- (1) Ground quartz diffuser (ND=2.32)
Filter Wheel #2 Position ---------- (1) Neutral Density 0.494



************************************************************
HS scan start time = 01:47:58
Dark Count =  .6 


Time (GMT)  Wavelength (Ang)  Step Number  Raw Counts  Counts/Second

  108.86        2950.00           2144         777.00      3384.87
  109.05        2950.25           2147         767.00      3341.27
  109.08        2950.50           2151         801.00      3489.52
  109.11        2950.75           2155         798.00      3476.44
  109.14        2951.00           2158         814.00      3546.20
  109.17        2951.25           2162         799.00      3480.80
  109.20        2951.50           2165         785.00      3419.75
  109.23        2951.75           2169         808.00      3520.04
  109.26        2952.00           2172         803.00      3498.24
  109.29        2952.25           2176         797.00      3472.08
  109.33        2952.50           2179         813.00      3541.84
  109.36        2952.75           2183         813.00      3541.84
  109.39        2953.00           2186         821.00      3576.72
  109.42        2953.25           2190         845.00      3681.37
  109.45        2953.50           2193         849.00      3698.81
  109.48        2953.75           2197         857.00      3733.69
  109.51        2954.00           2200         868.00      3781.65
  109.54        2954.25           2204         855.00      3724.97
  109.57        2954.50           2208         860.00      3746.77
  109.60        2954.75           2211         857.00      3733.69
  109.63        2955.00           2215         822.00      3581.08
  109.66        2955.25           2218         823.00      3585.44
  109.69        2955.50           2222         833.00      3629.04
  109.72        2955.75           2225         923.00      4021.47
  109.75        2956.00           2229         887.00      3864.50
  109.78        2956.25           2232         916.00      3990.95
  109.81        2956.50           2236         904.00      3938.63
  109.85        2956.75           2239         878.00      3825.26
  109.88        2957.00           2243         912.00      3973.51
  109.91        2957.25           2246         929.00      4047.64
  109.94        2957.50           2250         925.00      4030.20
  109.97        2957.75           2254         930.00      4052.00
  110.00        2958.00           2257         923.00      4021.47
  110.03        2958.25           2261         933.00      4065.08
  110.06        2958.50           2264         952.00      4147.93
  110.09        2958.75           2268         961.00      4187.17
  110.12        2959.00           2271         956.00      4165.37
  110.15        2959.25           2275         994.00      4331.07
  110.18        2959.50           2278         992.00      4322.34
  110.21        2959.75           2282        1011.00      4405.19
  110.24        2960.00           2285        1023.00      4457.52
  110.27        2960.25           2289        1036.00      4514.21
  110.30        2960.50           2293        1056.00      4601.42
  110.33        2960.75           2296        1091.00      4754.04
  110.36        2961.00           2300        1144.00      4985.15
  110.40        2961.25           2303        1359.00      5922.73
  110.43        2961.50           2307        3466.00     15114.13
  110.46        2961.75           2310        8124.00     35454.22
  110.49        2962.00           2314       18677.00     81640.43
  110.52        2962.25           2317       29275.00    128170.20
  110.55        2962.50           2321       44069.00    193370.00
  110.58        2962.75           2324       54580.00    239870.80
  110.61        2963.00           2328       68215.00    300412.90
  110.64        2963.25           2331       77894.00    343542.10
  110.67        2963.50           2335       93253.00    412243.50
  110.70        2963.75           2339      107426.00    475927.90
  110.73        2964.00           2342      118570.00    526197.90
  110.76        2964.25           2346      134225.00    597111.00
  110.79        2964.50           2349      145220.00    647122.80
  110.82        2964.75           2353      159026.00    710165.30
  110.85        2965.00           2356      169422.00    757817.80
  110.88        2965.25           2360      181686.00    814234.80
  110.92        2965.50           2363      191370.00    858938.70
  110.95        2965.75           2367      204116.00    917988.90
  110.98        2966.00           2370      214017.00    964025.40
  111.01        2966.25           2374      227745.00   1028100.00
  111.04        2966.50           2378      237912.00   1075737.00
  111.07        2966.75           2381      240985.00   1090167.00
  111.10        2967.00           2385      241877.00   1094358.00
  111.13        2967.25           2388      242497.00   1097272.00
  111.16        2967.50           2392      241971.00   1094800.00
  111.19        2967.75           2395      241079.00   1090608.00
  111.22        2968.00           2399      237610.00   1074320.00
  111.25        2968.25           2402      230339.00   1040239.00
  111.28        2968.50           2406      218153.00    983299.90
  111.31        2968.75           2409      208468.00    938206.20
  111.34        2969.00           2413      195705.00    878995.10
  111.37        2969.25           2417      183712.00    823576.00
  111.40        2969.50           2420      172787.00    773275.80
  111.44        2969.75           2424      157958.00    705278.70
  111.47        2970.00           2427      147154.00    655937.50
  111.50        2970.25           2431      132889.00    591045.80
  111.53        2970.50           2434      123438.00    548211.60
  111.56        2970.75           2438      110759.00    490944.70
  111.59        2971.00           2441      100416.00    444394.70
  111.62        2971.25           2445       85622.00    378069.40
  111.65        2971.50           2449       70001.00    308361.70
  111.68        2971.75           2452       58978.00    259371.40
  111.71        2972.00           2456       45820.00    201106.20
  111.74        2972.25           2459       36130.00    158345.40
  111.77        2972.50           2463       22754.00     99522.77
  111.80        2972.75           2466       13268.00     57949.29
  111.83        2973.00           2470        4432.00     19330.05
  111.86        2973.25           2473        2009.00      8757.62
  111.90        2973.50           2477        1273.00      5547.69
  111.93        2973.75           2481        1125.00      4902.30
  111.96        2974.00           2484        1111.00      4841.25
  111.99        2974.25           2488        1107.00      4823.81
  112.02        2974.50           2491        1084.00      4723.51
  112.05        2974.75           2495        1062.00      4627.58
  112.08        2975.00           2498        1029.00      4483.68
  112.11        2975.25           2502        1009.00      4396.47
  112.14        2975.50           2505         954.00      4156.65
  112.18        2975.75           2509         977.00      4256.94
  112.21        2976.00           2512         991.00      4317.98
  112.24        2976.25           2516         956.00      4165.37
  112.27        2976.50           2520         958.00      4174.09
  112.30        2976.75           2523         945.00      4117.40
  112.34        2977.00           2527         928.00      4043.28
  112.37        2977.25           2530         907.00      3951.71
  112.40        2977.50           2534         936.00      4078.16
  112.43        2977.75           2537         935.00      4073.80
  112.46        2978.00           2541         868.00      3781.65
  112.49        2978.25           2544         932.00      4060.72
  112.52        2978.50           2548         878.00      3825.26
  112.55        2978.75           2552         878.00      3825.26
  112.58        2979.00           2555         862.00      3755.49
  112.61        2979.25           2559         857.00      3733.69
  112.64        2979.50           2562         849.00      3698.81
  112.67        2979.75           2566         820.00      3572.36
  112.70        2980.00           2569         833.00      3629.04
  112.73        2980.25           2573         819.00      3568.00
  112.76        2980.50           2577         833.00      3629.04
  112.79        2980.75           2580         810.00      3528.76
  112.82        2981.00           2584         805.00      3506.96
  112.86        2981.25           2587         819.00      3568.00
  112.89        2981.50           2591         807.00      3515.68
  112.92        2981.75           2594         788.00      3432.83
  112.95        2982.00           2598         803.00      3498.24
  112.98        2982.25           2601         804.00      3502.60
  113.01        2982.50           2605         817.00      3559.28
  113.04        2982.75           2609         814.00      3546.20
  113.07        2983.00           2612         812.00      3537.48
  113.10        2983.25           2616         771.00      3358.71
  113.13        2983.50           2619         785.00      3419.75
  113.16        2983.75           2623         774.00      3371.79
  113.19        2984.00           2626         781.00      3402.31
HS scan finished at 01:53:25
end
************************************************************
  HS Scan of 
************************************************************
Integration time is 0.2294 seconds per sample
dh060417Reading 51.44 .94 3.43pr1000
************************************************************
Dead Time -------------------------  3.4E-08 
Number of Cycles Used -------------  4 
Starting Wavelength (Angstroms) ---  2950 
Final Wavelength (Angstoms) -------  2984 
Wavelength Increment (Angstroms) --  .25 
Filter Wheel #1 Position ---------- (1) Ground quartz diffuser (ND=2.32)
Filter Wheel #2 Position ---------- (1) Neutral Density 0.494



************************************************************
HS scan start time = 19:37:26
Dark Count =  2.6 


Time (GMT)  Wavelength (Ang)  Step Number  Raw Counts  Counts/Second

 1178.33        2950.00           2144         607.00      2634.94
 1178.52        2950.25           2147         596.00      2586.98
 1178.55        2950.50           2151         638.00      2770.10
 1178.58        2950.75           2155         615.00      2669.82
 1178.61        2951.00           2158         615.00      2669.82
 1178.64        2951.25           2162         624.00      2709.06
 1178.68        2951.50           2165         626.00      2717.78
 1178.71        2951.75           2169         623.00      2704.70
 1178.74        2952.00           2172         633.00      2748.30
 1178.77        2952.25           2176         626.00      2717.78
 1178.80        2952.50           2179         666.00      2892.18
 1178.83        2952.75           2183         634.00      2752.66
 1178.86        2953.00           2186         656.00      2848.58
 1178.89        2953.25           2190         637.00      2765.74
 1178.92        2953.50           2193         656.00      2848.58
 1178.95        2953.75           2197         666.00      2892.18
 1178.99        2954.00           2200         640.00      2778.82
 1179.02        2954.25           2204         671.00      2913.98
 1179.05        2954.50           2208         673.00      2922.70
 1179.08        2954.75           2211         711.00      3088.38
 1179.11        2955.00           2215         667.00      2896.54
 1179.14        2955.25           2218         667.00      2896.54
 1179.17        2955.50           2222         696.00      3022.98
 1179.20        2955.75           2225         678.00      2944.50
 1179.23        2956.00           2229         673.00      2922.70
 1179.26        2956.25           2232         692.00      3005.54
 1179.29        2956.50           2236         716.00      3110.18
 1179.32        2956.75           2239         735.00      3193.02
 1179.36        2957.00           2243         694.00      3014.26
 1179.39        2957.25           2246         686.00      2979.38
 1179.42        2957.50           2250         704.00      3057.86
 1179.45        2957.75           2254         748.00      3249.71
 1179.48        2958.00           2257         752.00      3267.15
 1179.51        2958.25           2261         760.00      3302.03
 1179.54        2958.50           2264         760.00      3302.03
 1179.57        2958.75           2268         752.00      3267.15
 1179.60        2959.00           2271         776.00      3371.79
 1179.63        2959.25           2275         774.00      3363.07
 1179.66        2959.50           2278         793.00      3445.91
 1179.69        2959.75           2282         804.00      3493.88
 1179.72        2960.00           2285         832.00      3615.96
 1179.75        2960.25           2289         811.00      3524.40
 1179.78        2960.50           2293         853.00      3707.53
 1179.81        2960.75           2296         888.00      3860.14
 1179.84        2961.00           2300         955.00      4152.29
 1179.87        2961.25           2303        1365.00      5940.17
 1179.91        2961.50           2307        4403.00     19194.74
 1179.94        2961.75           2310       10556.00     46076.49
 1179.97        2962.00           2314       20917.00     91453.94
 1180.00        2962.25           2317       29589.00    129542.30
 1180.03        2962.50           2321       40853.00    179163.00
 1180.06        2962.75           2324       49513.00    217427.00
 1180.09        2963.00           2328       62659.00    275704.00
 1180.12        2963.25           2331       72998.00    321701.00
 1180.15        2963.50           2335       85357.00    376875.10
 1180.18        2963.75           2339       97150.00    429717.50
 1180.21        2964.00           2342      105260.00    466168.20
 1180.24        2964.25           2346      118061.00    523888.90
 1180.27        2964.50           2349      127641.00    567236.00
 1180.30        2964.75           2353      139877.00    622789.10
 1180.33        2965.00           2356      148259.00    660967.20
 1180.36        2965.25           2360      159403.00    711881.50
 1180.39        2965.50           2363      167298.00    748060.10
 1180.43        2965.75           2367      179023.00    801956.50
 1180.46        2966.00           2370      187711.00    842022.40
 1180.49        2966.25           2374      199075.00    894596.70
 1180.52        2966.50           2378      207251.00    932540.50
 1180.55        2966.75           2381      209074.00    941014.40
 1180.58        2967.00           2385      210272.00    946585.90
 1180.61        2967.25           2388      210473.00    947520.80
 1180.64        2967.50           2392      210153.00    946032.30
 1180.67        2967.75           2395      210011.00    945371.80
 1180.70        2968.00           2399      207756.00    934887.40
 1180.73        2968.25           2402      201812.00    907287.80
 1180.76        2968.50           2406      191051.00    857454.80
 1180.79        2968.75           2409      182422.00    817618.30
 1180.82        2969.00           2413      171294.00    766406.10
 1180.85        2969.25           2417      160919.00    718821.50
 1180.88        2969.50           2420      152795.00    681669.60
 1180.91        2969.75           2424      139284.00    620091.90
 1180.95        2970.00           2427      128630.00    571718.30
 1180.98        2970.25           2431      115277.00    511316.20
 1181.01        2970.50           2434      105937.00    469215.20
 1181.04        2970.75           2438       93183.00    411920.70
 1181.07        2971.00           2441       83539.00    368746.00
 1181.11        2971.25           2445       70833.00    312057.10
 1181.14        2971.50           2449       58343.00    256545.40
 1181.17        2971.75           2452       47981.00    210650.70
 1181.20        2972.00           2456       35221.00    154331.70
 1181.23        2972.25           2459       26178.00    114549.00
 1181.26        2972.50           2463       15056.00     65767.65
 1181.29        2972.75           2466        8188.00     35725.14
 1181.33        2973.00           2470        2812.00     12251.83
 1181.36        2973.25           2473        1381.00      6009.95
 1181.39        2973.50           2477        1018.00      4427.00
 1181.42        2973.75           2481         935.00      4065.08
 1181.45        2974.00           2484         897.00      3899.38
 1181.48        2974.25           2488         860.00      3738.05
 1181.51        2974.50           2491         862.00      3746.77
 1181.54        2974.75           2495         865.00      3759.85
 1181.57        2975.00           2498         795.00      3454.63
 1181.60        2975.25           2502         819.00      3559.28
 1181.63        2975.50           2505         819.00      3559.28
 1181.66        2975.75           2509         795.00      3454.63
 1181.69        2976.00           2512         750.00      3258.43
 1181.72        2976.25           2516         753.00      3271.51
 1181.75        2976.50           2520         769.00      3341.27
 1181.78        2976.75           2523         744.00      3232.26
 1181.81        2977.00           2527         730.00      3171.22
 1181.85        2977.25           2530         744.00      3232.26
 1181.88        2977.50           2534         719.00      3123.26
 1181.91        2977.75           2537         715.00      3105.82
 1181.94        2978.00           2541         686.00      2979.38
 1181.97        2978.25           2544         718.00      3118.90
 1182.00        2978.50           2548         706.00      3066.58
 1182.03        2978.75           2552         673.00      2922.70
 1182.06        2979.00           2555         677.00      2940.14
 1182.09        2979.25           2559         677.00      2940.14
 1182.12        2979.50           2562         705.00      3062.22
 1182.15        2979.75           2566         673.00      2922.70
 1182.18        2980.00           2569         671.00      2913.98
 1182.21        2980.25           2573         650.00      2822.42
 1182.24        2980.50           2577         662.00      2874.74
 1182.27        2980.75           2580         647.00      2809.34
 1182.30        2981.00           2584         643.00      2791.90
 1182.33        2981.25           2587         666.00      2892.18
 1182.37        2981.50           2591         676.00      2935.78
 1182.40        2981.75           2594         644.00      2796.26
 1182.43        2982.00           2598         625.00      2713.42
 1182.46        2982.25           2601         685.00      2975.02
 1182.49        2982.50           2605         631.00      2739.58
 1182.52        2982.75           2609         622.00      2700.34
 1182.55        2983.00           2612         629.00      2730.86
 1182.58        2983.25           2616         641.00      2783.18
 1182.61        2983.50           2619         623.00      2704.70
 1182.64        2983.75           2623         642.00      2787.54
 1182.67        2984.00           2626         613.00      2661.10
HS scan finished at 19:42:54
end
