************************************************************
  HS Scan of 
************************************************************
Integration time is 0.2294 seconds per sample
dh030417Reading 51.44 .94 2.76pr1000
************************************************************
Dead Time -------------------------  3.4E-08 
Number of Cycles Used -------------  4 
Starting Wavelength (Angstroms) ---  2950 
Final Wavelength (Angstoms) -------  2984 
Wavelength Increment (Angstroms) --  .25 
Filter Wheel #1 Position ---------- (1) Ground quartz diffuser (ND=2.32)
Filter Wheel #2 Position ---------- (1) Neutral Density 0.494



************************************************************
HS scan start time = 02:06:24
Dark Count =  .5 


Time (GMT)  Wavelength (Ang)  Step Number  Raw Counts  Counts/Second

  127.29        2950.00           2144         798.00      3476.87
  127.49        2950.25           2147         837.00      3646.92
  127.52        2950.50           2151         824.00      3590.24
  127.55        2950.75           2155         843.00      3673.08
  127.58        2951.00           2158         814.00      3546.64
  127.61        2951.25           2162         823.00      3585.88
  127.64        2951.50           2165         812.00      3537.91
  127.67        2951.75           2169         841.00      3664.36
  127.70        2952.00           2172         821.00      3577.16
  127.73        2952.25           2176         844.00      3677.44
  127.76        2952.50           2179         845.00      3681.80
  127.79        2952.75           2183         835.00      3638.20
  127.82        2953.00           2186         861.00      3751.57
  127.86        2953.25           2190         827.00      3603.32
  127.89        2953.50           2193         857.00      3734.13
  127.92        2953.75           2197         867.00      3777.73
  127.95        2954.00           2200         862.00      3755.93
  127.98        2954.25           2204         872.00      3799.53
  128.01        2954.50           2208         877.00      3821.33
  128.04        2954.75           2211         889.00      3873.66
  128.07        2955.00           2215         862.00      3755.93
  128.10        2955.25           2218         865.00      3769.01
  128.13        2955.50           2222         903.00      3934.70
  128.16        2955.75           2225         889.00      3873.66
  128.19        2956.00           2229         904.00      3939.06
  128.22        2956.25           2232         898.00      3912.90
  128.25        2956.50           2236         905.00      3943.42
  128.28        2956.75           2239         914.00      3982.67
  128.31        2957.00           2243         926.00      4034.99
  128.34        2957.25           2246         925.00      4030.63
  128.38        2957.50           2250         924.00      4026.27
  128.41        2957.75           2254         950.00      4139.64
  128.44        2958.00           2257         953.00      4152.72
  128.47        2958.25           2261         944.00      4113.48
  128.50        2958.50           2264         995.00      4335.86
  128.53        2958.75           2268         998.00      4348.94
  128.56        2959.00           2271        1020.00      4444.87
  128.59        2959.25           2275        1003.00      4370.75
  128.62        2959.50           2278        1006.00      4383.83
  128.65        2959.75           2282        1037.00      4519.00
  128.68        2960.00           2285        1061.00      4623.66
  128.71        2960.25           2289        1095.00      4771.92
  128.74        2960.50           2293        1123.00      4894.01
  128.77        2960.75           2296        1090.00      4750.11
  128.80        2961.00           2300        1196.00      5212.35
  128.83        2961.25           2303        1604.00      6991.64
  128.86        2961.50           2307        5914.00     25800.74
  128.90        2961.75           2310       13084.00     57144.49
  128.93        2962.00           2314       25201.00    110266.60
  128.96        2962.25           2317       34842.00    152671.40
  128.99        2962.50           2321       48701.00    213844.30
  129.02        2962.75           2324       59945.00    263663.00
  129.05        2963.00           2328       74526.00    328520.50
  129.08        2963.25           2331       85500.00    377524.10
  129.11        2963.50           2335      100781.00    446035.30
  129.14        2963.75           2339      115168.00    510833.70
  129.17        2964.00           2342      126575.00    562415.80
  129.20        2964.25           2346      140855.00    627248.00
  129.23        2964.50           2349      150914.00    673090.60
  129.26        2964.75           2353      166095.00    742551.10
  129.29        2965.00           2356      177925.00    796910.50
  129.32        2965.25           2360      191214.00    858218.00
  129.35        2965.50           2363      200692.00    902102.90
  129.38        2965.75           2367      213261.00    960505.60
  129.41        2966.00           2370      222363.00   1002946.00
  129.45        2966.25           2374      235127.00   1062673.00
  129.48        2966.50           2378      243688.00   1102872.00
  129.51        2966.75           2381      245525.00   1111512.00
  129.54        2967.00           2385      246096.00   1114199.00
  129.57        2967.25           2388      245925.00   1113394.00
  129.60        2967.50           2392      246075.00   1114100.00
  129.63        2967.75           2395      245047.00   1109263.00
  129.66        2968.00           2399      238427.00   1078155.00
  129.69        2968.25           2402      230032.00   1038802.00
  129.72        2968.50           2406      218397.00    984438.20
  129.75        2968.75           2409      208609.00    938862.20
  129.78        2969.00           2413      195751.00    879208.50
  129.81        2969.25           2417      182599.00    818444.00
  129.84        2969.50           2420      173592.00    776976.60
  129.87        2969.75           2424      159880.00    714074.30
  129.90        2970.00           2427      148306.00    661191.10
  129.93        2970.25           2431      132358.00    588636.30
  129.97        2970.50           2434      121397.00    538978.40
  130.00        2970.75           2438      107044.00    474208.20
  130.03        2971.00           2441       96847.00    428366.80
  130.06        2971.25           2445       83265.00    367530.50
  130.09        2971.50           2449       67233.00    296044.70
  130.12        2971.75           2452       55922.00    245818.80
  130.15        2972.00           2456       42071.00    184548.00
  130.18        2972.25           2459       32730.00    143371.60
  130.21        2972.50           2463       19308.00     84407.11
  130.24        2972.75           2466       10087.00     44034.93
  130.27        2973.00           2470        2809.00     12247.91
  130.30        2973.25           2473        1574.00      6860.80
  130.33        2973.50           2477        1254.00      5465.27
  130.36        2973.75           2481        1172.00      5107.69
  130.39        2974.00           2484        1127.00      4911.46
  130.42        2974.25           2488        1124.00      4898.37
  130.45        2974.50           2491        1094.00      4767.56
  130.49        2974.75           2495        1052.00      4584.41
  130.52        2975.00           2498        1071.00      4667.26
  130.55        2975.25           2502        1060.00      4619.30
  130.58        2975.50           2505        1044.00      4549.53
  130.61        2975.75           2509        1037.00      4519.00
  130.64        2976.00           2512        1021.00      4449.23
  130.67        2976.25           2516         978.00      4261.73
  130.70        2976.50           2520        1000.00      4357.66
  130.73        2976.75           2523         955.00      4161.44
  130.76        2977.00           2527         946.00      4122.20
  130.79        2977.25           2530         924.00      4026.27
  130.82        2977.50           2534         958.00      4174.53
  130.85        2977.75           2537         944.00      4113.48
  130.88        2978.00           2541         912.00      3973.95
  130.91        2978.25           2544         909.00      3960.86
  130.94        2978.50           2548         934.00      4069.87
  130.97        2978.75           2552         907.00      3952.14
  131.01        2979.00           2555         885.00      3856.22
  131.04        2979.25           2559         856.00      3729.77
  131.07        2979.50           2562         850.00      3703.60
  131.10        2979.75           2566         880.00      3834.41
  131.13        2980.00           2569         848.00      3694.88
  131.16        2980.25           2573         848.00      3694.88
  131.19        2980.50           2577         836.00      3642.56
  131.22        2980.75           2580         834.00      3633.84
  131.25        2981.00           2584         846.00      3686.16
  131.28        2981.25           2587         895.00      3899.82
  131.31        2981.50           2591         845.00      3681.80
  131.34        2981.75           2594         818.00      3564.08
  131.37        2982.00           2598         837.00      3646.92
  131.40        2982.25           2601         810.00      3529.19
  131.43        2982.50           2605         821.00      3577.16
  131.46        2982.75           2609         792.00      3450.71
  131.49        2983.00           2612         854.00      3721.05
  131.53        2983.25           2616         836.00      3642.56
  131.56        2983.50           2619         782.00      3407.11
  131.59        2983.75           2623         810.00      3529.19
  131.62        2984.00           2626         786.00      3424.55
HS scan finished at 02:11:51
end
************************************************************
  HS Scan of 
************************************************************
Integration time is 0.2294 seconds per sample
dh030417Reading 51.44 .94 3.23pr1000
************************************************************
Dead Time -------------------------  3.4E-08 
Number of Cycles Used -------------  4 
Starting Wavelength (Angstroms) ---  2950 
Final Wavelength (Angstoms) -------  2984 
Wavelength Increment (Angstroms) --  .25 
Filter Wheel #1 Position ---------- (1) Ground quartz diffuser (ND=2.32)
Filter Wheel #2 Position ---------- (1) Neutral Density 0.494



************************************************************
HS scan start time = 19:37:31
Dark Count =  1.8 


Time (GMT)  Wavelength (Ang)  Step Number  Raw Counts  Counts/Second

 1178.42        2950.00           2144         705.00      3065.71
 1178.62        2950.25           2147         722.00      3139.83
 1178.65        2950.50           2151         721.00      3135.47
 1178.68        2950.75           2155         717.00      3118.03
 1178.71        2951.00           2158         735.00      3196.51
 1178.74        2951.25           2162         716.00      3113.67
 1178.77        2951.50           2165         723.00      3144.19
 1178.80        2951.75           2169         727.00      3161.63
 1178.83        2952.00           2172         717.00      3118.03
 1178.86        2952.25           2176         739.00      3213.95
 1178.89        2952.50           2179         740.00      3218.31
 1178.92        2952.75           2183         773.00      3362.20
 1178.95        2953.00           2186         751.00      3266.27
 1178.98        2953.25           2190         768.00      3340.40
 1179.01        2953.50           2193         750.00      3261.91
 1179.04        2953.75           2197         745.00      3240.11
 1179.08        2954.00           2200         741.00      3222.67
 1179.11        2954.25           2204         759.00      3301.16
 1179.14        2954.50           2208         764.00      3322.96
 1179.17        2954.75           2211         764.00      3322.96
 1179.20        2955.00           2215         768.00      3340.40
 1179.23        2955.25           2218         814.00      3540.97
 1179.26        2955.50           2222         787.00      3423.24
 1179.29        2955.75           2225         809.00      3519.17
 1179.32        2956.00           2229         814.00      3540.97
 1179.35        2956.25           2232         831.00      3615.09
 1179.38        2956.50           2236         779.00      3388.36
 1179.41        2956.75           2239         831.00      3615.09
 1179.44        2957.00           2243         835.00      3632.53
 1179.47        2957.25           2246         841.00      3658.69
 1179.50        2957.50           2250         832.00      3619.45
 1179.53        2957.75           2254         888.00      3863.63
 1179.56        2958.00           2257         882.00      3837.47
 1179.59        2958.25           2261         843.00      3667.41
 1179.63        2958.50           2264         879.00      3824.39
 1179.66        2958.75           2268         905.00      3937.76
 1179.69        2959.00           2271         882.00      3837.47
 1179.72        2959.25           2275         919.00      3998.80
 1179.75        2959.50           2278         915.00      3981.36
 1179.78        2959.75           2282         952.00      4142.69
 1179.81        2960.00           2285         954.00      4151.41
 1179.84        2960.25           2289        1003.00      4365.08
 1179.87        2960.50           2293        1000.00      4352.00
 1179.90        2960.75           2296        1028.00      4474.09
 1179.93        2961.00           2300        1129.00      4914.51
 1179.96        2961.25           2303        1553.00      6763.54
 1179.99        2961.50           2307        5072.00     22118.63
 1180.02        2961.75           2310       12137.00     52995.15
 1180.05        2962.00           2314       24063.00    105263.60
 1180.08        2962.25           2317       33548.00    146967.10
 1180.11        2962.50           2321       45586.00    200066.80
 1180.15        2962.75           2324       55816.00    245343.20
 1180.18        2963.00           2328       70234.00    309393.70
 1180.21        2963.25           2331       81612.00    360137.90
 1180.24        2963.50           2335       95358.00    421679.10
 1180.27        2963.75           2339      107863.00    477890.50
 1180.30        2964.00           2342      117219.00    520088.90
 1180.33        2964.25           2346      131928.00    586679.00
 1180.36        2964.50           2349      143386.00    638763.20
 1180.39        2964.75           2353      157531.00    703319.90
 1180.42        2965.00           2356      167440.00    748715.30
 1180.45        2965.25           2360      178968.00    801707.00
 1180.48        2965.50           2363      187674.00    841855.20
 1180.51        2965.75           2367      199688.00    897441.80
 1180.54        2966.00           2370      210286.00    946654.60
 1180.57        2966.25           2374      222339.00   1002828.00
 1180.60        2966.50           2378      231171.00   1044129.00
 1180.63        2966.75           2381      234407.00   1059291.00
 1180.67        2967.00           2385      234771.00   1060998.00
 1180.70        2967.25           2388      234663.00   1060491.00
 1180.73        2967.50           2392      234745.00   1060876.00
 1180.76        2967.75           2395      234234.00   1058480.00
 1180.79        2968.00           2399      231359.00   1045010.00
 1180.82        2968.25           2402      225053.00   1015507.00
 1180.85        2968.50           2406      213308.00    960718.20
 1180.88        2968.75           2409      203237.00    913903.30
 1180.91        2969.00           2413      190157.00    853326.10
 1180.94        2969.25           2417      178507.00    799584.10
 1180.97        2969.50           2420      169285.00    757183.30
 1181.00        2969.75           2424      155397.00    693562.00
 1181.03        2970.00           2427      143225.00    638030.00
 1181.06        2970.25           2431      128301.00    570230.70
 1181.09        2970.50           2434      117895.00    523142.70
 1181.12        2970.75           2438      103422.00    457902.90
 1181.15        2971.00           2441       92618.00    409391.40
 1181.19        2971.25           2445       79128.00    349044.60
 1181.22        2971.50           2449       63992.00    281629.80
 1181.25        2971.75           2452       53093.00    233278.00
 1181.28        2972.00           2456       39649.00    173854.60
 1181.31        2972.25           2459       29745.00    130231.90
 1181.34        2972.50           2463       17349.00     75815.05
 1181.37        2972.75           2466        9574.00     41786.44
 1181.40        2973.00           2470        3239.00     14118.37
 1181.43        2973.25           2473        1554.00      6767.91
 1181.46        2973.50           2477        1117.00      4862.18
 1181.49        2973.75           2481        1024.00      4456.65
 1181.52        2974.00           2484        1046.00      4552.58
 1181.55        2974.25           2488        1004.00      4369.44
 1181.58        2974.50           2491         980.00      4264.79
 1181.61        2974.75           2495         970.00      4221.18
 1181.64        2975.00           2498         954.00      4151.41
 1181.67        2975.25           2502         949.00      4129.61
 1181.71        2975.50           2505         935.00      4068.57
 1181.74        2975.75           2509         908.00      3950.84
 1181.77        2976.00           2512         886.00      3854.91
 1181.80        2976.25           2516         909.00      3955.20
 1181.83        2976.50           2520         910.00      3959.56
 1181.86        2976.75           2523         885.00      3850.55
 1181.89        2977.00           2527         893.00      3885.43
 1181.92        2977.25           2530         862.00      3750.26
 1181.95        2977.50           2534         828.00      3602.01
 1181.98        2977.75           2537         840.00      3654.33
 1182.01        2978.00           2541         814.00      3540.97
 1182.04        2978.25           2544         809.00      3519.17
 1182.07        2978.50           2548         774.00      3366.56
 1182.10        2978.75           2552         832.00      3619.45
 1182.13        2979.00           2555         826.00      3593.29
 1182.16        2979.25           2559         808.00      3514.81
 1182.19        2979.50           2562         829.00      3606.37
 1182.23        2979.75           2566         776.00      3375.28
 1182.26        2980.00           2569         770.00      3349.12
 1182.29        2980.25           2573         788.00      3427.60
 1182.32        2980.50           2577         774.00      3366.56
 1182.35        2980.75           2580         764.00      3322.96
 1182.38        2981.00           2584         758.00      3296.80
 1182.41        2981.25           2587         795.00      3458.12
 1182.44        2981.50           2591         762.00      3314.24
 1182.47        2981.75           2594         763.00      3318.60
 1182.50        2982.00           2598         789.00      3431.96
 1182.53        2982.25           2601         762.00      3314.24
 1182.56        2982.50           2605         725.00      3152.91
 1182.59        2982.75           2609         735.00      3196.51
 1182.62        2983.00           2612         752.00      3270.63
 1182.65        2983.25           2616         739.00      3213.95
 1182.68        2983.50           2619         714.00      3104.95
 1182.71        2983.75           2623         705.00      3065.71
 1182.75        2984.00           2626         714.00      3104.95
HS scan finished at 19:42:58
end
