************************************************************
  HS Scan of (1) Internal mercury lamp
************************************************************
Integration time is 0.2294 seconds per sample
dh090418Reading 51.44 .94 3.09pr1000
************************************************************
Dead Time -------------------------  3.4E-08 
Number of Cycles Used -------------  4 
Starting Wavelength (Angstroms) ---  2950 
Final Wavelength (Angstoms) -------  2984 
Wavelength Increment (Angstroms) --  .25 
Filter Wheel #1 Position ---------- (1) Ground quartz diffuser (ND=2.32)
Filter Wheel #2 Position ---------- (1) Neutral Density 0.494



************************************************************
HS scan start time = 01:26:22
Dark Count =  1 


Time (GMT)  Wavelength (Ang)  Step Number  Raw Counts  Counts/Second

   87.27        2950.00           2144          62.00       265.91
   87.46        2950.25           2147          65.00       278.99
   87.49        2950.50           2151          60.00       257.19
   87.52        2950.75           2155          64.00       274.63
   87.55        2951.00           2158          62.00       265.91
   87.58        2951.25           2162          61.00       261.55
   87.61        2951.50           2165          62.00       265.91
   87.64        2951.75           2169          59.00       252.84
   87.67        2952.00           2172          58.00       248.48
   87.71        2952.25           2176          65.00       278.99
   87.74        2952.50           2179          53.00       226.68
   87.77        2952.75           2183          62.00       265.91
   87.80        2953.00           2186          66.00       283.35
   87.83        2953.25           2190          61.00       261.55
   87.86        2953.50           2193          70.00       300.79
   87.89        2953.75           2197          66.00       283.35
   87.92        2954.00           2200          53.00       226.68
   87.95        2954.25           2204          64.00       274.63
   87.98        2954.50           2208          66.00       283.35
   88.01        2954.75           2211          65.00       278.99
   88.04        2955.00           2215          70.00       300.79
   88.07        2955.25           2218          71.00       305.15
   88.10        2955.50           2222          68.00       292.07
   88.13        2955.75           2225          62.00       265.91
   88.16        2956.00           2229          67.00       287.71
   88.19        2956.25           2232          74.00       318.22
   88.22        2956.50           2236          67.00       287.71
   88.26        2956.75           2239          67.00       287.71
   88.29        2957.00           2243          71.00       305.15
   88.32        2957.25           2246          65.00       278.99
   88.35        2957.50           2250          71.00       305.15
   88.38        2957.75           2254          74.00       318.22
   88.41        2958.00           2257          70.00       300.79
   88.44        2958.25           2261          70.00       300.79
   88.47        2958.50           2264          78.00       335.66
   88.50        2958.75           2268          82.00       353.10
   88.53        2959.00           2271          79.00       340.02
   88.56        2959.25           2275          80.00       344.38
   88.59        2959.50           2278          77.00       331.30
   88.62        2959.75           2282          77.00       331.30
   88.65        2960.00           2285          79.00       340.02
   88.68        2960.25           2289          89.00       383.61
   88.71        2960.50           2293          98.00       422.85
   88.74        2960.75           2296          98.00       422.85
   88.78        2961.00           2300         159.00       688.77
   88.81        2961.25           2303         333.00      1447.33
   88.84        2961.50           2307        1064.00      4634.56
   88.87        2961.75           2310        1811.00      7892.27
   88.90        2962.00           2314        2924.00     12747.46
   88.93        2962.25           2317        3791.00     16530.65
   88.96        2962.50           2321        4851.00     21157.33
   88.99        2962.75           2324        5860.00     25562.75
   89.02        2963.00           2328        7180.00     31328.03
   89.05        2963.25           2331        8253.00     36016.18
   89.08        2963.50           2335        9454.00     41265.36
   89.11        2963.75           2339       10759.00     46971.21
   89.14        2964.00           2342       11730.00     51218.15
   89.17        2964.25           2346       12941.00     56516.52
   89.20        2964.50           2349       14066.00     61440.34
   89.23        2964.75           2353       15174.00     66291.35
   89.26        2965.00           2356       16025.00     70018.28
   89.30        2965.25           2360       17509.00     76519.66
   89.33        2965.50           2363       18362.00     80257.95
   89.36        2965.75           2367       19271.00     84242.69
   89.39        2966.00           2370       20084.00     87807.52
   89.42        2966.25           2374       21403.00     93592.91
   89.45        2966.50           2378       21669.00     94759.91
   89.48        2966.75           2381       21912.00     95826.09
   89.51        2967.00           2385       21726.00     95010.00
   89.54        2967.25           2388       21650.00     94676.55
   89.57        2967.50           2392       21519.00     94101.82
   89.60        2967.75           2395       21371.00     93452.52
   89.63        2968.00           2399       20740.00     90684.58
   89.66        2968.25           2402       19725.00     86233.28
   89.69        2968.50           2406       18608.00     81336.21
   89.72        2968.75           2409       17646.00     77120.00
   89.75        2969.00           2413       16413.00     71717.82
   89.78        2969.25           2417       15202.00     66413.98
   89.82        2969.50           2420       14401.00     62906.86
   89.85        2969.75           2424       12702.00     55470.70
   89.88        2970.00           2427       11774.00     51410.63
   89.91        2970.25           2431       10314.00     45025.29
   89.94        2970.50           2434        9402.00     41038.04
   89.97        2970.75           2438        8327.00     36339.56
   90.00        2971.00           2441        7328.00     31974.59
   90.03        2971.25           2445        5906.00     25763.62
   90.06        2971.50           2449        4760.00     20760.07
   90.09        2971.75           2452        3756.00     16377.90
   90.12        2972.00           2456        2638.00     11499.70
   90.15        2972.25           2459        1818.00      7922.80
   90.18        2972.50           2463         922.00      4015.37
   90.21        2972.75           2466         417.00      1813.54
   90.24        2973.00           2470         160.00       693.13
   90.27        2973.25           2473         113.00       488.24
   90.30        2973.50           2477         104.00       449.00
   90.34        2973.75           2481          96.00       414.13
   90.37        2974.00           2484         108.00       466.44
   90.40        2974.25           2488          84.00       361.82
   90.43        2974.50           2491          83.00       357.46
   90.46        2974.75           2495          87.00       374.90
   90.49        2975.00           2498          86.00       370.54
   90.52        2975.25           2502          75.00       322.58
   90.55        2975.50           2505          75.00       322.58
   90.58        2975.75           2509          77.00       331.30
   90.61        2976.00           2512          73.00       313.87
   90.64        2976.25           2516          87.00       374.90
   90.67        2976.50           2520          72.00       309.51
   90.70        2976.75           2523          78.00       335.66
   90.73        2977.00           2527          77.00       331.30
   90.76        2977.25           2530          74.00       318.22
   90.79        2977.50           2534          76.00       326.94
   90.82        2977.75           2537          69.00       296.43
   90.86        2978.00           2541          63.00       270.27
   90.89        2978.25           2544          72.00       309.51
   90.92        2978.50           2548          68.00       292.07
   90.95        2978.75           2552          72.00       309.51
   90.98        2979.00           2555          67.00       287.71
   91.01        2979.25           2559          65.00       278.99
   91.04        2979.50           2562          60.00       257.19
   91.07        2979.75           2566          68.00       292.07
   91.10        2980.00           2569          62.00       265.91
   91.13        2980.25           2573          62.00       265.91
   91.16        2980.50           2577          69.00       296.43
   91.19        2980.75           2580          64.00       274.63
   91.22        2981.00           2584          63.00       270.27
   91.25        2981.25           2587          57.00       244.12
   91.28        2981.50           2591          63.00       270.27
   91.31        2981.75           2594          66.00       283.35
   91.34        2982.00           2598          61.00       261.55
   91.38        2982.25           2601          63.00       270.27
   91.41        2982.50           2605          52.00       222.32
   91.44        2982.75           2609          63.00       270.27
   91.47        2983.00           2612          56.00       239.76
   91.50        2983.25           2616          55.00       235.40
   91.53        2983.50           2619          55.00       235.40
   91.56        2983.75           2623          67.00       287.71
   91.59        2984.00           2626          50.00       213.60
HS scan finished at 01:31:49
end
************************************************************
  HS Scan of (1) Internal mercury lamp
************************************************************
Integration time is 0.2294 seconds per sample
dh090418Reading 51.44 .94 3pr1000
************************************************************
Dead Time -------------------------  3.4E-08 
Number of Cycles Used -------------  4 
Starting Wavelength (Angstroms) ---  2950 
Final Wavelength (Angstoms) -------  2984 
Wavelength Increment (Angstroms) --  .25 
Filter Wheel #1 Position ---------- (1) Ground quartz diffuser (ND=2.32)
Filter Wheel #2 Position ---------- (1) Neutral Density 0.494



************************************************************
HS scan start time = 19:37:25
Dark Count =  .8 


Time (GMT)  Wavelength (Ang)  Step Number  Raw Counts  Counts/Second

 1178.32        2950.00           2144          72.00       310.38
 1178.51        2950.25           2147          70.00       301.66
 1178.54        2950.50           2151          74.00       319.10
 1178.57        2950.75           2155          74.00       319.10
 1178.60        2951.00           2158          67.00       288.58
 1178.63        2951.25           2162          70.00       301.66
 1178.66        2951.50           2165          70.00       301.66
 1178.69        2951.75           2169          74.00       319.10
 1178.73        2952.00           2172          73.00       314.74
 1178.76        2952.25           2176          74.00       319.10
 1178.79        2952.50           2179          74.00       319.10
 1178.82        2952.75           2183          73.00       314.74
 1178.85        2953.00           2186          77.00       332.17
 1178.88        2953.25           2190          78.00       336.53
 1178.91        2953.50           2193          75.00       323.46
 1178.94        2953.75           2197          81.00       349.61
 1178.97        2954.00           2200          74.00       319.10
 1179.00        2954.25           2204          73.00       314.74
 1179.03        2954.50           2208          69.00       297.30
 1179.06        2954.75           2211          81.00       349.61
 1179.09        2955.00           2215          78.00       336.53
 1179.12        2955.25           2218          84.00       362.69
 1179.15        2955.50           2222          71.00       306.02
 1179.18        2955.75           2225          78.00       336.53
 1179.21        2956.00           2229          76.00       327.82
 1179.24        2956.25           2232          82.00       353.97
 1179.28        2956.50           2236          87.00       375.77
 1179.31        2956.75           2239          80.00       345.25
 1179.34        2957.00           2243          81.00       349.61
 1179.37        2957.25           2246          77.00       332.17
 1179.40        2957.50           2250          80.00       345.25
 1179.43        2957.75           2254          82.00       353.97
 1179.46        2958.00           2257          89.00       384.49
 1179.49        2958.25           2261          80.00       345.25
 1179.52        2958.50           2264          92.00       397.56
 1179.55        2958.75           2268          79.00       340.89
 1179.58        2959.00           2271          86.00       371.41
 1179.61        2959.25           2275          84.00       362.69
 1179.64        2959.50           2278          90.00       388.85
 1179.67        2959.75           2282         116.00       502.19
 1179.70        2960.00           2285          98.00       423.72
 1179.73        2960.25           2289         102.00       441.16
 1179.76        2960.50           2293          95.00       410.64
 1179.80        2960.75           2296          96.00       415.00
 1179.83        2961.00           2300         152.00       659.13
 1179.86        2961.25           2303         344.00      1496.15
 1179.89        2961.50           2307        1112.00      4844.74
 1179.92        2961.75           2310        1816.00      7914.95
 1179.95        2962.00           2314        3024.00     13184.64
 1179.98        2962.25           2317        3860.00     16832.65
 1180.01        2962.50           2321        5070.00     22114.27
 1180.04        2962.75           2324        6177.00     26947.96
 1180.07        2963.00           2328        7471.00     32600.20
 1180.10        2963.25           2331        8423.00     36759.95
 1180.13        2963.50           2335        9927.00     43334.08
 1180.16        2963.75           2339       10805.00     47173.25
 1180.19        2964.00           2342       11903.00     51975.82
 1180.22        2964.25           2346       13047.00     56981.26
 1180.25        2964.50           2349       14440.00     63078.47
 1180.28        2964.75           2353       15443.00     67470.21
 1180.32        2965.00           2356       16335.00     71377.03
 1180.35        2965.25           2360       17313.00     75661.69
 1180.38        2965.50           2363       18895.00     82595.18
 1180.41        2965.75           2367       19821.00     86655.11
 1180.44        2966.00           2370       20768.00     90808.28
 1180.47        2966.25           2374       21579.00     94365.93
 1180.50        2966.50           2378       22350.00     97748.91
 1180.53        2966.75           2381       22127.00     96770.36
 1180.56        2967.00           2385       22480.00     98319.40
 1180.59        2967.25           2388       22225.00     97200.39
 1180.62        2967.50           2392       22449.00     98183.36
 1180.65        2967.75           2395       22180.00     97002.92
 1180.68        2968.00           2399       21804.00     95353.09
 1180.71        2968.25           2402       20828.00     91071.44
 1180.74        2968.50           2406       19518.00     85326.52
 1180.77        2968.75           2409       18077.00     79009.70
 1180.80        2969.00           2413       17661.00     77186.61
 1180.84        2969.25           2417       15835.00     69186.97
 1180.87        2969.50           2420       14957.00     65342.05
 1180.90        2969.75           2424       13752.00     60066.75
 1180.93        2970.00           2427       12508.00     54622.72
 1180.96        2970.25           2431       11397.00     49762.42
 1180.99        2970.50           2434       10284.00     44894.99
 1181.02        2970.75           2438        8972.00     39159.34
 1181.05        2971.00           2441        7950.00     34693.04
 1181.08        2971.25           2445        6717.00     29306.43
 1181.11        2971.50           2449        5201.00     22686.20
 1181.14        2971.75           2452        4230.00     18447.49
 1181.17        2972.00           2456        2950.00     12861.77
 1181.20        2972.25           2459        2101.00      9158.04
 1181.23        2972.50           2463        1095.00      4770.61
 1181.26        2972.75           2466         547.00      2381.19
 1181.29        2973.00           2470         194.00       842.22
 1181.32        2973.25           2473         157.00       680.92
 1181.36        2973.50           2477          97.00       419.36
 1181.39        2973.75           2481         106.00       458.59
 1181.42        2974.00           2484         122.00       528.34
 1181.45        2974.25           2488          86.00       371.41
 1181.48        2974.50           2491          88.00       380.13
 1181.51        2974.75           2495          84.00       362.69
 1181.54        2975.00           2498          79.00       340.89
 1181.57        2975.25           2502          79.00       340.89
 1181.60        2975.50           2505          90.00       388.85
 1181.63        2975.75           2509          85.00       367.05
 1181.66        2976.00           2512          87.00       375.77
 1181.69        2976.25           2516          90.00       388.85
 1181.72        2976.50           2520          88.00       380.13
 1181.75        2976.75           2523          83.00       358.33
 1181.78        2977.00           2527          91.00       393.20
 1181.81        2977.25           2530          78.00       336.53
 1181.84        2977.50           2534          74.00       319.10
 1181.88        2977.75           2537          69.00       297.30
 1181.91        2978.00           2541          79.00       340.89
 1181.94        2978.25           2544          75.00       323.46
 1181.97        2978.50           2548          73.00       314.74
 1182.00        2978.75           2552          78.00       336.53
 1182.03        2979.00           2555          79.00       340.89
 1182.06        2979.25           2559          73.00       314.74
 1182.09        2979.50           2562          71.00       306.02
 1182.12        2979.75           2566          67.00       288.58
 1182.15        2980.00           2569          71.00       306.02
 1182.18        2980.25           2573          76.00       327.82
 1182.21        2980.50           2577          72.00       310.38
 1182.24        2980.75           2580          71.00       306.02
 1182.27        2981.00           2584          74.00       319.10
 1182.30        2981.25           2587          70.00       301.66
 1182.33        2981.50           2591          72.00       310.38
 1182.36        2981.75           2594          76.00       327.82
 1182.40        2982.00           2598          71.00       306.02
 1182.43        2982.25           2601          68.00       292.94
 1182.46        2982.50           2605          69.00       297.30
 1182.49        2982.75           2609          60.00       258.07
 1182.52        2983.00           2612          61.00       262.43
 1182.55        2983.25           2616          61.00       262.43
 1182.58        2983.50           2619          62.00       266.79
 1182.61        2983.75           2623          68.00       292.94
 1182.64        2984.00           2626          67.00       288.58
HS scan finished at 19:42:52
end
