************************************************************
  HS Scan of (1) Internal mercury lamp
************************************************************
Integration time is 0.2294 seconds per sample
dh310319Reading 51.44 .94 3pr1000
************************************************************
Dead Time -------------------------  3.4E-08 
Number of Cycles Used -------------  4 
Starting Wavelength (Angstroms) ---  2950 
Final Wavelength (Angstoms) -------  2984 
Wavelength Increment (Angstroms) --  .25 
Filter Wheel #1 Position ---------- (1) Ground quartz diffuser (ND=2.32)
Filter Wheel #2 Position ---------- (1) Neutral Density 0.494



************************************************************
HS scan start time = 02:24:21
Dark Count =  .8 


Time (GMT)  Wavelength (Ang)  Step Number  Raw Counts  Counts/Second

  145.24        2950.00           2144        1656.00      7217.12
  145.43        2950.25           2147        1674.00      7295.62
  145.46        2950.50           2151        1639.00      7142.97
  145.49        2950.75           2155        1638.00      7138.61
  145.53        2951.00           2158        1640.00      7147.33
  145.56        2951.25           2162        1679.00      7317.43
  145.59        2951.50           2165        1663.00      7247.64
  145.62        2951.75           2169        1643.00      7160.42
  145.65        2952.00           2172        1673.00      7291.26
  145.68        2952.25           2176        1704.00      7426.46
  145.71        2952.50           2179        1695.00      7387.21
  145.74        2952.75           2183        1707.00      7439.55
  145.78        2953.00           2186        1684.00      7339.23
  145.81        2953.25           2190        1682.00      7330.51
  145.84        2953.50           2193        1694.00      7382.85
  145.87        2953.75           2197        1742.00      7592.20
  145.90        2954.00           2200        1703.00      7422.10
  145.93        2954.25           2204        1727.00      7526.77
  145.96        2954.50           2208        1760.00      7670.70
  145.99        2954.75           2211        1745.00      7605.28
  146.02        2955.00           2215        1787.00      7788.46
  146.05        2955.25           2218        1766.00      7696.87
  146.08        2955.50           2222        1746.00      7609.64
  146.11        2955.75           2225        1766.00      7696.87
  146.15        2956.00           2229        1769.00      7709.95
  146.18        2956.25           2232        1811.00      7893.14
  146.21        2956.50           2236        1853.00      8076.32
  146.24        2956.75           2239        1835.00      7997.82
  146.27        2957.00           2243        1837.00      8006.54
  146.30        2957.25           2246        1834.00      7993.45
  146.33        2957.50           2250        1852.00      8071.96
  146.36        2957.75           2254        1883.00      8207.17
  146.39        2958.00           2257        1917.00      8355.47
  146.42        2958.25           2261        1907.00      8311.85
  146.45        2958.50           2264        1910.00      8324.94
  146.48        2958.75           2268        2002.00      8726.22
  146.51        2959.00           2271        1966.00      8569.19
  146.54        2959.25           2275        2000.00      8717.49
  146.57        2959.50           2278        2059.00      8974.84
  146.60        2959.75           2282        2058.00      8970.48
  146.64        2960.00           2285        2064.00      8996.65
  146.67        2960.25           2289        2150.00      9371.77
  146.70        2960.50           2293        2202.00      9598.60
  146.73        2960.75           2296        2233.00      9733.82
  146.76        2961.00           2300        2456.00     10706.60
  146.79        2961.25           2303        3434.00     14973.62
  146.82        2961.50           2307       10554.00     46075.62
  146.85        2961.75           2310       22193.00     97059.96
  146.88        2962.00           2314       43596.00    191280.10
  146.91        2962.25           2317       63797.00    280767.80
  146.94        2962.50           2321       89577.00    395770.30
  146.97        2962.75           2324      108376.00    480205.70
  147.00        2963.00           2328      134946.00    600384.30
  147.03        2963.25           2331      155382.00    693498.10
  147.06        2963.50           2335      183366.00    821979.40
  147.09        2963.75           2339      211004.00    949999.40
  147.12        2964.00           2342      228635.00   1032263.00
  147.15        2964.25           2346      253941.00   1151161.00
  147.19        2964.50           2349      275004.00   1250878.00
  147.22        2964.75           2353      302458.00   1381897.00
  147.25        2965.00           2356      321714.00   1474511.00
  147.28        2965.25           2360      343883.00   1581883.00
  147.31        2965.50           2363      360593.00   1663351.00
  147.34        2965.75           2367      385259.00   1784464.00
  147.37        2966.00           2370      404938.00   1881835.00
  147.40        2966.25           2374      427900.00   1996298.00
  147.43        2966.50           2378      442982.00   2071986.00
  147.46        2966.75           2381      446802.00   2091221.00
  147.49        2967.00           2385      449708.00   2105871.00
  147.52        2967.25           2388      449618.00   2105417.00
  147.55        2967.50           2392      445701.00   2085674.00
  147.58        2967.75           2395      448369.00   2099119.00
  147.61        2968.00           2399      443406.00   2074120.00
  147.64        2968.25           2402      432375.00   2018714.00
  147.67        2968.50           2406      409760.00   1905796.00
  147.71        2968.75           2409      391804.00   1816775.00
  147.74        2969.00           2413      366574.00   1692624.00
  147.77        2969.25           2417      344000.00   1582452.00
  147.80        2969.50           2420      325121.00   1490960.00
  147.83        2969.75           2424      298676.00   1363777.00
  147.86        2970.00           2427      277077.00   1260729.00
  147.89        2970.25           2431      247460.00   1120617.00
  147.92        2970.50           2434      228910.00   1033549.00
  147.95        2970.75           2438      202766.00    911722.20
  147.98        2971.00           2441      182150.00    816372.60
  148.01        2971.25           2445      153753.00    686053.90
  148.04        2971.50           2449      124481.00    552931.80
  148.07        2971.75           2452      104191.00    461366.50
  148.10        2972.00           2456       78643.00    346884.10
  148.13        2972.25           2459       58957.00    259277.40
  148.16        2972.50           2463       33852.00    148310.10
  148.19        2972.75           2466       17379.00     75950.88
  148.23        2973.00           2470        5820.00     25388.95
  148.26        2973.25           2473        3116.00     13586.05
  148.29        2973.50           2477        2390.00     10418.69
  148.32        2973.75           2481        2253.00      9821.06
  148.35        2974.00           2484        2241.00      9768.72
  148.38        2974.25           2488        2141.00      9332.52
  148.41        2974.50           2491        2124.00      9258.36
  148.44        2974.75           2495        2052.00      8944.31
  148.47        2975.00           2498        2075.00      9044.63
  148.50        2975.25           2502        2034.00      8865.79
  148.53        2975.50           2505        1932.00      8420.89
  148.56        2975.75           2509        1984.00      8647.70
  148.59        2976.00           2512        1957.00      8529.94
  148.62        2976.25           2516        1968.00      8577.92
  148.65        2976.50           2520        1876.00      8176.64
  148.68        2976.75           2523        1903.00      8294.41
  148.71        2977.00           2527        1851.00      8067.60
  148.75        2977.25           2530        1829.00      7971.65
  148.78        2977.50           2534        1791.00      7805.91
  148.81        2977.75           2537        1787.00      7788.46
  148.84        2978.00           2541        1801.00      7849.52
  148.87        2978.25           2544        1828.00      7967.28
  148.90        2978.50           2548        1749.00      7622.73
  148.93        2978.75           2552        1738.00      7574.75
  148.96        2979.00           2555        1715.00      7474.44
  148.99        2979.25           2559        1704.00      7426.46
  149.02        2979.50           2562        1730.00      7539.86
  149.05        2979.75           2566        1691.00      7369.76
  149.08        2980.00           2569        1646.00      7173.50
  149.11        2980.25           2573        1650.00      7190.95
  149.14        2980.50           2577        1633.00      7116.80
  149.17        2980.75           2580        1653.00      7204.03
  149.20        2981.00           2584        1618.00      7051.39
  149.23        2981.25           2587        1637.00      7134.25
  149.27        2981.50           2591        1637.00      7134.25
  149.30        2981.75           2594        1633.00      7116.80
  149.33        2982.00           2598        1581.00      6890.02
  149.36        2982.25           2601        1621.00      7064.47
  149.39        2982.50           2605        1638.00      7138.61
  149.42        2982.75           2609        1611.00      7020.86
  149.45        2983.00           2612        1579.00      6881.30
  149.48        2983.25           2616        1564.00      6815.88
  149.51        2983.50           2619        1593.00      6942.35
  149.54        2983.75           2623        1562.00      6807.16
  149.57        2984.00           2626        1569.00      6837.68
HS scan finished at 02:29:48
end
************************************************************
  HS Scan of (1) Internal mercury lamp
************************************************************
Integration time is 0.2294 seconds per sample
dh310319Reading 51.44 .94 3.09pr1000
************************************************************
Dead Time -------------------------  3.4E-08 
Number of Cycles Used -------------  4 
Starting Wavelength (Angstroms) ---  2950 
Final Wavelength (Angstoms) -------  2984 
Wavelength Increment (Angstroms) --  .25 
Filter Wheel #1 Position ---------- (1) Ground quartz diffuser (ND=2.32)
Filter Wheel #2 Position ---------- (1) Neutral Density 0.494



************************************************************
HS scan start time = 19:37:30
Dark Count =  .9 


Time (GMT)  Wavelength (Ang)  Step Number  Raw Counts  Counts/Second

 1178.41        2950.00           2144        1578.00      6876.50
 1178.60        2950.25           2147        1564.00      6815.44
 1178.63        2950.50           2151        1608.00      7007.34
 1178.66        2950.75           2155        1597.00      6959.36
 1178.69        2951.00           2158        1560.00      6798.00
 1178.72        2951.25           2162        1582.00      6893.94
 1178.75        2951.50           2165        1611.00      7020.42
 1178.78        2951.75           2169        1589.00      6924.47
 1178.81        2952.00           2172        1579.00      6880.86
 1178.84        2952.25           2176        1594.00      6946.28
 1178.87        2952.50           2179        1616.00      7042.23
 1178.91        2952.75           2183        1644.00      7164.34
 1178.94        2953.00           2186        1628.00      7094.56
 1178.97        2953.25           2190        1628.00      7094.56
 1179.00        2953.50           2193        1635.00      7125.09
 1179.03        2953.75           2197        1618.00      7050.95
 1179.06        2954.00           2200        1600.00      6972.45
 1179.09        2954.25           2204        1681.00      7325.71
 1179.12        2954.50           2208        1653.00      7203.60
 1179.15        2954.75           2211        1715.00      7474.00
 1179.18        2955.00           2215        1709.00      7447.83
 1179.21        2955.25           2218        1713.00      7465.28
 1179.24        2955.50           2222        1708.00      7443.47
 1179.27        2955.75           2225        1706.00      7434.75
 1179.30        2956.00           2229        1744.00      7600.48
 1179.33        2956.25           2232        1733.00      7552.51
 1179.36        2956.50           2236        1735.00      7561.23
 1179.39        2956.75           2239        1778.00      7748.77
 1179.43        2957.00           2243        1769.00      7709.52
 1179.46        2957.25           2246        1716.00      7478.36
 1179.49        2957.50           2250        1805.00      7866.53
 1179.52        2957.75           2254        1818.00      7923.23
 1179.55        2958.00           2257        1830.00      7975.57
 1179.58        2958.25           2261        1821.00      7936.32
 1179.61        2958.50           2264        1886.00      8219.82
 1179.64        2958.75           2268        1885.00      8215.46
 1179.67        2959.00           2271        1860.00      8106.42
 1179.70        2959.25           2275        1929.00      8407.37
 1179.73        2959.50           2278        1952.00      8507.69
 1179.76        2959.75           2282        1939.00      8450.99
 1179.79        2960.00           2285        1998.00      8708.33
 1179.82        2960.25           2289        2024.00      8821.74
 1179.85        2960.50           2293        2117.00      9227.39
 1179.88        2960.75           2296        2084.00      9083.45
 1179.91        2961.00           2300        2223.00      9689.77
 1179.95        2961.25           2303        2590.00     11290.74
 1179.98        2961.50           2307        6134.00     26759.74
 1180.01        2961.75           2310       15086.00     65906.46
 1180.04        2962.00           2314       33201.00    145443.30
 1180.07        2962.25           2317       50556.00    222049.80
 1180.10        2962.50           2321       74354.00    327752.00
 1180.13        2962.75           2324       91212.00    403094.10
 1180.16        2963.00           2328      113566.00    503602.30
 1180.19        2963.25           2331      131909.00    586596.80
 1180.22        2963.50           2335      159496.00    712314.80
 1180.25        2963.75           2339      186712.00    837417.50
 1180.28        2964.00           2342      206874.00    930796.40
 1180.31        2964.25           2346      231821.00   1047178.00
 1180.34        2964.50           2349      249992.00   1132542.00
 1180.37        2964.75           2353      274855.00   1250169.00
 1180.40        2965.00           2356      293534.00   1339177.00
 1180.43        2965.25           2360      318406.00   1458558.00
 1180.47        2965.50           2363      334997.00   1538748.00
 1180.50        2965.75           2367      359409.00   1657563.00
 1180.53        2966.00           2370      376486.00   1741270.00
 1180.56        2966.25           2374      398087.00   1847860.00
 1180.59        2966.50           2378      417259.00   1943139.00
 1180.62        2966.75           2381      425039.00   1981986.00
 1180.65        2967.00           2385      428967.00   2001639.00
 1180.68        2967.25           2388      429328.00   2003447.00
 1180.71        2967.50           2392      429092.00   2002265.00
 1180.74        2967.75           2395      429286.00   2003237.00
 1180.78        2968.00           2399      426098.00   1987282.00
 1180.81        2968.25           2402      419086.00   1952252.00
 1180.84        2968.50           2406      402275.00   1868619.00
 1180.87        2968.75           2409      385793.00   1787097.00
 1180.90        2969.00           2413      360924.00   1664969.00
 1180.93        2969.25           2417      336110.00   1544144.00
 1180.96        2969.50           2420      317280.00   1453132.00
 1180.99        2969.75           2424      291824.00   1331006.00
 1181.02        2970.00           2427      272105.00   1237112.00
 1181.05        2970.25           2431      243868.00   1103716.00
 1181.08        2970.50           2434      223779.00   1009558.00
 1181.11        2970.75           2438      199626.00    897158.60
 1181.14        2971.00           2441      179770.00    805404.90
 1181.17        2971.25           2445      154151.00    687871.90
 1181.21        2971.50           2449      127980.00    568780.00
 1181.24        2971.75           2452      109042.00    483205.50
 1181.27        2972.00           2456       84873.00    374718.10
 1181.30        2972.25           2459       65526.00    288452.00
 1181.33        2972.50           2463       39339.00    172491.20
 1181.36        2972.75           2466       21952.00     96002.04
 1181.39        2973.00           2470        7675.00     33491.04
 1181.42        2973.25           2473        3749.00     16347.80
 1181.45        2973.50           2477        2400.00     10461.87
 1181.48        2973.75           2481        2207.00      9619.97
 1181.51        2974.00           2484        2109.00      9192.50
 1181.54        2974.25           2488        2042.00      8900.25
 1181.57        2974.50           2491        2009.00      8756.31
 1181.60        2974.75           2495        1966.00      8568.76
 1181.63        2975.00           2498        1950.00      8498.97
 1181.66        2975.25           2502        1912.00      8333.22
 1181.69        2975.50           2505        1917.00      8355.03
 1181.73        2975.75           2509        1879.00      8189.29
 1181.76        2976.00           2512        1876.00      8176.20
 1181.79        2976.25           2516        1852.00      8071.53
 1181.82        2976.50           2520        1854.00      8080.25
 1181.85        2976.75           2523        1805.00      7866.53
 1181.88        2977.00           2527        1758.00      7661.54
 1181.91        2977.25           2530        1769.00      7709.52
 1181.94        2977.50           2534        1740.00      7583.04
 1181.97        2977.75           2537        1682.00      7330.07
 1182.00        2978.00           2541        1751.00      7631.01
 1182.03        2978.25           2544        1666.00      7260.29
 1182.06        2978.50           2548        1709.00      7447.83
 1182.09        2978.75           2552        1691.00      7369.33
 1182.12        2979.00           2555        1685.00      7343.16
 1182.15        2979.25           2559        1641.00      7151.26
 1182.18        2979.50           2562        1665.00      7255.93
 1182.21        2979.75           2566        1640.00      7146.90
 1182.25        2980.00           2569        1605.00      6994.25
 1182.28        2980.25           2573        1612.00      7024.78
 1182.31        2980.50           2577        1634.00      7120.73
 1182.34        2980.75           2580        1621.00      7064.03
 1182.37        2981.00           2584        1615.00      7037.87
 1182.40        2981.25           2587        1551.00      6758.75
 1182.43        2981.50           2591        1555.00      6776.19
 1182.46        2981.75           2594        1560.00      6798.00
 1182.49        2982.00           2598        1549.00      6750.02
 1182.52        2982.25           2601        1528.00      6658.44
 1182.55        2982.50           2605        1517.00      6610.47
 1182.58        2982.75           2609        1545.00      6732.58
 1182.61        2983.00           2612        1530.00      6667.16
 1182.64        2983.25           2616        1513.00      6593.02
 1182.67        2983.50           2619        1501.00      6540.69
 1182.70        2983.75           2623        1528.00      6658.44
 1182.73        2984.00           2626        1520.00      6623.55
HS scan finished at 19:42:57
end
