************************************************************
  HS Scan of (1) Internal mercury lamp
************************************************************
Integration time is 0.2294 seconds per sample
dh070419Reading 51.44 .94 2.78pr1000
************************************************************
Dead Time -------------------------  3.4E-08 
Number of Cycles Used -------------  4 
Starting Wavelength (Angstroms) ---  2950 
Final Wavelength (Angstoms) -------  2984 
Wavelength Increment (Angstroms) --  .25 
Filter Wheel #1 Position ---------- (1) Ground quartz diffuser (ND=2.32)
Filter Wheel #2 Position ---------- (1) Neutral Density 0.494



************************************************************
HS scan start time = 01:44:21
Dark Count =  .5 


Time (GMT)  Wavelength (Ang)  Step Number  Raw Counts  Counts/Second

  105.25        2950.00           2144        1694.00      7384.16
  105.45        2950.25           2147        1704.00      7427.77
  105.48        2950.50           2151        1703.00      7423.41
  105.51        2950.75           2155        1720.00      7497.55
  105.54        2951.00           2158        1677.00      7310.01
  105.57        2951.25           2162        1743.00      7597.86
  105.60        2951.50           2165        1711.00      7458.30
  105.63        2951.75           2169        1719.00      7493.19
  105.66        2952.00           2172        1750.00      7628.40
  105.69        2952.25           2176        1751.00      7632.76
  105.72        2952.50           2179        1706.00      7436.49
  105.75        2952.75           2183        1734.00      7558.61
  105.78        2953.00           2186        1739.00      7580.42
  105.81        2953.25           2190        1723.00      7510.64
  105.84        2953.50           2193        1772.00      7724.35
  105.87        2953.75           2197        1783.00      7772.32
  105.90        2954.00           2200        1797.00      7833.39
  105.93        2954.25           2204        1809.00      7885.72
  105.97        2954.50           2208        1753.00      7641.48
  106.00        2954.75           2211        1778.00      7750.52
  106.03        2955.00           2215        1780.00      7759.24
  106.06        2955.25           2218        1801.00      7850.83
  106.09        2955.50           2222        1824.00      7951.15
  106.12        2955.75           2225        1846.00      8047.10
  106.15        2956.00           2229        1826.00      7959.87
  106.18        2956.25           2232        1834.00      7994.76
  106.21        2956.50           2236        1868.00      8143.06
  106.24        2956.75           2239        1851.00      8068.91
  106.27        2957.00           2243        1867.00      8138.70
  106.30        2957.25           2246        1914.00      8343.69
  106.33        2957.50           2250        1943.00      8470.18
  106.36        2957.75           2254        1934.00      8430.93
  106.39        2958.00           2257        1930.00      8413.48
  106.42        2958.25           2261        1940.00      8457.10
  106.45        2958.50           2264        2010.00      8762.42
  106.49        2958.75           2268        2022.00      8814.76
  106.52        2959.00           2271        2019.00      8801.68
  106.55        2959.25           2275        2065.00      9002.32
  106.58        2959.50           2278        2086.00      9093.92
  106.61        2959.75           2282        2128.00      9277.12
  106.64        2960.00           2285        2115.00      9220.41
  106.67        2960.25           2289        2157.00      9403.62
  106.70        2960.50           2293        2223.00      9691.51
  106.73        2960.75           2296        2296.00     10009.94
  106.76        2961.00           2300        2400.00     10463.62
  106.79        2961.25           2303        3135.00     13670.26
  106.82        2961.50           2307        8647.00     37740.20
  106.85        2961.75           2310       19972.00     87318.57
  106.88        2962.00           2314       39476.00    173097.30
  106.91        2962.25           2317       57133.00    251188.00
  106.94        2962.50           2321       83066.00    366641.10
  106.97        2962.75           2324      103345.00    457562.40
  107.01        2963.00           2328      131928.00    586685.00
  107.04        2963.25           2331      153279.00    683889.80
  107.07        2963.50           2335      178504.00    799576.30
  107.10        2963.75           2339      202757.00    911681.80
  107.13        2964.00           2342      222384.00   1003044.00
  107.16        2964.25           2346      250798.00   1136342.00
  107.19        2964.50           2349      270993.00   1231837.00
  107.22        2964.75           2353      296668.00   1354167.00
  107.25        2965.00           2356      313932.00   1437012.00
  107.28        2965.25           2360      338594.00   1556195.00
  107.31        2965.50           2363      355681.00   1639357.00
  107.34        2965.75           2367      377939.00   1748417.00
  107.37        2966.00           2370      396086.00   1837955.00
  107.40        2966.25           2374      417620.00   1944941.00
  107.43        2966.50           2378      434953.00   2031645.00
  107.46        2966.75           2381      440480.00   2059404.00
  107.49        2967.00           2385      442650.00   2070317.00
  107.53        2967.25           2388      443785.00   2076029.00
  107.56        2967.50           2392      442771.00   2070926.00
  107.59        2967.75           2395      441420.00   2064130.00
  107.62        2968.00           2399      437243.00   2043139.00
  107.65        2968.25           2402      425721.00   1985398.00
  107.68        2968.50           2406      404453.00   1879428.00
  107.71        2968.75           2409      388188.00   1798916.00
  107.74        2969.00           2413      365012.00   1684975.00
  107.77        2969.25           2417      341530.00   1570450.00
  107.80        2969.50           2420      323814.00   1484649.00
  107.84        2969.75           2424      297042.00   1355957.00
  107.88        2970.00           2427      275921.00   1255236.00
  107.91        2970.25           2431      248587.00   1125925.00
  107.94        2970.50           2434      228306.00   1030725.00
  107.97        2970.75           2438      202740.00    911602.90
  108.00        2971.00           2441      183812.00    824037.60
  108.03        2971.25           2445      155388.00    693526.90
  108.06        2971.50           2449      124393.00    552534.60
  108.09        2971.75           2452      103117.00    456537.10
  108.12        2972.00           2456       76440.00    337055.50
  108.15        2972.25           2459       58137.00    255640.90
  108.18        2972.50           2463       36098.00    158204.90
  108.21        2972.75           2466       20820.00     91037.68
  108.24        2973.00           2470        7286.00     31793.29
  108.27        2973.25           2473        3481.00     15180.02
  108.31        2973.50           2477        2406.00     10489.79
  108.34        2973.75           2481        2308.00     10062.29
  108.37        2974.00           2484        2224.00      9695.87
  108.40        2974.25           2488        2165.00      9438.51
  108.43        2974.50           2491        2147.00      9360.00
  108.46        2974.75           2495        2116.00      9224.78
  108.49        2975.00           2498        2076.00      9050.30
  108.52        2975.25           2502        2076.00      9050.30
  108.55        2975.50           2505        2047.00      8923.81
  108.58        2975.75           2509        2017.00      8792.95
  108.61        2976.00           2512        1958.00      8535.61
  108.64        2976.25           2516        1958.00      8535.61
  108.67        2976.50           2520        1901.00      8286.99
  108.70        2976.75           2523        1876.00      8177.95
  108.73        2977.00           2527        1903.00      8295.71
  108.76        2977.25           2530        1882.00      8204.12
  108.79        2977.50           2534        1860.00      8108.16
  108.82        2977.75           2537        1871.00      8156.14
  108.86        2978.00           2541        1822.00      7942.42
  108.89        2978.25           2544        1805.00      7868.28
  108.92        2978.50           2548        1798.00      7837.75
  108.95        2978.75           2552        1794.00      7820.30
  108.98        2979.00           2555        1773.00      7728.71
  109.01        2979.25           2559        1730.00      7541.17
  109.04        2979.50           2562        1751.00      7632.76
  109.07        2979.75           2566        1694.00      7384.16
  109.10        2980.00           2569        1716.00      7480.11
  109.13        2980.25           2573        1690.00      7366.71
  109.16        2980.50           2577        1702.00      7419.05
  109.19        2980.75           2580        1677.00      7310.01
  109.22        2981.00           2584        1631.00      7109.39
  109.25        2981.25           2587        1683.00      7336.18
  109.28        2981.50           2591        1677.00      7310.01
  109.31        2981.75           2594        1688.00      7357.99
  109.35        2982.00           2598        1640.00      7148.64
  109.38        2982.25           2601        1645.00      7170.45
  109.41        2982.50           2605        1625.00      7083.22
  109.44        2982.75           2609        1626.00      7087.58
  109.47        2983.00           2612        1625.00      7083.22
  109.50        2983.25           2616        1643.00      7161.73
  109.53        2983.50           2619        1639.00      7144.28
  109.56        2983.75           2623        1602.00      6982.91
  109.59        2984.00           2626        1595.00      6952.38
HS scan finished at 01:49:49
end
************************************************************
  HS Scan of (1) Internal mercury lamp
************************************************************
Integration time is 0.2294 seconds per sample
dh070419Reading 51.44 .94 3.25pr1000
************************************************************
Dead Time -------------------------  3.4E-08 
Number of Cycles Used -------------  4 
Starting Wavelength (Angstroms) ---  2950 
Final Wavelength (Angstoms) -------  2984 
Wavelength Increment (Angstroms) --  .25 
Filter Wheel #1 Position ---------- (1) Ground quartz diffuser (ND=2.32)
Filter Wheel #2 Position ---------- (1) Neutral Density 0.494



************************************************************
HS scan start time = 19:37:26
Dark Count =  1.6 


Time (GMT)  Wavelength (Ang)  Step Number  Raw Counts  Counts/Second

 1178.34        2950.00           2144        1393.00      6066.64
 1178.53        2950.25           2147        1376.00      5992.50
 1178.56        2950.50           2151        1364.00      5940.17
 1178.59        2950.75           2155        1393.00      6066.64
 1178.62        2951.00           2158        1367.00      5953.25
 1178.65        2951.25           2162        1371.00      5970.70
 1178.68        2951.50           2165        1357.00      5909.64
 1178.71        2951.75           2169        1380.00      6009.95
 1178.75        2952.00           2172        1390.00      6053.56
 1178.78        2952.25           2176        1389.00      6049.20
 1178.81        2952.50           2179        1412.00      6149.50
 1178.84        2952.75           2183        1406.00      6123.33
 1178.87        2953.00           2186        1405.00      6118.97
 1178.90        2953.25           2190        1430.00      6228.00
 1178.93        2953.50           2193        1385.00      6031.75
 1178.96        2953.75           2197        1392.00      6062.28
 1178.99        2954.00           2200        1444.00      6289.05
 1179.02        2954.25           2204        1448.00      6306.50
 1179.05        2954.50           2208        1422.00      6193.11
 1179.08        2954.75           2211        1445.00      6293.41
 1179.11        2955.00           2215        1435.00      6249.80
 1179.14        2955.25           2218        1403.00      6110.25
 1179.17        2955.50           2222        1482.00      6454.77
 1179.20        2955.75           2225        1521.00      6624.86
 1179.23        2956.00           2229        1485.00      6467.86
 1179.26        2956.25           2232        1437.00      6258.52
 1179.30        2956.50           2236        1498.00      6524.55
 1179.33        2956.75           2239        1504.00      6550.72
 1179.36        2957.00           2243        1506.00      6559.44
 1179.39        2957.25           2246        1544.00      6725.16
 1179.42        2957.50           2250        1602.00      6978.12
 1179.45        2957.75           2254        1540.00      6707.72
 1179.48        2958.00           2257        1570.00      6838.56
 1179.51        2958.25           2261        1565.00      6816.75
 1179.54        2958.50           2264        1655.00      7209.26
 1179.57        2958.75           2268        1639.00      7139.48
 1179.60        2959.00           2271        1620.00      7056.62
 1179.63        2959.25           2275        1646.00      7170.01
 1179.66        2959.50           2278        1659.00      7226.71
 1179.69        2959.75           2282        1722.00      7501.48
 1179.72        2960.00           2285        1758.00      7658.49
 1179.75        2960.25           2289        1781.00      7758.80
 1179.78        2960.50           2293        1801.00      7846.03
 1179.82        2960.75           2296        1845.00      8037.94
 1179.85        2961.00           2300        1935.00      8430.49
 1179.88        2961.25           2303        2197.00      9573.30
 1179.91        2961.50           2307        5062.00     22075.85
 1179.94        2961.75           2310       13317.00     58159.36
 1179.97        2962.00           2314       32122.00    140690.60
 1180.00        2962.25           2317       49146.00    215807.90
 1180.03        2962.50           2321       70726.00    311585.10
 1180.06        2962.75           2324       87291.00    385532.40
 1180.09        2963.00           2328      110737.00    490841.00
 1180.12        2963.25           2331      130347.00    579507.80
 1180.15        2963.50           2335      155526.00    694152.70
 1180.18        2963.75           2339      180161.00    807202.90
 1180.21        2964.00           2342      198525.00    892052.40
 1180.24        2964.25           2346      221307.00    998010.90
 1180.27        2964.50           2349      238515.00   1078563.00
 1180.30        2964.75           2353      264449.00   1200818.00
 1180.34        2965.00           2356      282829.00   1288096.00
 1180.37        2965.25           2360      306726.00   1402369.00
 1180.40        2965.50           2363      323662.00   1483910.00
 1180.43        2965.75           2367      344593.00   1585331.00
 1180.46        2966.00           2370      361322.00   1666912.00
 1180.49        2966.25           2374      382719.00   1771941.00
 1180.52        2966.50           2378      397395.00   1844430.00
 1180.55        2966.75           2381      403013.00   1872277.00
 1180.58        2967.00           2385      406021.00   1887209.00
 1180.61        2967.25           2388      406234.00   1888267.00
 1180.64        2967.50           2392      406683.00   1890497.00
 1180.67        2967.75           2395      405925.00   1886732.00
 1180.70        2968.00           2399      401230.00   1863433.00
 1180.73        2968.25           2402      394118.00   1828212.00
 1180.76        2968.50           2406      374818.00   1733068.00
 1180.79        2968.75           2409      357206.00   1646797.00
 1180.82        2969.00           2413      335756.00   1542424.00
 1180.86        2969.25           2417      314330.00   1438922.00
 1180.89        2969.50           2420      298712.00   1363945.00
 1180.92        2969.75           2424      277997.00   1265100.00
 1180.95        2970.00           2427      261469.00   1186717.00
 1180.98        2970.25           2431      233950.00   1057150.00
 1181.01        2970.50           2434      214317.00    965417.90
 1181.04        2970.75           2438      189043.00    848179.40
 1181.07        2971.00           2441      170751.00    763916.40
 1181.10        2971.25           2445      147969.00    659649.30
 1181.13        2971.50           2449      124618.00    553548.30
 1181.16        2971.75           2452      107660.00    476977.20
 1181.19        2972.00           2456       85949.00    379527.70
 1181.22        2972.25           2459       68782.00    302931.50
 1181.25        2972.50           2463       44261.00    194213.70
 1181.28        2972.75           2466       26304.00    115107.00
 1181.31        2973.00           2470        9063.00     39553.60
 1181.34        2973.25           2473        4238.00     18478.91
 1181.38        2973.50           2477        2362.00     10293.05
 1181.41        2973.75           2481        1956.00      8522.09
 1181.44        2974.00           2484        1868.00      8138.26
 1181.47        2974.25           2488        1806.00      7867.84
 1181.50        2974.50           2491        1797.00      7828.59
 1181.53        2974.75           2495        1754.00      7641.04
 1181.56        2975.00           2498        1736.00      7562.54
 1181.59        2975.25           2502        1763.00      7680.30
 1181.62        2975.50           2505        1641.00      7148.21
 1181.65        2975.75           2509        1618.00      7047.90
 1181.68        2976.00           2512        1607.00      6999.92
 1181.71        2976.25           2516        1626.00      7082.79
 1181.74        2976.50           2520        1585.00      6903.97
 1181.77        2976.75           2523        1550.00      6751.33
 1181.80        2977.00           2527        1556.00      6777.50
 1181.83        2977.25           2530        1586.00      6908.34
 1181.86        2977.50           2534        1542.00      6716.44
 1181.90        2977.75           2537        1489.00      6485.30
 1181.93        2978.00           2541        1508.00      6568.16
 1181.96        2978.25           2544        1517.00      6607.41
 1181.99        2978.50           2548        1448.00      6306.50
 1182.02        2978.75           2552        1465.00      6380.64
 1182.05        2979.00           2555        1421.00      6188.75
 1182.08        2979.25           2559        1424.00      6201.83
 1182.11        2979.50           2562        1459.00      6354.47
 1182.14        2979.75           2566        1409.00      6136.42
 1182.17        2980.00           2569        1392.00      6062.28
 1182.20        2980.25           2573        1383.00      6023.03
 1182.23        2980.50           2577        1373.00      5979.42
 1182.26        2980.75           2580        1388.00      6044.83
 1182.29        2981.00           2584        1379.00      6005.59
 1182.32        2981.25           2587        1362.00      5931.45
 1182.35        2981.50           2591        1378.00      6001.23
 1182.38        2981.75           2594        1395.00      6075.36
 1182.42        2982.00           2598        1318.00      5739.57
 1182.45        2982.25           2601        1334.00      5809.34
 1182.48        2982.50           2605        1355.00      5900.92
 1182.51        2982.75           2609        1305.00      5682.88
 1182.54        2983.00           2612        1324.00      5765.73
 1182.57        2983.25           2616        1320.00      5748.29
 1182.60        2983.50           2619        1310.00      5704.68
 1182.63        2983.75           2623        1307.00      5691.60
 1182.66        2984.00           2626        1309.00      5700.32
HS scan finished at 19:42:53
end
