************************************************************
  HS Scan of (1) Internal mercury lamp
************************************************************
Integration time is 0.2294 seconds per sample
dh090419Reading 51.44 .94 3.09pr1000
************************************************************
Dead Time -------------------------  3.4E-08 
Number of Cycles Used -------------  4 
Starting Wavelength (Angstroms) ---  2950 
Final Wavelength (Angstoms) -------  2984 
Wavelength Increment (Angstroms) --  .25 
Filter Wheel #1 Position ---------- (1) Ground quartz diffuser (ND=2.32)
Filter Wheel #2 Position ---------- (1) Neutral Density 0.494



************************************************************
HS scan start time = 01:28:27
Dark Count =  .9 


Time (GMT)  Wavelength (Ang)  Step Number  Raw Counts  Counts/Second

   89.35        2950.00           2144        1644.00      7164.34
   89.55        2950.25           2147        1697.00      7395.50
   89.58        2950.50           2151        1639.00      7142.54
   89.61        2950.75           2155        1625.00      7081.48
   89.64        2951.00           2158        1628.00      7094.56
   89.67        2951.25           2162        1676.00      7303.91
   89.70        2951.50           2165        1647.00      7177.43
   89.73        2951.75           2169        1663.00      7247.21
   89.76        2952.00           2172        1664.00      7251.57
   89.79        2952.25           2176        1627.00      7090.20
   89.82        2952.50           2179        1658.00      7225.40
   89.85        2952.75           2183        1669.00      7273.38
   89.88        2953.00           2186        1673.00      7290.82
   89.91        2953.25           2190        1661.00      7238.49
   89.94        2953.50           2193        1709.00      7447.83
   89.98        2953.75           2197        1722.00      7504.53
   90.01        2954.00           2200        1690.00      7364.97
   90.04        2954.25           2204        1731.00      7543.78
   90.07        2954.50           2208        1737.00      7569.95
   90.10        2954.75           2211        1734.00      7556.87
   90.13        2955.00           2215        1772.00      7722.60
   90.16        2955.25           2218        1768.00      7705.16
   90.19        2955.50           2222        1782.00      7766.22
   90.22        2955.75           2225        1815.00      7910.15
   90.25        2956.00           2229        1791.00      7805.47
   90.28        2956.25           2232        1819.00      7927.59
   90.31        2956.50           2236        1770.00      7713.88
   90.34        2956.75           2239        1870.00      8150.04
   90.37        2957.00           2243        1832.00      7984.30
   90.40        2957.25           2246        1869.00      8145.67
   90.43        2957.50           2250        1868.00      8141.31
   90.46        2957.75           2254        1925.00      8389.93
   90.49        2958.00           2257        1942.00      8464.07
   90.53        2958.25           2261        1938.00      8446.63
   90.56        2958.50           2264        1918.00      8359.39
   90.59        2958.75           2268        1966.00      8568.76
   90.62        2959.00           2271        2008.00      8751.95
   90.65        2959.25           2275        2012.00      8769.40
   90.68        2959.50           2278        2018.00      8795.57
   90.71        2959.75           2282        2053.00      8948.23
   90.74        2960.00           2285        2121.00      9244.84
   90.77        2960.25           2289        2196.00      9571.99
   90.80        2960.50           2293        2211.00      9637.42
   90.83        2960.75           2296        2224.00      9694.13
   90.86        2961.00           2300        2484.00     10828.31
   90.89        2961.25           2303        3564.00     15540.47
   90.92        2961.50           2307       11539.00     50383.09
   90.95        2961.75           2310       24260.00    106132.50
   90.98        2962.00           2314       47093.00    206731.80
   91.01        2962.25           2317       66484.00    292711.70
   91.05        2962.50           2321       92554.00    409108.50
   91.08        2962.75           2324      111419.00    493918.80
   91.11        2963.00           2328      136647.00    608111.50
   91.14        2963.25           2331      158345.00    707047.70
   91.17        2963.50           2335      190159.00    853339.40
   91.20        2963.75           2339      221652.00    999624.60
   91.23        2964.00           2342      243411.00   1101567.00
   91.26        2964.25           2346      268505.00   1220036.00
   91.29        2964.50           2349      287153.00   1308709.00
   91.32        2964.75           2353      315277.00   1443485.00
   91.35        2965.00           2356      336239.00   1544769.00
   91.38        2965.25           2360      363858.00   1679324.00
   91.41        2965.50           2363      381974.00   1768275.00
   91.44        2965.75           2367      405000.00   1882142.00
   91.47        2966.00           2370      422608.00   1969836.00
   91.50        2966.25           2374      443414.00   2074160.00
   91.53        2966.50           2378      465230.00   2184379.00
   91.57        2966.75           2381      471835.00   2217919.00
   91.60        2967.00           2385      474224.00   2230070.00
   91.63        2967.25           2388      474612.00   2232045.00
   91.66        2967.50           2392      474341.00   2230666.00
   91.69        2967.75           2395      472990.00   2223793.00
   91.72        2968.00           2399      467728.00   2197055.00
   91.75        2968.25           2402      456752.00   2141444.00
   91.78        2968.50           2406      435226.00   2033012.00
   91.81        2968.75           2409      414693.00   1930349.00
   91.84        2969.00           2413      385036.00   1783364.00
   91.87        2969.25           2417      357792.00   1649662.00
   91.90        2969.50           2420      338113.00   1553859.00
   91.93        2969.75           2424      310742.00   1421666.00
   91.96        2970.00           2427      288569.00   1315464.00
   91.99        2970.25           2431      258202.00   1171278.00
   92.02        2970.50           2434      235918.00   1066381.00
   92.06        2970.75           2438      207813.00    935160.10
   92.09        2971.00           2441      187631.00    841660.80
   92.12        2971.25           2445      159437.00    712044.80
   92.15        2971.50           2449      130701.00    581116.60
   92.18        2971.75           2452      110824.00    491236.30
   92.21        2972.00           2456       82988.00    366290.70
   92.24        2972.25           2459       61785.00    271829.90
   92.27        2972.50           2463       33353.00    146112.50
   92.30        2972.75           2466       16514.00     72160.70
   92.33        2973.00           2470        5837.00     25462.75
   92.36        2973.25           2473        3227.00     14069.94
   92.39        2973.50           2477        2463.00     10736.70
   92.42        2973.75           2481        2253.00      9820.63
   92.45        2974.00           2484        2224.00      9694.13
   92.48        2974.25           2488        2208.00      9624.34
   92.51        2974.50           2491        2148.00      9362.62
   92.54        2974.75           2495        2049.00      8930.79
   92.58        2975.00           2498        2081.00      9070.37
   92.61        2975.25           2502        2041.00      8895.89
   92.64        2975.50           2505        1993.00      8686.52
   92.67        2975.75           2509        1986.00      8655.99
   92.70        2976.00           2512        1969.00      8581.84
   92.73        2976.25           2516        1960.00      8542.59
   92.76        2976.50           2520        1888.00      8228.54
   92.79        2976.75           2523        1884.00      8211.10
   92.82        2977.00           2527        1842.00      8027.91
   92.85        2977.25           2530        1835.00      7997.38
   92.88        2977.50           2534        1807.00      7875.26
   92.91        2977.75           2537        1806.00      7870.89
   92.94        2978.00           2541        1817.00      7918.87
   92.97        2978.25           2544        1782.00      7766.22
   93.00        2978.50           2548        1734.00      7556.87
   93.03        2978.75           2552        1707.00      7439.11
   93.06        2979.00           2555        1731.00      7543.78
   93.09        2979.25           2559        1747.00      7613.57
   93.13        2979.50           2562        1729.00      7535.06
   93.16        2979.75           2566        1690.00      7364.97
   93.19        2980.00           2569        1671.00      7282.10
   93.22        2980.25           2573        1649.00      7186.15
   93.25        2980.50           2577        1652.00      7199.23
   93.28        2980.75           2580        1674.00      7295.18
   93.31        2981.00           2584        1685.00      7343.16
   93.34        2981.25           2587        1667.00      7264.65
   93.37        2981.50           2591        1629.00      7098.92
   93.40        2981.75           2594        1641.00      7151.26
   93.43        2982.00           2598        1619.00      7055.31
   93.46        2982.25           2601        1629.00      7098.92
   93.49        2982.50           2605        1606.00      6998.61
   93.52        2982.75           2609        1583.00      6898.31
   93.55        2983.00           2612        1628.00      7094.56
   93.58        2983.25           2616        1616.00      7042.23
   93.61        2983.50           2619        1594.00      6946.28
   93.65        2983.75           2623        1564.00      6815.44
   93.68        2984.00           2626        1541.00      6715.13
HS scan finished at 01:33:54
end
