************************************************************
  HS Scan of (1) Internal mercury lamp
************************************************************
Integration time is 0.2294 seconds per sample
dh070418Reading 51.44 .94 2.98pr1000
************************************************************
Dead Time -------------------------  3.4E-08 
Number of Cycles Used -------------  4 
Starting Wavelength (Angstroms) ---  2950 
Final Wavelength (Angstoms) -------  2984 
Wavelength Increment (Angstroms) --  .25 
Filter Wheel #1 Position ---------- (1) Ground quartz diffuser (ND=2.32)
Filter Wheel #2 Position ---------- (1) Neutral Density 0.494



************************************************************
HS scan start time = 01:42:40
Dark Count =  1 


Time (GMT)  Wavelength (Ang)  Step Number  Raw Counts  Counts/Second

  103.56        2950.00           2144          67.00       287.71
  103.75        2950.25           2147          76.00       326.94
  103.78        2950.50           2151          76.00       326.94
  103.81        2950.75           2155          78.00       335.66
  103.84        2951.00           2158          71.00       305.15
  103.87        2951.25           2162          71.00       305.15
  103.90        2951.50           2165          72.00       309.51
  103.94        2951.75           2169          70.00       300.79
  103.97        2952.00           2172          73.00       313.87
  104.00        2952.25           2176          69.00       296.43
  104.03        2952.50           2179          65.00       278.99
  104.06        2952.75           2183          69.00       296.43
  104.09        2953.00           2186          66.00       283.35
  104.12        2953.25           2190          69.00       296.43
  104.15        2953.50           2193          78.00       335.66
  104.19        2953.75           2197          78.00       335.66
  104.23        2954.00           2200          72.00       309.51
  104.26        2954.25           2204          74.00       318.22
  104.29        2954.50           2208          75.00       322.58
  104.32        2954.75           2211          83.00       357.46
  104.35        2955.00           2215          77.00       331.30
  104.38        2955.25           2218          78.00       335.66
  104.41        2955.50           2222          66.00       283.35
  104.44        2955.75           2225          84.00       361.82
  104.47        2956.00           2229          80.00       344.38
  104.50        2956.25           2232          78.00       335.66
  104.53        2956.50           2236          81.00       348.74
  104.56        2956.75           2239          79.00       340.02
  104.59        2957.00           2243          80.00       344.38
  104.62        2957.25           2246          85.00       366.18
  104.65        2957.50           2250          80.00       344.38
  104.68        2957.75           2254          84.00       361.82
  104.71        2958.00           2257          81.00       348.74
  104.75        2958.25           2261          84.00       361.82
  104.78        2958.50           2264          82.00       353.10
  104.81        2958.75           2268          80.00       344.38
  104.84        2959.00           2271          95.00       409.77
  104.87        2959.25           2275          86.00       370.54
  104.90        2959.50           2278          89.00       383.61
  104.93        2959.75           2282          88.00       379.26
  104.96        2960.00           2285          89.00       383.61
  104.99        2960.25           2289          90.00       387.97
  105.02        2960.50           2293          96.00       414.13
  105.05        2960.75           2296         161.00       697.49
  105.08        2961.00           2300         128.00       553.63
  105.11        2961.25           2303         177.00       767.24
  105.14        2961.50           2307         607.00      2641.91
  105.17        2961.75           2310        1305.00      5685.49
  105.20        2962.00           2314        2390.00     10417.81
  105.23        2962.25           2317        3300.00     14388.03
  105.27        2962.50           2321        4678.00     20402.12
  105.30        2962.75           2324        5734.00     25012.55
  105.33        2963.00           2328        7104.00     30996.03
  105.36        2963.25           2331        8072.00     35225.25
  105.39        2963.50           2335        9284.00     40522.22
  105.42        2963.75           2339       10701.00     46717.57
  105.45        2964.00           2342       11872.00     51839.33
  105.48        2964.25           2346       13537.00     59124.84
  105.51        2964.50           2349       14304.00     62482.21
  105.54        2964.75           2353       15779.00     68940.84
  105.57        2965.00           2356       17113.00     74784.51
  105.60        2965.25           2360       18374.00     80310.54
  105.63        2965.50           2363       19130.00     83624.53
  105.66        2965.75           2367       20333.00     88899.52
  105.69        2966.00           2370       21268.00     93000.68
  105.72        2966.25           2374       22467.00     98261.47
  105.75        2966.50           2378       23141.00    101219.60
  105.79        2966.75           2381       23007.00    100631.40
  105.82        2967.00           2385       23040.00    100776.30
  105.85        2967.25           2388       23178.00    101382.00
  105.88        2967.50           2392       23381.00    102273.10
  105.91        2967.75           2395       22977.00    100499.80
  105.94        2968.00           2399       22632.00     98985.59
  105.97        2968.25           2402       21574.00     94343.11
  106.00        2968.50           2406       20110.00     87921.55
  106.03        2968.75           2409       18960.00     82879.26
  106.06        2969.00           2413       17425.00     76151.58
  106.09        2969.25           2417       16224.00     70889.93
  106.12        2969.50           2420       15456.00     67526.26
  106.15        2969.75           2424       14563.00     63616.10
  106.18        2970.00           2427       13279.00     57995.67
  106.21        2970.25           2431       11810.00     51568.11
  106.24        2970.50           2434       10506.00     45864.84
  106.27        2970.75           2438        9239.00     40325.52
  106.31        2971.00           2441        8343.00     36409.47
  106.34        2971.25           2445        7059.00     30799.46
  106.37        2971.50           2449        5664.00     24706.89
  106.40        2971.75           2452        4647.00     20266.79
  106.43        2972.00           2456        3319.00     14470.94
  106.46        2972.25           2459        2448.00     10670.83
  106.49        2972.50           2463        1356.00      5907.90
  106.52        2972.75           2466         635.00      2763.99
  106.55        2973.00           2470         212.00       919.82
  106.58        2973.25           2473         149.00       645.18
  106.61        2973.50           2477         109.00       470.80
  106.64        2973.75           2481         119.00       514.39
  106.67        2974.00           2484          93.00       401.05
  106.70        2974.25           2488          96.00       414.13
  106.73        2974.50           2491          87.00       374.90
  106.76        2974.75           2495          92.00       396.69
  106.79        2975.00           2498          88.00       379.26
  106.83        2975.25           2502          90.00       387.97
  106.86        2975.50           2505          81.00       348.74
  106.89        2975.75           2509          84.00       361.82
  106.92        2976.00           2512          84.00       361.82
  106.95        2976.25           2516          82.00       353.10
  106.98        2976.50           2520          85.00       366.18
  107.01        2976.75           2523          82.00       353.10
  107.04        2977.00           2527          80.00       344.38
  107.07        2977.25           2530          78.00       335.66
  107.10        2977.50           2534          78.00       335.66
  107.13        2977.75           2537          77.00       331.30
  107.16        2978.00           2541          77.00       331.30
  107.19        2978.25           2544          75.00       322.58
  107.22        2978.50           2548          73.00       313.87
  107.25        2978.75           2552          67.00       287.71
  107.28        2979.00           2555          73.00       313.87
  107.31        2979.25           2559          71.00       305.15
  107.35        2979.50           2562          70.00       300.79
  107.38        2979.75           2566          70.00       300.79
  107.41        2980.00           2569          73.00       313.87
  107.44        2980.25           2573          75.00       322.58
  107.47        2980.50           2577          72.00       309.51
  107.50        2980.75           2580          64.00       274.63
  107.53        2981.00           2584          73.00       313.87
  107.56        2981.25           2587          67.00       287.71
  107.59        2981.50           2591          69.00       296.43
  107.62        2981.75           2594          67.00       287.71
  107.65        2982.00           2598          70.00       300.79
  107.68        2982.25           2601          70.00       300.79
  107.71        2982.50           2605          64.00       274.63
  107.74        2982.75           2609          63.00       270.27
  107.77        2983.00           2612          70.00       300.79
  107.80        2983.25           2616          68.00       292.07
  107.83        2983.50           2619          67.00       287.71
  107.87        2983.75           2623          68.00       292.07
  107.90        2984.00           2626          65.00       278.99
HS scan finished at 01:48:07
end
************************************************************
  HS Scan of (1) Internal mercury lamp
************************************************************
Integration time is 0.2294 seconds per sample
dh070418Reading 51.44 .94 3.37pr1000
************************************************************
Dead Time -------------------------  3.4E-08 
Number of Cycles Used -------------  4 
Starting Wavelength (Angstroms) ---  2950 
Final Wavelength (Angstoms) -------  2984 
Wavelength Increment (Angstroms) --  .25 
Filter Wheel #1 Position ---------- (1) Ground quartz diffuser (ND=2.32)
Filter Wheel #2 Position ---------- (1) Neutral Density 0.494



************************************************************
HS scan start time = 19:37:24
Dark Count =  2.2 


Time (GMT)  Wavelength (Ang)  Step Number  Raw Counts  Counts/Second

 1178.29        2950.00           2144          69.00       291.20
 1178.48        2950.25           2147          66.00       278.12
 1178.51        2950.50           2151          70.00       295.56
 1178.54        2950.75           2155          57.00       238.89
 1178.57        2951.00           2158          62.00       260.68
 1178.60        2951.25           2162          66.00       278.12
 1178.64        2951.50           2165          70.00       295.56
 1178.67        2951.75           2169          62.00       260.68
 1178.70        2952.00           2172          65.00       273.76
 1178.73        2952.25           2176          71.00       299.92
 1178.76        2952.50           2179          68.00       286.84
 1178.79        2952.75           2183          67.00       282.48
 1178.82        2953.00           2186          67.00       282.48
 1178.85        2953.25           2190          69.00       291.20
 1178.88        2953.50           2193          70.00       295.56
 1178.91        2953.75           2197          66.00       278.12
 1178.94        2954.00           2200          75.00       317.35
 1178.97        2954.25           2204          72.00       304.28
 1179.00        2954.50           2208          70.00       295.56
 1179.03        2954.75           2211          68.00       286.84
 1179.06        2955.00           2215          70.00       295.56
 1179.09        2955.25           2218          67.00       282.48
 1179.12        2955.50           2222          74.00       312.99
 1179.16        2955.75           2225          73.00       308.63
 1179.19        2956.00           2229          72.00       304.28
 1179.22        2956.25           2232          77.00       326.07
 1179.25        2956.50           2236          75.00       317.35
 1179.28        2956.75           2239          75.00       317.35
 1179.31        2957.00           2243          75.00       317.35
 1179.34        2957.25           2246          73.00       308.63
 1179.37        2957.50           2250          74.00       312.99
 1179.40        2957.75           2254          79.00       334.79
 1179.43        2958.00           2257          72.00       304.28
 1179.46        2958.25           2261          80.00       339.15
 1179.49        2958.50           2264          79.00       334.79
 1179.52        2958.75           2268          81.00       343.51
 1179.55        2959.00           2271          82.00       347.87
 1179.58        2959.25           2275          85.00       360.95
 1179.61        2959.50           2278          89.00       378.38
 1179.64        2959.75           2282          81.00       343.51
 1179.68        2960.00           2285         108.00       461.21
 1179.71        2960.25           2289          91.00       387.10
 1179.74        2960.50           2293          95.00       404.54
 1179.77        2960.75           2296          89.00       378.38
 1179.80        2961.00           2300         124.00       530.96
 1179.83        2961.25           2303         305.00      1320.02
 1179.86        2961.50           2307        1036.00      4507.23
 1179.89        2961.75           2310        1818.00      7917.56
 1179.92        2962.00           2314        3048.00     13283.24
 1179.95        2962.25           2317        3915.00     17066.57
 1179.98        2962.50           2321        5111.00     22287.15
 1180.01        2962.75           2324        6194.00     27016.09
 1180.04        2963.00           2328        7612.00     33210.10
 1180.07        2963.25           2331        8477.00     36989.83
 1180.10        2963.50           2335        9870.00     43078.75
 1180.13        2963.75           2339       11231.00     49030.23
 1180.18        2964.00           2342       12145.00     53028.39
 1180.21        2964.25           2346       13652.00     59622.92
 1180.24        2964.50           2349       14640.00     63947.96
 1180.27        2964.75           2353       15930.00     69596.93
 1180.30        2965.00           2356       17099.00     74717.93
 1180.33        2965.25           2360       18342.00     80165.02
 1180.36        2965.50           2363       19177.00     83825.31
 1180.39        2965.75           2367       20672.00     90381.06
 1180.42        2966.00           2370       21510.00     94057.07
 1180.46        2966.25           2374       22419.00     98045.56
 1180.49        2966.50           2378       22959.00    100415.50
 1180.52        2966.75           2381       23092.00    100999.30
 1180.55        2967.00           2385       23150.00    101253.80
 1180.58        2967.25           2388       23118.00    101113.40
 1180.61        2967.50           2392       23091.00    100994.90
 1180.64        2967.75           2395       22992.00    100560.30
 1180.67        2968.00           2399       22111.00     96694.02
 1180.70        2968.25           2402       21097.00     92245.28
 1180.73        2968.50           2406       19785.00     86491.12
 1180.76        2968.75           2409       18909.00     82650.43
 1180.79        2969.00           2413       17846.00     77991.21
 1180.82        2969.25           2417       16563.00     72369.66
 1180.85        2969.50           2420       15734.00     68738.50
 1180.88        2969.75           2424       14351.00     62682.71
 1180.91        2970.00           2427       13279.00     57990.43
 1180.94        2970.25           2431       11742.00     51265.39
 1180.98        2970.50           2434       10688.00     46655.47
 1181.01        2970.75           2438        9337.00     40748.66
 1181.04        2971.00           2441        8370.00     36522.22
 1181.07        2971.25           2445        7138.00     31139.32
 1181.10        2971.50           2449        5931.00     25867.55
 1181.13        2971.75           2452        4819.00     21012.39
 1181.16        2972.00           2456        3511.00     15303.52
 1181.19        2972.25           2459        2552.00     11119.29
 1181.22        2972.50           2463        1245.00      5418.61
 1181.25        2972.75           2466         626.00      2719.52
 1181.28        2973.00           2470         210.00       905.87
 1181.31        2973.25           2473         136.00       583.27
 1181.34        2973.50           2477         117.00       500.44
 1181.37        2973.75           2481         122.00       522.24
 1181.40        2974.00           2484         100.00       426.34
 1181.43        2974.25           2488          98.00       417.62
 1181.46        2974.50           2491          95.00       404.54
 1181.49        2974.75           2495          91.00       387.10
 1181.53        2975.00           2498          85.00       360.95
 1181.56        2975.25           2502          88.00       374.02
 1181.59        2975.50           2505          87.00       369.66
 1181.62        2975.75           2509          83.00       352.23
 1181.65        2976.00           2512          81.00       343.51
 1181.68        2976.25           2516          81.00       343.51
 1181.71        2976.50           2520          81.00       343.51
 1181.74        2976.75           2523          76.00       321.71
 1181.77        2977.00           2527          84.00       356.59
 1181.80        2977.25           2530          85.00       360.95
 1181.83        2977.50           2534          70.00       295.56
 1181.86        2977.75           2537          82.00       347.87
 1181.89        2978.00           2541          75.00       317.35
 1181.92        2978.25           2544          73.00       308.63
 1181.95        2978.50           2548          69.00       291.20
 1181.98        2978.75           2552          80.00       339.15
 1182.01        2979.00           2555          72.00       304.28
 1182.05        2979.25           2559          72.00       304.28
 1182.08        2979.50           2562          72.00       304.28
 1182.11        2979.75           2566          73.00       308.63
 1182.14        2980.00           2569          73.00       308.63
 1182.17        2980.25           2573          79.00       334.79
 1182.20        2980.50           2577          70.00       295.56
 1182.23        2980.75           2580          77.00       326.07
 1182.26        2981.00           2584          68.00       286.84
 1182.29        2981.25           2587          67.00       282.48
 1182.32        2981.50           2591          70.00       295.56
 1182.35        2981.75           2594          64.00       269.40
 1182.38        2982.00           2598          69.00       291.20
 1182.41        2982.25           2601          62.00       260.68
 1182.44        2982.50           2605          59.00       247.60
 1182.47        2982.75           2609          66.00       278.12
 1182.50        2983.00           2612          73.00       308.63
 1182.53        2983.25           2616          70.00       295.56
 1182.57        2983.50           2619          64.00       269.40
 1182.60        2983.75           2623          70.00       295.56
 1182.63        2984.00           2626          71.00       299.92
HS scan finished at 19:42:51
end
