************************************************************
  HS Scan of 
************************************************************
Integration time is 0.2294 seconds per sample
dh310317Reading 51.44 .94 3.11pr1000
************************************************************
Dead Time -------------------------  3.4E-08 
Number of Cycles Used -------------  4 
Starting Wavelength (Angstroms) ---  2950 
Final Wavelength (Angstoms) -------  2984 
Wavelength Increment (Angstroms) --  .25 
Filter Wheel #1 Position ---------- (1) Ground quartz diffuser (ND=2.32)
Filter Wheel #2 Position ---------- (1) Neutral Density 0.494



************************************************************
HS scan start time = 02:22:03
Dark Count =  1.2 


Time (GMT)  Wavelength (Ang)  Step Number  Raw Counts  Counts/Second

  142.95        2950.00           2144         807.00      3513.06
  143.15        2950.25           2147         793.00      3452.02
  143.18        2950.50           2151         797.00      3469.46
  143.21        2950.75           2155         827.00      3600.27
  143.24        2951.00           2158         789.00      3434.58
  143.27        2951.25           2162         817.00      3556.66
  143.30        2951.50           2165         784.00      3412.78
  143.33        2951.75           2169         787.00      3425.86
  143.36        2952.00           2172         806.00      3508.70
  143.39        2952.25           2176         798.00      3473.82
  143.42        2952.50           2179         826.00      3595.91
  143.45        2952.75           2183         797.00      3469.46
  143.48        2953.00           2186         850.00      3700.55
  143.51        2953.25           2190         798.00      3473.82
  143.54        2953.50           2193         839.00      3652.59
  143.57        2953.75           2197         826.00      3595.91
  143.60        2954.00           2200         844.00      3674.39
  143.63        2954.25           2204         846.00      3683.11
  143.66        2954.50           2208         845.00      3678.75
  143.70        2954.75           2211         850.00      3700.55
  143.73        2955.00           2215         883.00      3844.44
  143.76        2955.25           2218         916.00      3988.34
  143.79        2955.50           2222         880.00      3831.36
  143.82        2955.75           2225         846.00      3683.11
  143.85        2956.00           2229         857.00      3731.07
  143.88        2956.25           2232         888.00      3866.25
  143.91        2956.50           2236         898.00      3909.85
  143.94        2956.75           2239         901.00      3922.93
  143.97        2957.00           2243         897.00      3905.49
  144.00        2957.25           2246         929.00      4045.02
  144.03        2957.50           2250         910.00      3962.17
  144.06        2957.75           2254         927.00      4036.30
  144.09        2958.00           2257         933.00      4062.46
  144.12        2958.25           2261         966.00      4206.36
  144.15        2958.50           2264         968.00      4215.08
  144.18        2958.75           2268         993.00      4324.09
  144.22        2959.00           2271        1015.00      4420.02
  144.25        2959.25           2275        1011.00      4402.58
  144.28        2959.50           2278        1025.00      4463.62
  144.31        2959.75           2282        1074.00      4677.29
  144.34        2960.00           2285        1027.00      4472.35
  144.38        2960.25           2289        1048.00      4563.92
  144.41        2960.50           2293        1141.00      4969.45
  144.44        2960.75           2296        1148.00      4999.98
  144.48        2961.00           2300        1270.00      5531.99
  144.51        2961.25           2303        1720.00      7494.50
  144.54        2961.50           2307        6058.00     26426.52
  144.57        2961.75           2310       12710.00     55504.83
  144.60        2962.00           2314       24619.00    107707.60
  144.63        2962.25           2317       35042.00    153549.40
  144.66        2962.50           2321       50307.00    220946.50
  144.69        2962.75           2324       62568.00    275306.00
  144.72        2963.00           2328       79532.00    350850.90
  144.75        2963.25           2331       91802.00    405736.60
  144.78        2963.50           2335      107544.00    476456.60
  144.81        2963.75           2339      122318.00    543141.10
  144.84        2964.00           2342      133979.00    595991.20
  144.87        2964.25           2346      149960.00    668733.50
  144.90        2964.50           2349      161508.00    721525.10
  144.93        2964.75           2353      176418.00    789971.20
  144.96        2965.00           2356      186648.00    837120.80
  145.00        2965.25           2360      200973.00    903402.70
  145.03        2965.50           2363      211144.00    950648.90
  145.06        2965.75           2367      225677.00   1018427.00
  145.09        2966.00           2370      236852.00   1070761.00
  145.12        2966.25           2374      250002.00   1132588.00
  145.15        2966.50           2378      259143.00   1175722.00
  145.18        2966.75           2381      261584.00   1187263.00
  145.21        2967.00           2385      262789.00   1192964.00
  145.24        2967.25           2388      262240.00   1190366.00
  145.27        2967.50           2392      262650.00   1192306.00
  145.30        2967.75           2395      262035.00   1189396.00
  145.33        2968.00           2399      258803.00   1174116.00
  145.36        2968.25           2402      251279.00   1138606.00
  145.39        2968.50           2406      238151.00   1076856.00
  145.42        2968.75           2409      227126.00   1025202.00
  145.45        2969.00           2413      213334.00    960842.10
  145.48        2969.25           2417      201175.00    904339.50
  145.52        2969.50           2420      189632.00    850902.70
  145.55        2969.75           2424      172418.00    771577.00
  145.58        2970.00           2427      160415.00    716520.20
  145.61        2970.25           2431      144253.00    642714.60
  145.64        2970.50           2434      132255.00    588165.60
  145.67        2970.75           2438      117283.00    520380.70
  145.70        2971.00           2441      105329.00    466485.10
  145.73        2971.25           2445       88631.00    391532.50
  145.76        2971.50           2449       72989.00    321667.10
  145.80        2971.75           2452       61122.00    268884.70
  145.83        2972.00           2456       46147.00    202548.80
  145.86        2972.25           2459       34472.00    151038.70
  145.89        2972.50           2463       19921.00     87091.88
  145.92        2972.75           2466       10321.00     45055.02
  145.95        2973.00           2470        3349.00     14600.97
  145.98        2973.25           2473        1741.00      7586.09
  146.01        2973.50           2477        1229.00      5353.20
  146.04        2973.75           2481        1141.00      4969.45
  146.07        2974.00           2484        1156.00      5034.86
  146.10        2974.25           2488        1112.00      4842.99
  146.13        2974.50           2491        1104.00      4808.11
  146.16        2974.75           2495        1059.00      4611.88
  146.20        2975.00           2498        1049.00      4568.28
  146.23        2975.25           2502        1023.00      4454.90
  146.26        2975.50           2505        1052.00      4581.36
  146.29        2975.75           2509         984.00      4284.84
  146.32        2976.00           2512         998.00      4345.89
  146.35        2976.25           2516         983.00      4280.48
  146.38        2976.50           2520         990.00      4311.01
  146.41        2976.75           2523         995.00      4332.81
  146.44        2977.00           2527         938.00      4084.26
  146.47        2977.25           2530         927.00      4036.30
  146.50        2977.50           2534         945.00      4114.79
  146.53        2977.75           2537         901.00      3922.93
  146.56        2978.00           2541         904.00      3936.01
  146.59        2978.25           2544         890.00      3874.97
  146.62        2978.50           2548         889.00      3870.61
  146.65        2978.75           2552         892.00      3883.69
  146.68        2979.00           2555         871.00      3792.12
  146.72        2979.25           2559         862.00      3752.88
  146.75        2979.50           2562         857.00      3731.07
  146.78        2979.75           2566         858.00      3735.43
  146.81        2980.00           2569         834.00      3630.79
  146.84        2980.25           2573         849.00      3696.19
  146.87        2980.50           2577         846.00      3683.11
  146.90        2980.75           2580         829.00      3608.99
  146.93        2981.00           2584         841.00      3661.31
  146.96        2981.25           2587         819.00      3565.38
  146.99        2981.50           2591         813.00      3539.22
  147.02        2981.75           2594         821.00      3574.10
  147.05        2982.00           2598         792.00      3447.66
  147.08        2982.25           2601         821.00      3574.10
  147.11        2982.50           2605         809.00      3521.78
  147.14        2982.75           2609         815.00      3547.94
  147.17        2983.00           2612         828.00      3604.63
  147.20        2983.25           2616         805.00      3504.34
  147.23        2983.50           2619         782.00      3404.06
  147.27        2983.75           2623         783.00      3408.42
  147.30        2984.00           2626         803.00      3495.62
HS scan finished at 02:27:31
end
************************************************************
  HS Scan of 
************************************************************
Integration time is 0.2294 seconds per sample
dh310317Reading 51.44 .94 3.19pr1000
************************************************************
Dead Time -------------------------  3.4E-08 
Number of Cycles Used -------------  4 
Starting Wavelength (Angstroms) ---  2950 
Final Wavelength (Angstoms) -------  2984 
Wavelength Increment (Angstroms) --  .25 
Filter Wheel #1 Position ---------- (1) Ground quartz diffuser (ND=2.32)
Filter Wheel #2 Position ---------- (1) Neutral Density 0.494



************************************************************
HS scan start time = 19:37:27
Dark Count =  1.5 


Time (GMT)  Wavelength (Ang)  Step Number  Raw Counts  Counts/Second

 1178.35        2950.00           2144         721.00      3136.78
 1178.54        2950.25           2147         718.00      3123.70
 1178.57        2950.50           2151         734.00      3193.46
 1178.60        2950.75           2155         728.00      3167.30
 1178.63        2951.00           2158         750.00      3263.22
 1178.66        2951.25           2162         747.00      3250.14
 1178.70        2951.50           2165         748.00      3254.50
 1178.73        2951.75           2169         748.00      3254.50
 1178.76        2952.00           2172         735.00      3197.82
 1178.79        2952.25           2176         764.00      3324.26
 1178.82        2952.50           2179         735.00      3197.82
 1178.85        2952.75           2183         739.00      3215.26
 1178.88        2953.00           2186         776.00      3376.59
 1178.91        2953.25           2190         774.00      3367.87
 1178.94        2953.50           2193         752.00      3271.94
 1178.97        2953.75           2197         790.00      3437.63
 1179.00        2954.00           2200         765.00      3328.62
 1179.03        2954.25           2204         781.00      3398.39
 1179.06        2954.50           2208         794.00      3455.07
 1179.09        2954.75           2211         802.00      3489.95
 1179.12        2955.00           2215         815.00      3546.64
 1179.15        2955.25           2218         783.00      3407.11
 1179.18        2955.50           2222         796.00      3463.79
 1179.22        2955.75           2225         797.00      3468.15
 1179.25        2956.00           2229         821.00      3572.80
 1179.28        2956.25           2232         826.00      3594.60
 1179.31        2956.50           2236         832.00      3620.76
 1179.34        2956.75           2239         824.00      3585.88
 1179.37        2957.00           2243         878.00      3821.33
 1179.40        2957.25           2246         858.00      3734.13
 1179.43        2957.50           2250         860.00      3742.85
 1179.46        2957.75           2254         858.00      3734.13
 1179.49        2958.00           2257         855.00      3721.05
 1179.52        2958.25           2261         859.00      3738.49
 1179.55        2958.50           2264         902.00      3925.98
 1179.58        2958.75           2268         906.00      3943.42
 1179.61        2959.00           2271         922.00      4013.19
 1179.64        2959.25           2275         949.00      4130.92
 1179.67        2959.50           2278         935.00      4069.87
 1179.70        2959.75           2282         969.00      4218.13
 1179.74        2960.00           2285         972.00      4231.21
 1179.77        2960.25           2289         975.00      4244.29
 1179.80        2960.50           2293        1012.00      4405.63
 1179.83        2960.75           2296        1027.00      4471.04
 1179.86        2961.00           2300        1098.00      4780.64
 1179.89        2961.25           2303        1388.00      6045.27
 1179.92        2961.50           2307        4124.00     17981.78
 1179.95        2961.75           2310       10179.00     44432.82
 1179.98        2962.00           2314       21720.00     94981.49
 1180.01        2962.25           2317       31836.00    139432.30
 1180.04        2962.50           2321       46026.00    202012.70
 1180.07        2962.75           2324       55646.00    244591.00
 1180.10        2963.00           2328       67867.00    298860.60
 1180.13        2963.25           2331       78827.00    347702.30
 1180.16        2963.50           2335       94107.00    416068.90
 1180.19        2963.75           2339      107720.00    477247.80
 1180.22        2964.00           2342      118024.00    523726.70
 1180.26        2964.25           2346      132312.00    588423.00
 1180.29        2964.50           2349      141424.00    629832.70
 1180.32        2964.75           2353      154149.00    687860.00
 1180.35        2965.00           2356      164887.00    737007.30
 1180.38        2965.25           2360      185159.00    830247.10
 1180.41        2965.50           2363      187654.00    841764.20
 1180.44        2965.75           2367      200962.00    903350.20
 1180.47        2966.00           2370      210236.00    946423.40
 1180.50        2966.25           2374      221554.00    999164.40
 1180.53        2966.50           2378      229143.00   1034637.00
 1180.56        2966.75           2381      231589.00   1046088.00
 1180.59        2967.00           2385      232333.00   1049573.00
 1180.62        2967.25           2388      232481.00   1050267.00
 1180.65        2967.50           2392      232558.00   1050627.00
 1180.68        2967.75           2395      231946.00   1047760.00
 1180.71        2968.00           2399      228488.00   1031572.00
 1180.74        2968.25           2402      222480.00   1003488.00
 1180.77        2968.50           2406      212104.00    955114.90
 1180.81        2968.75           2409      203026.00    912925.40
 1180.84        2969.00           2413      188678.00    846493.80
 1180.87        2969.25           2417      175517.00    785824.50
 1180.90        2969.50           2420      166886.00    746174.90
 1180.93        2969.75           2424      154457.00    689267.30
 1180.96        2970.00           2427      144524.00    643947.70
 1180.99        2970.25           2431      130752.00    581345.30
 1181.02        2970.50           2434      121013.00    537237.20
 1181.05        2970.75           2438      105488.00    467199.30
 1181.08        2971.00           2441       94929.00    419755.90
 1181.11        2971.25           2445       80811.00    356561.20
 1181.14        2971.50           2449       67670.00    297984.20
 1181.17        2971.75           2452       57957.00    254838.00
 1181.20        2972.00           2456       45817.00    201089.00
 1181.23        2972.25           2459       36242.00    158835.00
 1181.26        2972.50           2463       23420.00    102442.10
 1181.30        2972.75           2466       13159.00     57468.33
 1181.33        2973.00           2470        3701.00     16135.70
 1181.36        2973.25           2473        1620.00      7057.05
 1181.39        2973.50           2477        1181.00      5142.57
 1181.42        2973.75           2481        1043.00      4540.81
 1181.45        2974.00           2484        1046.00      4553.89
 1181.48        2974.25           2488        1027.00      4471.04
 1181.51        2974.50           2491         982.00      4274.82
 1181.54        2974.75           2495         994.00      4327.14
 1181.57        2975.00           2498         952.00      4144.00
 1181.60        2975.25           2502         949.00      4130.92
 1181.63        2975.50           2505         958.00      4170.16
 1181.66        2975.75           2509         902.00      3925.98
 1181.69        2976.00           2512         932.00      4056.79
 1181.72        2976.25           2516         868.00      3777.73
 1181.75        2976.50           2520         868.00      3777.73
 1181.78        2976.75           2523         907.00      3947.78
 1181.82        2977.00           2527         867.00      3773.37
 1181.85        2977.25           2530         872.00      3795.17
 1181.88        2977.50           2534         873.00      3799.53
 1181.91        2977.75           2537         802.00      3489.95
 1181.94        2978.00           2541         825.00      3590.24
 1181.97        2978.25           2544         832.00      3620.76
 1182.00        2978.50           2548         802.00      3489.95
 1182.03        2978.75           2552         813.00      3537.91
 1182.06        2979.00           2555         791.00      3441.99
 1182.09        2979.25           2559         760.00      3306.82
 1182.12        2979.50           2562         792.00      3446.35
 1182.15        2979.75           2566         794.00      3455.07
 1182.18        2980.00           2569         781.00      3398.39
 1182.21        2980.25           2573         774.00      3367.87
 1182.24        2980.50           2577         775.00      3372.23
 1182.27        2980.75           2580         774.00      3367.87
 1182.30        2981.00           2584         762.00      3315.54
 1182.34        2981.25           2587         759.00      3302.46
 1182.37        2981.50           2591         764.00      3324.26
 1182.40        2981.75           2594         762.00      3315.54
 1182.43        2982.00           2598         745.00      3241.42
 1182.46        2982.25           2601         740.00      3219.62
 1182.49        2982.50           2605         750.00      3263.22
 1182.52        2982.75           2609         747.00      3250.14
 1182.55        2983.00           2612         718.00      3123.70
 1182.58        2983.25           2616         764.00      3324.26
 1182.61        2983.50           2619         731.00      3180.38
 1182.64        2983.75           2623         716.00      3114.98
 1182.67        2984.00           2626         743.00      3232.70
HS scan finished at 19:42:54
end
