************************************************************
  HS Scan of (1) Internal mercury lamp
************************************************************
Integration time is 0.2294 seconds per sample
dh310318Reading 51.44 .94 2.66pr1000
************************************************************
Dead Time -------------------------  3.4E-08 
Number of Cycles Used -------------  4 
Starting Wavelength (Angstroms) ---  2950 
Final Wavelength (Angstoms) -------  2984 
Wavelength Increment (Angstroms) --  .25 
Filter Wheel #1 Position ---------- (1) Ground quartz diffuser (ND=2.32)
Filter Wheel #2 Position ---------- (1) Neutral Density 0.494



************************************************************
HS scan start time = 02:23:13
Dark Count =  .5 


Time (GMT)  Wavelength (Ang)  Step Number  Raw Counts  Counts/Second

  144.11        2950.00           2144         159.00       690.95
  144.30        2950.25           2147         134.00       581.96
  144.33        2950.50           2151         136.00       590.68
  144.36        2950.75           2155         139.00       603.76
  144.39        2951.00           2158         138.00       599.40
  144.43        2951.25           2162         142.00       616.84
  144.46        2951.50           2165         151.00       656.07
  144.49        2951.75           2169         141.00       612.48
  144.52        2952.00           2172         163.00       708.39
  144.55        2952.25           2176         146.00       634.28
  144.58        2952.50           2179         147.00       638.64
  144.61        2952.75           2183         149.00       647.36
  144.64        2953.00           2186         156.00       677.87
  144.67        2953.25           2190         140.00       608.12
  144.70        2953.50           2193         153.00       664.79
  144.73        2953.75           2197         145.00       629.92
  144.76        2954.00           2200         138.00       599.40
  144.79        2954.25           2204         162.00       704.03
  144.82        2954.50           2208         144.00       625.56
  144.85        2954.75           2211         154.00       669.15
  144.88        2955.00           2215         148.00       643.00
  144.91        2955.25           2218         148.00       643.00
  144.95        2955.50           2222         156.00       677.87
  144.98        2955.75           2225         155.00       673.51
  145.01        2956.00           2229         153.00       664.79
  145.04        2956.25           2232         158.00       686.59
  145.07        2956.50           2236         163.00       708.39
  145.10        2956.75           2239         167.00       725.82
  145.13        2957.00           2243         165.00       717.11
  145.16        2957.25           2246         164.00       712.75
  145.19        2957.50           2250         165.00       717.11
  145.22        2957.75           2254         171.00       743.26
  145.25        2958.00           2257         169.00       734.54
  145.28        2958.25           2261         165.00       717.11
  145.31        2958.50           2264         175.00       760.70
  145.34        2958.75           2268         177.00       769.42
  145.37        2959.00           2271         197.00       856.61
  145.40        2959.25           2275         190.00       826.09
  145.43        2959.50           2278         190.00       826.09
  145.47        2959.75           2282         187.00       813.01
  145.50        2960.00           2285         199.00       865.33
  145.53        2960.25           2289         195.00       847.89
  145.56        2960.50           2293         208.00       904.56
  145.59        2960.75           2296         241.00      1048.42
  145.62        2961.00           2300         281.00      1222.81
  145.65        2961.25           2303         611.00      2661.53
  145.68        2961.50           2307        2364.00     10306.58
  145.71        2961.75           2310        4251.00     18540.46
  145.74        2962.00           2314        7318.00     31933.09
  145.77        2962.25           2317        9594.00     41879.56
  145.80        2962.50           2321       12881.00     56256.15
  145.83        2962.75           2324       15482.00     67642.31
  145.86        2963.00           2328       18982.00     82977.90
  145.89        2963.25           2331       21696.00     94880.57
  145.92        2963.50           2335       25350.00    110921.00
  145.95        2963.75           2339       28744.00    125835.80
  145.99        2964.00           2342       31237.00    136800.90
  146.02        2964.25           2346       34502.00    151173.90
  146.05        2964.50           2349       37479.00    164291.40
  146.08        2964.75           2353       40758.00    178753.10
  146.11        2965.00           2356       43453.00    190649.90
  146.14        2965.25           2360       46658.00    204810.50
  146.17        2965.50           2363       49159.00    215870.20
  146.20        2965.75           2367       52005.00    228465.70
  146.23        2966.00           2370       54162.00    238019.20
  146.26        2966.25           2374       57158.00    251298.90
  146.29        2966.50           2378       59277.00    260698.60
  146.32        2966.75           2381       59502.00    261697.00
  146.35        2967.00           2385       59596.00    262114.10
  146.38        2967.25           2388       59646.00    262336.00
  146.41        2967.50           2392       59614.00    262194.00
  146.44        2967.75           2395       59345.00    261000.30
  146.47        2968.00           2399       58048.00    255246.10
  146.51        2968.25           2402       55841.00    245459.80
  146.54        2968.50           2406       52352.00    230002.20
  146.57        2968.75           2409       49987.00    219533.60
  146.60        2969.00           2413       46474.00    203997.20
  146.63        2969.25           2417       43108.00    189126.40
  146.66        2969.50           2420       40575.00    177945.60
  146.69        2969.75           2424       37485.00    164317.80
  146.72        2970.00           2427       34430.00    150856.80
  146.75        2970.25           2431       30408.00    133153.80
  146.78        2970.50           2434       27603.00    120820.10
  146.81        2970.75           2438       24000.00    104992.70
  146.84        2971.00           2441       21485.00     93954.84
  146.87        2971.25           2445       18161.00     79379.18
  146.90        2971.50           2449       14592.00     63745.25
  146.93        2971.75           2452       11891.00     51924.64
  146.96        2972.00           2456        8355.00     36464.10
  146.99        2972.25           2459        6002.00     26185.03
  147.02        2972.50           2463        3035.00     13233.94
  147.06        2972.75           2466        1447.00      6306.93
  147.09        2973.00           2470         450.00      1959.59
  147.12        2973.25           2473         269.00      1170.49
  147.15        2973.50           2477         228.00       991.75
  147.18        2973.75           2481         221.00       961.23
  147.21        2974.00           2484         197.00       856.61
  147.24        2974.25           2488         203.00       882.76
  147.27        2974.50           2491         207.00       900.20
  147.30        2974.75           2495         218.00       948.16
  147.33        2975.00           2498         200.00       869.69
  147.36        2975.25           2502         191.00       830.45
  147.39        2975.50           2505         192.00       834.81
  147.42        2975.75           2509         190.00       826.09
  147.45        2976.00           2512         182.00       791.22
  147.48        2976.25           2516         183.00       795.58
  147.51        2976.50           2520         170.00       738.90
  147.54        2976.75           2523         174.00       756.34
  147.58        2977.00           2527         169.00       734.54
  147.61        2977.25           2530         171.00       743.26
  147.64        2977.50           2534         166.00       721.46
  147.67        2977.75           2537         158.00       686.59
  147.70        2978.00           2541         162.00       704.03
  147.73        2978.25           2544         167.00       725.82
  147.76        2978.50           2548         160.00       695.31
  147.79        2978.75           2552         159.00       690.95
  147.82        2979.00           2555         150.00       651.71
  147.85        2979.25           2559         165.00       717.11
  147.88        2979.50           2562         150.00       651.71
  147.91        2979.75           2566         165.00       717.11
  147.94        2980.00           2569         141.00       612.48
  147.97        2980.25           2573         157.00       682.23
  148.00        2980.50           2577         147.00       638.64
  148.03        2980.75           2580         149.00       647.36
  148.06        2981.00           2584         157.00       682.23
  148.10        2981.25           2587         153.00       664.79
  148.13        2981.50           2591         151.00       656.07
  148.16        2981.75           2594         142.00       616.84
  148.19        2982.00           2598         142.00       616.84
  148.22        2982.25           2601         154.00       669.15
  148.25        2982.50           2605         135.00       586.32
  148.28        2982.75           2609         160.00       695.31
  148.31        2983.00           2612         139.00       603.76
  148.34        2983.25           2616         158.00       686.59
  148.37        2983.50           2619         125.00       542.73
  148.40        2983.75           2623         160.00       695.31
  148.43        2984.00           2626         145.00       629.92
HS scan finished at 02:28:39
end
************************************************************
  HS Scan of (1) Internal mercury lamp
************************************************************
Integration time is 0.2294 seconds per sample
dh310318Reading 51.44 .94 2.82pr1000
************************************************************
Dead Time -------------------------  3.4E-08 
Number of Cycles Used -------------  4 
Starting Wavelength (Angstroms) ---  2950 
Final Wavelength (Angstoms) -------  2984 
Wavelength Increment (Angstroms) --  .25 
Filter Wheel #1 Position ---------- (1) Ground quartz diffuser (ND=2.32)
Filter Wheel #2 Position ---------- (1) Neutral Density 0.494



************************************************************
HS scan start time = 19:37:29
Dark Count =  .6 


Time (GMT)  Wavelength (Ang)  Step Number  Raw Counts  Counts/Second

 1178.38        2950.00           2144         138.00       598.97
 1178.58        2950.25           2147         154.00       668.72
 1178.61        2950.50           2151         143.00       620.76
 1178.64        2950.75           2155         145.00       629.48
 1178.67        2951.00           2158         133.00       577.17
 1178.70        2951.25           2162         147.00       638.20
 1178.73        2951.50           2165         144.00       625.12
 1178.76        2951.75           2169         155.00       673.08
 1178.79        2952.00           2172         143.00       620.76
 1178.82        2952.25           2176         135.00       585.89
 1178.85        2952.50           2179         143.00       620.76
 1178.88        2952.75           2183         135.00       585.89
 1178.91        2953.00           2186         152.00       660.00
 1178.94        2953.25           2190         139.00       603.33
 1178.97        2953.50           2193         150.00       651.28
 1179.00        2953.75           2197         155.00       673.08
 1179.04        2954.00           2200         149.00       646.92
 1179.07        2954.25           2204         147.00       638.20
 1179.10        2954.50           2208         173.00       751.54
 1179.13        2954.75           2211         155.00       673.08
 1179.16        2955.00           2215         142.00       616.40
 1179.19        2955.25           2218         153.00       664.36
 1179.22        2955.50           2222         147.00       638.20
 1179.25        2955.75           2225         156.00       677.43
 1179.28        2956.00           2229         157.00       681.79
 1179.31        2956.25           2232         168.00       729.75
 1179.34        2956.50           2236         163.00       707.95
 1179.37        2956.75           2239         166.00       721.03
 1179.40        2957.00           2243         159.00       690.51
 1179.43        2957.25           2246         162.00       703.59
 1179.46        2957.50           2250         167.00       725.39
 1179.49        2957.75           2254         170.00       738.47
 1179.52        2958.00           2257         158.00       686.15
 1179.56        2958.25           2261         171.00       742.83
 1179.59        2958.50           2264         183.00       795.14
 1179.62        2958.75           2268         179.00       777.70
 1179.65        2959.00           2271         192.00       834.37
 1179.68        2959.25           2275         175.00       760.26
 1179.71        2959.50           2278         178.00       773.34
 1179.74        2959.75           2282         172.00       747.19
 1179.77        2960.00           2285         184.00       799.50
 1179.80        2960.25           2289         191.00       830.01
 1179.83        2960.50           2293         194.00       843.09
 1179.86        2960.75           2296         200.00       869.25
 1179.89        2961.00           2300         241.00      1047.99
 1179.92        2961.25           2303         409.00      1780.40
 1179.95        2961.50           2307        1453.00      6332.66
 1179.98        2961.75           2310        3066.00     13368.76
 1180.01        2962.00           2314        6090.00     26568.89
 1180.04        2962.25           2317        8527.00     37215.33
 1180.08        2962.50           2321       11888.00     51911.08
 1180.11        2962.75           2324       14475.00     63232.58
 1180.14        2963.00           2328       17840.00     77971.91
 1180.17        2963.25           2331       20085.00     87813.66
 1180.20        2963.50           2335       23360.00    102182.60
 1180.23        2963.75           2339       26907.00    117760.90
 1180.26        2964.00           2342       29585.00    129533.50
 1180.29        2964.25           2346       33155.00    145242.10
 1180.32        2964.50           2349       35485.00    155503.50
 1180.35        2964.75           2353       38700.00    169674.40
 1180.38        2965.00           2356       41011.00    179869.10
 1180.41        2965.25           2360       44600.00    195715.70
 1180.44        2965.50           2363       47258.00    207462.60
 1180.47        2965.75           2367       50487.00    221745.80
 1180.50        2966.00           2370       52935.00    232583.50
 1180.53        2966.25           2374       55458.00    243761.70
 1180.56        2966.50           2378       57520.00    252903.80
 1180.60        2966.75           2381       58089.00    255427.50
 1180.63        2967.00           2385       58471.00    257122.10
 1180.66        2967.25           2388       58369.00    256669.60
 1180.69        2967.50           2392       58260.00    256186.00
 1180.72        2967.75           2395       57961.00    254859.70
 1180.75        2968.00           2399       56630.00    248957.20
 1180.78        2968.25           2402       54584.00    239888.50
 1180.81        2968.50           2406       52019.00    228527.30
 1180.84        2968.75           2409       49548.00    217590.80
 1180.87        2969.00           2413       46723.00    205097.40
 1180.90        2969.25           2417       43195.00    189510.10
 1180.93        2969.50           2420       40535.00    177768.70
 1180.96        2969.75           2424       37408.00    163977.90
 1180.99        2970.00           2427       34706.00    152072.00
 1181.02        2970.25           2431       31247.00    136844.50
 1181.05        2970.50           2434       28918.00    126600.50
 1181.08        2970.75           2438       25358.00    110955.70
 1181.12        2971.00           2441       22556.00     98653.81
 1181.15        2971.25           2445       19025.00     83165.96
 1181.18        2971.50           2449       15548.00     67930.91
 1181.21        2971.75           2452       13341.00     58268.77
 1181.24        2972.00           2456       10101.00     44095.71
 1181.27        2972.25           2459        7661.00     33431.18
 1181.31        2972.50           2463        4632.00     20203.06
 1181.34        2972.75           2466        2622.00     11431.64
 1181.37        2973.00           2470         765.00      3332.55
 1181.40        2973.25           2473         343.00      1492.67
 1181.43        2973.50           2477         234.00      1017.47
 1181.46        2973.75           2481         235.00      1021.83
 1181.49        2974.00           2484         212.00       921.56
 1181.52        2974.25           2488         196.00       851.81
 1181.55        2974.50           2491         198.00       860.53
 1181.58        2974.75           2495         187.00       812.58
 1181.61        2975.00           2498         191.00       830.01
 1181.64        2975.25           2502         191.00       830.01
 1181.67        2975.50           2505         170.00       738.47
 1181.70        2975.75           2509         184.00       799.50
 1181.73        2976.00           2512         164.00       712.31
 1181.76        2976.25           2516         175.00       760.26
 1181.79        2976.50           2520         163.00       707.95
 1181.83        2976.75           2523         159.00       690.51
 1181.86        2977.00           2527         159.00       690.51
 1181.89        2977.25           2530         163.00       707.95
 1181.92        2977.50           2534         160.00       694.87
 1181.95        2977.75           2537         155.00       673.08
 1181.98        2978.00           2541         158.00       686.15
 1182.01        2978.25           2544         147.00       638.20
 1182.04        2978.50           2548         161.00       699.23
 1182.07        2978.75           2552         156.00       677.43
 1182.10        2979.00           2555         154.00       668.72
 1182.13        2979.25           2559         143.00       620.76
 1182.16        2979.50           2562         155.00       673.08
 1182.19        2979.75           2566         150.00       651.28
 1182.22        2980.00           2569         143.00       620.76
 1182.25        2980.25           2573         153.00       664.36
 1182.28        2980.50           2577         172.00       747.19
 1182.31        2980.75           2580         141.00       612.04
 1182.35        2981.00           2584         156.00       677.43
 1182.38        2981.25           2587         140.00       607.68
 1182.41        2981.50           2591         138.00       598.97
 1182.44        2981.75           2594         165.00       716.67
 1182.47        2982.00           2598         138.00       598.97
 1182.50        2982.25           2601         145.00       629.48
 1182.53        2982.50           2605         142.00       616.40
 1182.56        2982.75           2609         131.00       568.45
 1182.60        2983.00           2612         129.00       559.73
 1182.63        2983.25           2616         148.00       642.56
 1182.66        2983.50           2619         139.00       603.33
 1182.69        2983.75           2623         126.00       546.65
 1182.72        2984.00           2626         158.00       686.15
HS scan finished at 19:42:57
end
