************************************************************
  HS Scan of (1) Internal mercury lamp
************************************************************
Integration time is 0.2294 seconds per sample
dh080419Reading 51.44 .94 3.09pr1000
************************************************************
Dead Time -------------------------  3.4E-08 
Number of Cycles Used -------------  4 
Starting Wavelength (Angstroms) ---  2950 
Final Wavelength (Angstoms) -------  2984 
Wavelength Increment (Angstroms) --  .25 
Filter Wheel #1 Position ---------- (1) Ground quartz diffuser (ND=2.32)
Filter Wheel #2 Position ---------- (1) Neutral Density 0.494



************************************************************
HS scan start time = 01:36:54
Dark Count =  1.2 


Time (GMT)  Wavelength (Ang)  Step Number  Raw Counts  Counts/Second

   97.80        2950.00           2144        1598.00      6962.42
   97.99        2950.25           2147        1616.00      7040.92
   98.02        2950.50           2151        1652.00      7197.93
   98.05        2950.75           2155        1669.00      7272.07
   98.08        2951.00           2158        1611.00      7019.11
   98.11        2951.25           2162        1598.00      6962.42
   98.14        2951.50           2165        1633.00      7115.06
   98.18        2951.75           2169        1627.00      7088.89
   98.21        2952.00           2172        1683.00      7333.13
   98.25        2952.25           2176        1651.00      7193.56
   98.28        2952.50           2179        1684.00      7337.49
   98.31        2952.75           2183        1662.00      7241.54
   98.34        2953.00           2186        1697.00      7394.19
   98.37        2953.25           2190        1690.00      7363.66
   98.40        2953.50           2193        1678.00      7311.32
   98.43        2953.75           2197        1662.00      7241.54
   98.46        2954.00           2200        1723.00      7507.58
   98.49        2954.25           2204        1742.00      7590.45
   98.52        2954.50           2208        1720.00      7494.50
   98.55        2954.75           2211        1728.00      7529.39
   98.58        2955.00           2215        1757.00      7655.87
   98.61        2955.25           2218        1760.00      7668.96
   98.64        2955.50           2222        1751.00      7629.70
   98.67        2955.75           2225        1799.00      7839.06
   98.70        2956.00           2229        1766.00      7695.13
   98.73        2956.25           2232        1788.00      7791.08
   98.77        2956.50           2236        1774.00      7730.02
   98.80        2956.75           2239        1817.00      7917.56
   98.83        2957.00           2243        1832.00      7982.99
   98.86        2957.25           2246        1890.00      8235.96
   98.89        2957.50           2250        1885.00      8214.15
   98.92        2957.75           2254        1887.00      8222.88
   98.95        2958.00           2257        1900.00      8279.58
   98.98        2958.25           2261        1964.00      8558.72
   99.01        2958.50           2264        1922.00      8375.53
   99.04        2958.75           2268        1922.00      8375.53
   99.07        2959.00           2271        1994.00      8689.58
   99.10        2959.25           2275        2010.00      8759.37
   99.13        2959.50           2278        2037.00      8877.13
   99.16        2959.75           2282        2100.00      9151.93
   99.19        2960.00           2285        2125.00      9260.98
   99.22        2960.25           2289        2104.00      9169.38
   99.25        2960.50           2293        2180.00      9500.89
   99.29        2960.75           2296        2247.00      9793.15
   99.32        2961.00           2300        2418.00     10539.09
   99.35        2961.25           2303        3292.00     14352.25
   99.38        2961.50           2307       10269.00     44827.64
   99.41        2961.75           2310       23278.00    101820.10
   99.44        2962.00           2314       46659.00    204811.90
   99.47        2962.25           2317       64839.00    285396.80
   99.50        2962.50           2321       89320.00    394617.50
   99.53        2962.75           2324      111474.00    494165.50
   99.56        2963.00           2328      142032.00    632601.40
   99.59        2963.25           2331      165193.00    738411.50
   99.62        2963.50           2335      193685.00    869643.10
   99.65        2963.75           2339      220437.00    993952.00
   99.68        2964.00           2342      240990.00   1090188.00
   99.71        2964.25           2346      271815.00   1235734.00
   99.74        2964.50           2349      294256.00   1342627.00
   99.77        2964.75           2353      323052.00   1480967.00
   99.81        2965.00           2356      343605.00   1580530.00
   99.84        2965.25           2360      368803.00   1703548.00
   99.87        2965.50           2363      387244.00   1794254.00
   99.90        2965.75           2367      412858.00   1921209.00
   99.93        2966.00           2370      431823.00   2015945.00
   99.96        2966.25           2374      453274.00   2123867.00
   99.99        2966.50           2378      468872.00   2202862.00
  100.02        2966.75           2381      473852.00   2228176.00
  100.05        2967.00           2385      475341.00   2235754.00
  100.08        2967.25           2388      475301.00   2235550.00
  100.11        2967.50           2392      475026.00   2234150.00
  100.14        2967.75           2395      472657.00   2222098.00
  100.17        2968.00           2399      464783.00   2182111.00
  100.20        2968.25           2402      449230.00   2103458.00
  100.23        2968.50           2406      424230.00   1977940.00
  100.26        2968.75           2409      405765.00   1885939.00
  100.29        2969.00           2413      382205.00   1769411.00
  100.33        2969.25           2417      358295.00   1652118.00
  100.36        2969.50           2420      339892.00   1562492.00
  100.39        2969.75           2424      315777.00   1445891.00
  100.42        2970.00           2427      293741.00   1340165.00
  100.45        2970.25           2431      260703.00   1183097.00
  100.48        2970.50           2434      238939.00   1080555.00
  100.51        2970.75           2438      210242.00    946452.60
  100.54        2971.00           2441      189167.00    848754.20
  100.57        2971.25           2445      162783.00    727365.50
  100.60        2971.50           2449      136829.00    608937.20
  100.63        2971.75           2452      117549.00    521582.30
  100.66        2972.00           2456       88855.00    392535.30
  100.69        2972.25           2459       65783.00    289593.30
  100.72        2972.50           2463       37841.00    165884.20
  100.75        2972.75           2466       21185.00     92635.69
  100.78        2973.00           2470        7395.00     32266.42
  100.81        2973.25           2473        3656.00     15940.64
  100.85        2973.50           2477        2404.00     10478.01
  100.88        2973.75           2481        2297.00     10011.25
  100.91        2974.00           2484        2192.00      9553.23
  100.94        2974.25           2488        2177.00      9487.80
  100.97        2974.50           2491        2118.00      9230.45
  101.00        2974.75           2495        2097.00      9138.85
  101.03        2975.00           2498        2053.00      8946.92
  101.06        2975.25           2502        2055.00      8955.65
  101.09        2975.50           2505        1995.00      8693.94
  101.12        2975.75           2509        1988.00      8663.41
  101.15        2976.00           2512        1953.00      8510.75
  101.18        2976.25           2516        1910.00      8323.19
  101.21        2976.50           2520        1891.00      8240.32
  101.24        2976.75           2523        1856.00      8087.66
  101.27        2977.00           2527        1861.00      8109.47
  101.30        2977.25           2530        1807.00      7873.95
  101.33        2977.50           2534        1856.00      8087.66
  101.37        2977.75           2537        1840.00      8017.88
  101.40        2978.00           2541        1778.00      7747.46
  101.43        2978.25           2544        1775.00      7734.38
  101.46        2978.50           2548        1752.00      7634.07
  101.49        2978.75           2552        1766.00      7695.13
  101.52        2979.00           2555        1704.00      7424.72
  101.55        2979.25           2559        1730.00      7538.11
  101.58        2979.50           2562        1672.00      7285.15
  101.61        2979.75           2566        1690.00      7363.66
  101.64        2980.00           2569        1709.00      7446.52
  101.67        2980.25           2573        1676.00      7302.60
  101.70        2980.50           2577        1683.00      7333.13
  101.73        2980.75           2580        1670.00      7276.43
  101.76        2981.00           2584        1611.00      7019.11
  101.79        2981.25           2587        1640.00      7145.59
  101.82        2981.50           2591        1613.00      7027.84
  101.85        2981.75           2594        1611.00      7019.11
  101.89        2982.00           2598        1611.00      7019.11
  101.92        2982.25           2601        1531.00      6670.21
  101.95        2982.50           2605        1576.00      6866.47
  101.98        2982.75           2609        1582.00      6892.64
  102.01        2983.00           2612        1558.00      6787.97
  102.04        2983.25           2616        1570.00      6840.30
  102.07        2983.50           2619        1560.00      6796.69
  102.10        2983.75           2623        1513.00      6591.71
  102.13        2984.00           2626        1550.00      6753.08
HS scan finished at 01:42:21
end
************************************************************
  HS Scan of (1) Internal mercury lamp
************************************************************
Integration time is 0.2294 seconds per sample
dh080419Reading 51.44 .94 3.27pr1000
************************************************************
Dead Time -------------------------  3.4E-08 
Number of Cycles Used -------------  4 
Starting Wavelength (Angstroms) ---  2950 
Final Wavelength (Angstoms) -------  2984 
Wavelength Increment (Angstroms) --  .25 
Filter Wheel #1 Position ---------- (1) Ground quartz diffuser (ND=2.32)
Filter Wheel #2 Position ---------- (1) Neutral Density 0.494



************************************************************
HS scan start time = 19:37:21
Dark Count =  1.5 


Time (GMT)  Wavelength (Ang)  Step Number  Raw Counts  Counts/Second

 1178.25        2950.00           2144        1254.00      5460.91
 1178.44        2950.25           2147        1250.00      5443.47
 1178.47        2950.50           2151        1238.00      5391.14
 1178.50        2950.75           2155        1253.00      5456.55
 1178.53        2951.00           2158        1253.00      5456.55
 1178.56        2951.25           2162        1239.00      5395.50
 1178.59        2951.50           2165        1256.00      5469.63
 1178.62        2951.75           2169        1261.00      5491.43
 1178.65        2952.00           2172        1239.00      5395.50
 1178.68        2952.25           2176        1275.00      5552.49
 1178.71        2952.50           2179        1249.00      5439.11
 1178.74        2952.75           2183        1269.00      5526.32
 1178.78        2953.00           2186        1278.00      5565.57
 1178.81        2953.25           2190        1271.00      5535.04
 1178.84        2953.50           2193        1292.00      5626.62
 1178.87        2953.75           2197        1268.00      5521.96
 1178.90        2954.00           2200        1303.00      5674.59
 1178.93        2954.25           2204        1310.00      5705.12
 1178.96        2954.50           2208        1262.00      5495.80
 1178.99        2954.75           2211        1334.00      5809.78
 1179.02        2955.00           2215        1323.00      5761.81
 1179.05        2955.25           2218        1350.00      5879.55
 1179.08        2955.50           2222        1354.00      5897.00
 1179.11        2955.75           2225        1326.00      5774.89
 1179.14        2956.00           2229        1357.00      5910.08
 1179.17        2956.25           2232        1397.00      6084.52
 1179.20        2956.50           2236        1378.00      6001.66
 1179.23        2956.75           2239        1400.00      6097.60
 1179.26        2957.00           2243        1410.00      6141.21
 1179.29        2957.25           2246        1433.00      6241.52
 1179.33        2957.50           2250        1418.00      6176.10
 1179.36        2957.75           2254        1437.00      6258.96
 1179.39        2958.00           2257        1455.00      6337.46
 1179.42        2958.25           2261        1471.00      6407.24
 1179.45        2958.50           2264        1480.00      6446.49
 1179.48        2958.75           2268        1480.00      6446.49
 1179.51        2959.00           2271        1483.00      6459.57
 1179.54        2959.25           2275        1531.00      6668.91
 1179.57        2959.50           2278        1521.00      6625.29
 1179.60        2959.75           2282        1570.00      6838.99
 1179.63        2960.00           2285        1610.00      7013.44
 1179.66        2960.25           2289        1612.00      7022.16
 1179.69        2960.50           2293        1653.00      7200.98
 1179.72        2960.75           2296        1663.00      7244.59
 1179.75        2961.00           2300        1774.00      7728.71
 1179.78        2961.25           2303        2080.00      9063.39
 1179.81        2961.50           2307        5166.00     22530.33
 1179.85        2961.75           2310       12725.00     55569.15
 1179.88        2962.00           2314       28318.00    123958.60
 1179.91        2962.25           2317       42291.00    185514.80
 1179.94        2962.50           2321       63351.00    278783.00
 1179.97        2962.75           2324       81297.00    358732.00
 1180.00        2963.00           2328      105013.00    465061.70
 1180.03        2963.25           2331      123132.00    546822.90
 1180.06        2963.50           2335      146097.00    651115.10
 1180.09        2963.75           2339      166659.00    745133.50
 1180.12        2964.00           2342      183064.00    820583.40
 1180.15        2964.25           2346      206148.00    927420.90
 1180.18        2964.50           2349      224130.00   1011195.00
 1180.21        2964.75           2353      246002.00   1113751.00
 1180.24        2965.00           2356      261516.00   1186940.00
 1180.27        2965.25           2360      281930.00   1283815.00
 1180.30        2965.50           2363      297102.00   1356239.00
 1180.34        2965.75           2367      315940.00   1446674.00
 1180.37        2966.00           2370      330774.00   1518291.00
 1180.40        2966.25           2374      350627.00   1614704.00
 1180.43        2966.50           2378      367248.00   1695924.00
 1180.46        2966.75           2381      373044.00   1724355.00
 1180.49        2967.00           2385      375756.00   1737678.00
 1180.52        2967.25           2388      376600.00   1741827.00
 1180.55        2967.50           2392      376096.00   1739350.00
 1180.58        2967.75           2395      376632.00   1741984.00
 1180.61        2968.00           2399      374122.00   1729650.00
 1180.64        2968.25           2402      366975.00   1694586.00
 1180.67        2968.50           2406      348782.00   1605716.00
 1180.70        2968.75           2409      334949.00   1538513.00
 1180.73        2969.00           2413      315490.00   1444507.00
 1180.76        2969.25           2417      294569.00   1344122.00
 1180.79        2969.50           2420      280011.00   1274680.00
 1180.82        2969.75           2424      257639.00   1168615.00
 1180.85        2970.00           2427      240099.00   1086001.00
 1180.89        2970.25           2431      218132.00    983197.80
 1180.92        2970.50           2434      201078.00    903888.20
 1180.95        2970.75           2438      178942.00    801588.50
 1180.98        2971.00           2441      162250.00    724922.30
 1181.01        2971.25           2445      139873.00    622775.80
 1181.04        2971.50           2449      113734.00    504357.60
 1181.07        2971.75           2452       95273.00    421299.10
 1181.10        2972.00           2456       72270.00    318462.30
 1181.13        2972.25           2459       55535.00    244099.00
 1181.16        2972.50           2463       34754.00    152279.40
 1181.19        2972.75           2466       21138.00     92428.19
 1181.22        2973.00           2470        7309.00     31889.40
 1181.25        2973.25           2473        3366.00     14673.84
 1181.28        2973.50           2477        1942.00      8461.46
 1181.31        2973.75           2481        1762.00      7676.37
 1181.34        2974.00           2484        1692.00      7371.07
 1181.37        2974.25           2488        1694.00      7379.79
 1181.41        2974.50           2491        1622.00      7065.78
 1181.44        2974.75           2495        1643.00      7157.37
 1181.47        2975.00           2498        1603.00      6982.91
 1181.50        2975.25           2502        1537.00      6695.07
 1181.53        2975.50           2505        1522.00      6629.66
 1181.56        2975.75           2509        1556.00      6777.94
 1181.59        2976.00           2512        1478.00      6437.76
 1181.62        2976.25           2516        1520.00      6620.93
 1181.65        2976.50           2520        1412.00      6149.93
 1181.68        2976.75           2523        1449.00      6311.29
 1181.71        2977.00           2527        1404.00      6115.05
 1181.74        2977.25           2530        1409.00      6136.85
 1181.77        2977.50           2534        1379.00      6006.02
 1181.80        2977.75           2537        1389.00      6049.63
 1181.83        2978.00           2541        1394.00      6071.44
 1181.86        2978.25           2544        1360.00      5923.16
 1181.89        2978.50           2548        1325.00      5770.53
 1181.93        2978.75           2552        1325.00      5770.53
 1181.96        2979.00           2555        1296.00      5644.07
 1181.99        2979.25           2559        1293.00      5630.98
 1182.02        2979.50           2562        1269.00      5526.32
 1182.05        2979.75           2566        1252.00      5452.19
 1182.08        2980.00           2569        1270.00      5530.68
 1182.11        2980.25           2573        1277.00      5561.21
 1182.14        2980.50           2577        1245.00      5421.66
 1182.17        2980.75           2580        1231.00      5360.61
 1182.20        2981.00           2584        1217.00      5299.56
 1182.23        2981.25           2587        1263.00      5500.16
 1182.26        2981.50           2591        1229.00      5351.89
 1182.29        2981.75           2594        1213.00      5282.12
 1182.32        2982.00           2598        1206.00      5251.59
 1182.35        2982.25           2601        1206.00      5251.59
 1182.38        2982.50           2605        1199.00      5221.07
 1182.41        2982.75           2609        1186.00      5164.38
 1182.45        2983.00           2612        1211.00      5273.40
 1182.48        2983.25           2616        1188.00      5173.10
 1182.51        2983.50           2619        1214.00      5286.48
 1182.54        2983.75           2623        1133.00      4933.26
 1182.57        2984.00           2626        1158.00      5042.28
HS scan finished at 19:42:48
end
