************************************************************
  HS Scan of (1) Internal mercury lamp
************************************************************
Integration time is 0.2294 seconds per sample
dh030418Reading 51.44 .94 3.01pr1000
************************************************************
Dead Time -------------------------  3.4E-08 
Number of Cycles Used -------------  4 
Starting Wavelength (Angstroms) ---  2950 
Final Wavelength (Angstoms) -------  2984 
Wavelength Increment (Angstroms) --  .25 
Filter Wheel #1 Position ---------- (1) Ground quartz diffuser (ND=2.32)
Filter Wheel #2 Position ---------- (1) Neutral Density 0.494



************************************************************
HS scan start time = 02:07:44
Dark Count =  .7 


Time (GMT)  Wavelength (Ang)  Step Number  Raw Counts  Counts/Second

  128.63        2950.00           2144         130.00       563.66
  128.83        2950.25           2147         136.00       589.81
  128.86        2950.50           2151         150.00       650.84
  128.89        2950.75           2155         143.00       620.33
  128.92        2951.00           2158         120.00       520.06
  128.95        2951.25           2162         140.00       607.25
  128.98        2951.50           2165         121.00       524.42
  129.01        2951.75           2169         139.00       602.89
  129.04        2952.00           2172         125.00       541.86
  129.07        2952.25           2176         136.00       589.81
  129.10        2952.50           2179         159.00       690.08
  129.13        2952.75           2183         133.00       576.73
  129.16        2953.00           2186         132.00       572.37
  129.19        2953.25           2190         146.00       633.41
  129.23        2953.50           2193         162.00       703.16
  129.26        2953.75           2197         140.00       607.25
  129.29        2954.00           2200         145.00       629.05
  129.32        2954.25           2204         132.00       572.37
  129.35        2954.50           2208         166.00       720.59
  129.38        2954.75           2211         150.00       650.84
  129.41        2955.00           2215         136.00       589.81
  129.44        2955.25           2218         138.00       598.53
  129.47        2955.50           2222         135.00       585.45
  129.50        2955.75           2225         158.00       685.72
  129.53        2956.00           2229         148.00       642.12
  129.56        2956.25           2232         148.00       642.12
  129.59        2956.50           2236         142.00       615.97
  129.63        2956.75           2239         147.00       637.76
  129.66        2957.00           2243         145.00       629.05
  129.69        2957.25           2246         155.00       672.64
  129.72        2957.50           2250         151.00       655.20
  129.75        2957.75           2254         149.00       646.48
  129.78        2958.00           2257         168.00       729.31
  129.81        2958.25           2261         159.00       690.08
  129.84        2958.50           2264         173.00       751.11
  129.87        2958.75           2268         166.00       720.59
  129.90        2959.00           2271         169.00       733.67
  129.93        2959.25           2275         179.00       777.27
  129.97        2959.50           2278         171.00       742.39
  130.00        2959.75           2282         182.00       790.34
  130.03        2960.00           2285         175.00       759.83
  130.06        2960.25           2289         187.00       812.14
  130.09        2960.50           2293         196.00       851.38
  130.12        2960.75           2296         201.00       873.17
  130.15        2961.00           2300         279.00      1213.21
  130.18        2961.25           2303         486.00      2115.67
  130.21        2961.50           2307        1858.00      8098.57
  130.24        2961.75           2310        3792.00     16536.32
  130.27        2962.00           2314        7083.00     30905.60
  130.30        2962.25           2317        9345.00     40790.18
  130.33        2962.50           2321       12474.00     54474.39
  130.36        2962.75           2324       15045.00     65727.80
  130.39        2963.00           2328       18418.00     80504.71
  130.42        2963.25           2331       20994.00     91800.03
  130.46        2963.50           2335       24401.00    106752.50
  130.49        2963.75           2339       27678.00    121148.80
  130.52        2964.00           2342       30404.00    133135.30
  130.55        2964.25           2346       33596.00    147183.30
  130.58        2964.50           2349       36312.00    159147.00
  130.61        2964.75           2353       39153.00    171671.70
  130.64        2965.00           2356       42044.00    184427.90
  130.67        2965.25           2360       45322.00    198905.20
  130.70        2965.50           2363       47718.00    209496.10
  130.73        2965.75           2367       51079.00    224365.50
  130.76        2966.00           2370       53031.00    233008.30
  130.79        2966.25           2374       55207.00    242648.90
  130.82        2966.50           2378       56547.00    248588.70
  130.85        2966.75           2381       56872.00    250029.80
  130.88        2967.00           2385       56877.00    250052.00
  130.91        2967.25           2388       57174.00    251368.90
  130.94        2967.50           2392       56952.00    250384.50
  130.98        2967.75           2395       56261.00    247320.80
  131.01        2968.00           2399       54552.00    239746.20
  131.04        2968.25           2402       52569.00    230962.20
  131.07        2968.50           2406       49656.00    218068.10
  131.10        2968.75           2409       47701.00    209420.90
  131.13        2969.00           2413       44334.00    194540.20
  131.16        2969.25           2417       40853.00    179171.40
  131.19        2969.50           2420       38610.00    169277.10
  131.22        2969.75           2424       35522.00    155666.10
  131.25        2970.00           2427       32920.00    144207.10
  131.28        2970.25           2431       29384.00    128649.10
  131.31        2970.50           2434       26612.00    116464.20
  131.34        2970.75           2438       23359.00    102177.80
  131.37        2971.00           2441       20801.00     90953.46
  131.40        2971.25           2445       17451.00     76266.83
  131.43        2971.50           2449       14338.00     62632.37
  131.46        2971.75           2452       11961.00     52229.99
  131.50        2972.00           2456        8836.00     38565.36
  131.53        2972.25           2459        6444.00     28114.48
  131.56        2972.50           2463        3479.00     15170.42
  131.59        2972.75           2466        1710.00      7453.07
  131.62        2973.00           2470         479.00      2085.15
  131.65        2973.25           2473         273.00      1187.06
  131.68        2973.50           2477         220.00       956.00
  131.71        2973.75           2481         198.00       860.09
  131.74        2974.00           2484         202.00       877.53
  131.77        2974.25           2488         192.00       833.94
  131.80        2974.50           2491         172.00       746.75
  131.83        2974.75           2495         172.00       746.75
  131.86        2975.00           2498         181.00       785.98
  131.89        2975.25           2502         183.00       794.70
  131.92        2975.50           2505         159.00       690.08
  131.95        2975.75           2509         169.00       733.67
  131.98        2976.00           2512         175.00       759.83
  132.02        2976.25           2516         161.00       698.80
  132.05        2976.50           2520         151.00       655.20
  132.08        2976.75           2523         154.00       668.28
  132.11        2977.00           2527         155.00       672.64
  132.14        2977.25           2530         161.00       698.80
  132.17        2977.50           2534         150.00       650.84
  132.20        2977.75           2537         149.00       646.48
  132.23        2978.00           2541         145.00       629.05
  132.26        2978.25           2544         171.00       742.39
  132.29        2978.50           2548         157.00       681.36
  132.32        2978.75           2552         156.00       677.00
  132.35        2979.00           2555         167.00       724.95
  132.38        2979.25           2559         139.00       602.89
  132.41        2979.50           2562         144.00       624.69
  132.44        2979.75           2566         141.00       611.61
  132.47        2980.00           2569         140.00       607.25
  132.50        2980.25           2573         162.00       703.16
  132.54        2980.50           2577         141.00       611.61
  132.57        2980.75           2580         133.00       576.73
  132.60        2981.00           2584         150.00       650.84
  132.63        2981.25           2587         142.00       615.97
  132.66        2981.50           2591         163.00       707.51
  132.69        2981.75           2594         139.00       602.89
  132.72        2982.00           2598         148.00       642.12
  132.75        2982.25           2601         128.00       554.94
  132.78        2982.50           2605         137.00       594.17
  132.81        2982.75           2609         159.00       690.08
  132.84        2983.00           2612         167.00       724.95
  132.87        2983.25           2616         122.00       528.78
  132.90        2983.50           2619         175.00       759.83
  132.93        2983.75           2623         112.00       485.19
  132.96        2984.00           2626         135.00       585.45
HS scan finished at 02:13:11
end
************************************************************
  HS Scan of (1) Internal mercury lamp
************************************************************
Integration time is 0.2294 seconds per sample
dh030418Reading 51.44 .94 3.09pr1000
************************************************************
Dead Time -------------------------  3.4E-08 
Number of Cycles Used -------------  4 
Starting Wavelength (Angstroms) ---  2950 
Final Wavelength (Angstoms) -------  2984 
Wavelength Increment (Angstroms) --  .25 
Filter Wheel #1 Position ---------- (1) Ground quartz diffuser (ND=2.32)
Filter Wheel #2 Position ---------- (1) Neutral Density 0.494



************************************************************
HS scan start time = 19:37:23
Dark Count =  1 


Time (GMT)  Wavelength (Ang)  Step Number  Raw Counts  Counts/Second

 1178.29        2950.00           2144         126.00       544.91
 1178.48        2950.25           2147         143.00       619.02
 1178.51        2950.50           2151         138.00       597.22
 1178.54        2950.75           2155         119.00       514.39
 1178.57        2951.00           2158         121.00       523.11
 1178.61        2951.25           2162         149.00       645.18
 1178.64        2951.50           2165         120.00       518.75
 1178.67        2951.75           2169         118.00       510.03
 1178.70        2952.00           2172         124.00       536.19
 1178.73        2952.25           2176         146.00       632.10
 1178.76        2952.50           2179         156.00       675.69
 1178.79        2952.75           2183         124.00       536.19
 1178.82        2953.00           2186         118.00       510.03
 1178.85        2953.25           2190         119.00       514.39
 1178.88        2953.50           2193         125.00       540.55
 1178.91        2953.75           2197         134.00       579.78
 1178.94        2954.00           2200         129.00       557.99
 1178.97        2954.25           2204         142.00       614.66
 1179.00        2954.50           2208         137.00       592.86
 1179.03        2954.75           2211         132.00       571.07
 1179.06        2955.00           2215         166.00       719.29
 1179.09        2955.25           2218         132.00       571.07
 1179.13        2955.50           2222         130.00       562.35
 1179.16        2955.75           2225         132.00       571.07
 1179.19        2956.00           2229         157.00       680.05
 1179.22        2956.25           2232         150.00       649.53
 1179.25        2956.50           2236         153.00       662.61
 1179.28        2956.75           2239         150.00       649.53
 1179.31        2957.00           2243         142.00       614.66
 1179.34        2957.25           2246         163.00       706.21
 1179.37        2957.50           2250         167.00       723.64
 1179.40        2957.75           2254         147.00       636.46
 1179.43        2958.00           2257         158.00       684.41
 1179.46        2958.25           2261         166.00       719.29
 1179.49        2958.50           2264         169.00       732.36
 1179.52        2958.75           2268         144.00       623.38
 1179.55        2959.00           2271         170.00       736.72
 1179.58        2959.25           2275         159.00       688.77
 1179.61        2959.50           2278         171.00       741.08
 1179.64        2959.75           2282         165.00       714.93
 1179.68        2960.00           2285         166.00       719.29
 1179.71        2960.25           2289         184.00       797.75
 1179.74        2960.50           2293         179.00       775.96
 1179.77        2960.75           2296         195.00       845.71
 1179.80        2961.00           2300         254.00      1102.92
 1179.84        2961.25           2303         545.00      2371.60
 1179.87        2961.50           2307        1929.00      8406.94
 1179.90        2961.75           2310        3568.00     15557.49
 1179.93        2962.00           2314        6409.00     27960.31
 1179.96        2962.25           2317        8750.00     38188.18
 1179.99        2962.50           2321       11792.00     51489.37
 1180.02        2962.75           2324       14378.00     62806.17
 1180.05        2963.00           2328       17248.00     75376.02
 1180.08        2963.25           2331       19447.00     85014.34
 1180.11        2963.50           2335       22482.00     98327.31
 1180.14        2963.75           2339       26114.00    114274.90
 1180.17        2964.00           2342       28598.00    125191.70
 1180.20        2964.25           2346       31810.00    139320.10
 1180.23        2964.50           2349       33890.00    148476.50
 1180.26        2964.75           2353       37022.00    162274.70
 1180.29        2965.00           2356       39078.00    171339.60
 1180.32        2965.25           2360       42159.00    184934.30
 1180.36        2965.50           2363       44557.00    195523.90
 1180.39        2965.75           2367       47456.00    208336.30
 1180.42        2966.00           2370       49503.00    217389.90
 1180.45        2966.25           2374       51984.00    228370.50
 1180.48        2966.50           2378       53198.00    233746.60
 1180.51        2966.75           2381       53389.00    234592.60
 1180.54        2967.00           2385       53672.00    235846.20
 1180.57        2967.25           2388       53823.00    236515.10
 1180.60        2967.50           2392       53504.00    235102.00
 1180.63        2967.75           2395       53072.00    233188.50
 1180.66        2968.00           2399       51628.00    226794.40
 1180.69        2968.25           2402       49534.00    217527.00
 1180.72        2968.50           2406       46986.00    206258.30
 1180.75        2968.75           2409       44813.00    196654.90
 1180.78        2969.00           2413       42069.00    184537.00
 1180.81        2969.25           2417       38900.00    170554.60
 1180.84        2969.50           2420       36460.00    159797.90
 1180.88        2969.75           2424       33412.00    146371.80
 1180.91        2970.00           2427       31030.00    135888.00
 1180.94        2970.25           2431       28022.00    122659.60
 1180.97        2970.50           2434       25916.00    113405.00
 1181.00        2970.75           2438       22261.00     97357.49
 1181.03        2971.00           2441       19654.00     85921.96
 1181.06        2971.25           2445       16302.00     71231.60
 1181.09        2971.50           2449       13292.00     58052.58
 1181.12        2971.75           2452       11219.00     48982.99
 1181.15        2972.00           2456        8203.00     35797.68
 1181.18        2972.25           2459        5839.00     25471.05
 1181.21        2972.50           2463        3235.00     14104.41
 1181.24        2972.75           2466        1672.00      7286.02
 1181.27        2973.00           2470         459.00      1996.65
 1181.30        2973.25           2473         253.00      1098.56
 1181.33        2973.50           2477         201.00       871.87
 1181.36        2973.75           2481         187.00       810.83
 1181.40        2974.00           2484         184.00       797.75
 1181.43        2974.25           2488         187.00       810.83
 1181.46        2974.50           2491         175.00       758.52
 1181.49        2974.75           2495         171.00       741.08
 1181.52        2975.00           2498         168.00       728.00
 1181.55        2975.25           2502         169.00       732.36
 1181.58        2975.50           2505         156.00       675.69
 1181.61        2975.75           2509         169.00       732.36
 1181.64        2976.00           2512         160.00       693.13
 1181.67        2976.25           2516         148.00       640.82
 1181.70        2976.50           2520         162.00       701.85
 1181.73        2976.75           2523         154.00       666.97
 1181.76        2977.00           2527         151.00       653.89
 1181.79        2977.25           2530         141.00       610.30
 1181.82        2977.50           2534         158.00       684.41
 1181.85        2977.75           2537         141.00       610.30
 1181.88        2978.00           2541         166.00       719.29
 1181.91        2978.25           2544         134.00       579.78
 1181.95        2978.50           2548         135.00       584.14
 1181.98        2978.75           2552         143.00       619.02
 1182.01        2979.00           2555         128.00       553.63
 1182.04        2979.25           2559         128.00       553.63
 1182.07        2979.50           2562         123.00       531.83
 1182.10        2979.75           2566         136.00       588.50
 1182.13        2980.00           2569         130.00       562.35
 1182.16        2980.25           2573         136.00       588.50
 1182.19        2980.50           2577         122.00       527.47
 1182.22        2980.75           2580         172.00       745.44
 1182.25        2981.00           2584         143.00       619.02
 1182.28        2981.25           2587         119.00       514.39
 1182.31        2981.50           2591         131.00       566.71
 1182.34        2981.75           2594         119.00       514.39
 1182.37        2982.00           2598         115.00       496.96
 1182.40        2982.25           2601         131.00       566.71
 1182.44        2982.50           2605         110.00       475.16
 1182.47        2982.75           2609         129.00       557.99
 1182.50        2983.00           2612         116.00       501.32
 1182.53        2983.25           2616         113.00       488.24
 1182.56        2983.50           2619         118.00       510.03
 1182.59        2983.75           2623         149.00       645.18
 1182.62        2984.00           2626         121.00       523.11
HS scan finished at 19:42:50
end
