************************************************************
  HS Scan of 
************************************************************
Integration time is 0.2294 seconds per sample
dh050417Reading 51.44 .94 2.9pr1000
************************************************************
Dead Time -------------------------  3.4E-08 
Number of Cycles Used -------------  4 
Starting Wavelength (Angstroms) ---  2950 
Final Wavelength (Angstoms) -------  2984 
Wavelength Increment (Angstroms) --  .25 
Filter Wheel #1 Position ---------- (1) Ground quartz diffuser (ND=2.32)
Filter Wheel #2 Position ---------- (1) Neutral Density 0.494



************************************************************
HS scan start time = 01:54:32
Dark Count =  .8 


Time (GMT)  Wavelength (Ang)  Step Number  Raw Counts  Counts/Second

  115.43        2950.00           2144         753.00      3279.35
  115.63        2950.25           2147         778.00      3388.36
  115.66        2950.50           2151         751.00      3270.63
  115.69        2950.75           2155         773.00      3366.56
  115.72        2951.00           2158         792.00      3449.40
  115.75        2951.25           2162         781.00      3401.44
  115.78        2951.50           2165         782.00      3405.80
  115.81        2951.75           2169         810.00      3527.89
  115.84        2952.00           2172         805.00      3506.09
  115.87        2952.25           2176         801.00      3488.64
  115.90        2952.50           2179         783.00      3410.16
  115.93        2952.75           2183         787.00      3427.60
  115.96        2953.00           2186         829.00      3610.73
  115.99        2953.25           2190         819.00      3567.13
  116.02        2953.50           2193         812.00      3536.61
  116.05        2953.75           2197         825.00      3593.29
  116.08        2954.00           2200         819.00      3567.13
  116.12        2954.25           2204         813.00      3540.97
  116.15        2954.50           2208         840.00      3658.69
  116.18        2954.75           2211         830.00      3615.09
  116.21        2955.00           2215         826.00      3597.65
  116.24        2955.25           2218         846.00      3684.86
  116.27        2955.50           2222         862.00      3754.62
  116.30        2955.75           2225         891.00      3881.07
  116.33        2956.00           2229         874.00      3806.94
  116.36        2956.25           2232         881.00      3837.47
  116.39        2956.50           2236         890.00      3876.71
  116.42        2956.75           2239         853.00      3715.38
  116.45        2957.00           2243         870.00      3789.50
  116.48        2957.25           2246         903.00      3933.39
  116.51        2957.50           2250         874.00      3806.94
  116.54        2957.75           2254         926.00      4033.68
  116.57        2958.00           2257         914.00      3981.36
  116.60        2958.25           2261         920.00      4007.52
  116.64        2958.50           2264         920.00      4007.52
  116.67        2958.75           2268         975.00      4247.34
  116.70        2959.00           2271         981.00      4273.51
  116.73        2959.25           2275         966.00      4208.10
  116.76        2959.50           2278         992.00      4321.47
  116.79        2959.75           2282         999.00      4352.00
  116.82        2960.00           2285        1035.00      4508.97
  116.85        2960.25           2289        1021.00      4447.93
  116.88        2960.50           2293        1097.00      4779.33
  116.91        2960.75           2296        1065.00      4639.79
  116.94        2961.00           2300        1165.00      5075.85
  116.97        2961.25           2303        1373.00      5982.91
  117.00        2961.50           2307        4159.00     18137.60
  117.03        2961.75           2310       11434.00     49924.25
  117.06        2962.00           2314       24135.00    105584.10
  117.09        2962.25           2317       33892.00    148486.20
  117.12        2962.50           2321       47094.00    206736.70
  117.16        2962.75           2324       57951.00    254814.50
  117.19        2963.00           2328       72493.00    319459.00
  117.22        2963.25           2331       83724.00    369581.00
  117.25        2963.50           2335       98695.00    436662.60
  117.28        2963.75           2339      112887.00    500539.60
  117.31        2964.00           2342      122914.00    545839.60
  117.34        2964.25           2346      137264.00    610916.00
  117.37        2964.50           2349      149415.00    666248.60
  117.40        2964.75           2353      164815.00    736680.30
  117.43        2965.00           2356      174407.00    780722.50
  117.46        2965.25           2360      186766.00    837667.30
  117.49        2965.50           2363      197417.00    886922.50
  117.52        2965.75           2367      211326.00    951497.80
  117.55        2966.00           2370      222036.00   1001418.00
  117.58        2966.25           2374      235157.00   1062812.00
  117.61        2966.50           2378      244224.00   1105391.00
  117.64        2966.75           2381      246467.00   1115943.00
  117.68        2967.00           2385      248022.00   1123263.00
  117.71        2967.25           2388      247967.00   1123004.00
  117.74        2967.50           2392      247948.00   1122915.00
  117.77        2967.75           2395      246842.00   1117708.00
  117.80        2968.00           2399      241554.00   1092839.00
  117.83        2968.25           2402      233852.00   1056694.00
  117.86        2968.50           2406      220667.00    995027.40
  117.89        2968.75           2409      210678.00    948482.70
  117.92        2969.00           2413      198297.00    890999.60
  117.95        2969.25           2417      184114.00    825429.30
  117.98        2969.50           2420      173264.00    775467.40
  118.01        2969.75           2424      158019.00    705556.80
  118.04        2970.00           2427      146846.00    654532.50
  118.07        2970.25           2431      132498.00    589270.20
  118.10        2970.50           2434      122157.00    542414.60
  118.13        2970.75           2438      107906.00    478088.70
  118.16        2971.00           2441       96346.00    426116.90
  118.20        2971.25           2445       80838.00    356684.90
  118.23        2971.50           2449       66767.00    293970.70
  118.26        2971.75           2452       56852.00    249940.60
  118.29        2972.00           2456       42978.00    188551.00
  118.32        2972.25           2459       32775.00    143568.30
  118.35        2972.50           2463       18063.00     78948.33
  118.38        2972.75           2466        9001.00     39286.10
  118.41        2973.00           2470        2793.00     12176.79
  118.44        2973.25           2473        1418.00      6179.15
  118.47        2973.50           2477        1183.00      5154.35
  118.50        2973.75           2481        1132.00      4931.95
  118.53        2974.00           2484        1110.00      4836.02
  118.56        2974.25           2488        1079.00      4700.84
  118.59        2974.50           2491        1048.00      4565.66
  118.62        2974.75           2495        1038.00      4522.06
  118.65        2975.00           2498        1003.00      4369.44
  118.68        2975.25           2502         999.00      4352.00
  118.72        2975.50           2505         979.00      4264.79
  118.75        2975.75           2509         985.00      4290.95
  118.78        2976.00           2512         997.00      4343.27
  118.81        2976.25           2516         926.00      4033.68
  118.84        2976.50           2520         930.00      4051.13
  118.87        2976.75           2523         909.00      3959.56
  118.90        2977.00           2527         947.00      4125.25
  118.93        2977.25           2530         931.00      4055.49
  118.96        2977.50           2534         911.00      3968.28
  118.99        2977.75           2537         905.00      3942.12
  119.02        2978.00           2541         866.00      3772.06
  119.05        2978.25           2544         908.00      3955.20
  119.08        2978.50           2548         851.00      3706.66
  119.11        2978.75           2552         878.00      3824.39
  119.14        2979.00           2555         830.00      3615.09
  119.17        2979.25           2559         850.00      3702.30
  119.20        2979.50           2562         852.00      3711.02
  119.24        2979.75           2566         816.00      3554.05
  119.27        2980.00           2569         800.00      3484.28
  119.30        2980.25           2573         816.00      3554.05
  119.33        2980.50           2577         824.00      3588.93
  119.36        2980.75           2580         825.00      3593.29
  119.39        2981.00           2584         819.00      3567.13
  119.42        2981.25           2587         828.00      3606.37
  119.45        2981.50           2591         819.00      3567.13
  119.48        2981.75           2594         810.00      3527.89
  119.51        2982.00           2598         801.00      3488.64
  119.54        2982.25           2601         782.00      3405.80
  119.57        2982.50           2605         792.00      3449.40
  119.60        2982.75           2609         764.00      3327.32
  119.63        2983.00           2612         797.00      3471.20
  119.66        2983.25           2616         790.00      3440.68
  119.69        2983.50           2619         791.00      3445.04
  119.72        2983.75           2623         761.00      3314.24
  119.75        2984.00           2626         770.00      3353.48
HS scan finished at 01:59:59
end
************************************************************
  HS Scan of 
************************************************************
Integration time is 0.2294 seconds per sample
dh050417Reading 51.44 .94 3.23pr1000
************************************************************
Dead Time -------------------------  3.4E-08 
Number of Cycles Used -------------  4 
Starting Wavelength (Angstroms) ---  2950 
Final Wavelength (Angstoms) -------  2984 
Wavelength Increment (Angstroms) --  .25 
Filter Wheel #1 Position ---------- (1) Ground quartz diffuser (ND=2.32)
Filter Wheel #2 Position ---------- (1) Neutral Density 0.494



************************************************************
HS scan start time = 19:37:28
Dark Count =  1.5 


Time (GMT)  Wavelength (Ang)  Step Number  Raw Counts  Counts/Second

 1178.36        2950.00           2144         732.00      3184.74
 1178.55        2950.25           2147         739.00      3215.26
 1178.58        2950.50           2151         729.00      3171.66
 1178.62        2950.75           2155         738.00      3210.90
 1178.65        2951.00           2158         753.00      3276.30
 1178.68        2951.25           2162         718.00      3123.70
 1178.71        2951.50           2165         740.00      3219.62
 1178.74        2951.75           2169         737.00      3206.54
 1178.77        2952.00           2172         764.00      3324.26
 1178.80        2952.25           2176         759.00      3302.46
 1178.83        2952.50           2179         770.00      3350.43
 1178.86        2952.75           2183         745.00      3241.42
 1178.89        2953.00           2186         769.00      3346.07
 1178.92        2953.25           2190         776.00      3376.59
 1178.95        2953.50           2193         770.00      3350.43
 1178.98        2953.75           2197         785.00      3415.83
 1179.01        2954.00           2200         787.00      3424.55
 1179.04        2954.25           2204         787.00      3424.55
 1179.07        2954.50           2208         807.00      3511.75
 1179.10        2954.75           2211         798.00      3472.51
 1179.14        2955.00           2215         779.00      3389.67
 1179.17        2955.25           2218         782.00      3402.75
 1179.20        2955.50           2222         830.00      3612.04
 1179.23        2955.75           2225         825.00      3590.24
 1179.26        2956.00           2229         816.00      3551.00
 1179.29        2956.25           2232         851.00      3703.60
 1179.32        2956.50           2236         838.00      3646.92
 1179.35        2956.75           2239         846.00      3681.80
 1179.38        2957.00           2243         874.00      3803.89
 1179.41        2957.25           2246         868.00      3777.73
 1179.45        2957.50           2250         850.00      3699.24
 1179.49        2957.75           2254         864.00      3760.29
 1179.52        2958.00           2257         900.00      3917.26
 1179.55        2958.25           2261         894.00      3891.10
 1179.58        2958.50           2264         905.00      3939.06
 1179.61        2958.75           2268         914.00      3978.31
 1179.64        2959.00           2271         923.00      4017.55
 1179.67        2959.25           2275         917.00      3991.39
 1179.70        2959.50           2278         945.00      4113.48
 1179.73        2959.75           2282         979.00      4261.73
 1179.76        2960.00           2285         980.00      4266.09
 1179.79        2960.25           2289         984.00      4283.54
 1179.82        2960.50           2293        1055.00      4593.13
 1179.85        2960.75           2296        1016.00      4423.07
 1179.88        2961.00           2300        1117.00      4863.49
 1179.92        2961.25           2303        1462.00      6367.99
 1179.95        2961.50           2307        4773.00     20814.64
 1179.98        2961.75           2310       11465.00     50056.79
 1180.01        2962.00           2314       23718.00    103750.30
 1180.04        2962.25           2317       34619.00    151684.80
 1180.07        2962.50           2321       48701.00    213839.90
 1180.10        2962.75           2324       58164.00    255756.20
 1180.13        2963.00           2328       71472.00    314907.80
 1180.16        2963.25           2331       81520.00    359728.20
 1180.19        2963.50           2335       96538.00    426975.40
 1180.22        2963.75           2339      112944.00    500793.60
 1180.25        2964.00           2342      124910.00    554870.70
 1180.28        2964.25           2346      139391.00    620583.50
 1180.31        2964.50           2349      149014.00    664416.00
 1180.34        2964.75           2353      163492.00    730613.00
 1180.37        2965.00           2356      173895.00    778365.00
 1180.40        2965.25           2360      187117.00    839284.60
 1180.43        2965.50           2363      196979.00    884890.50
 1180.47        2965.75           2367      209556.00    943260.80
 1180.50        2966.00           2370      219883.00    991365.50
 1180.53        2966.25           2374      232320.00   1049512.00
 1180.56        2966.50           2378      239976.00   1085423.00
 1180.59        2966.75           2381      241737.00   1093696.00
 1180.62        2967.00           2385      242305.00   1096365.00
 1180.65        2967.25           2388      242317.00   1096422.00
 1180.68        2967.50           2392      242087.00   1095341.00
 1180.71        2967.75           2395      241118.00   1090787.00
 1180.74        2968.00           2399      236109.00   1067274.00
 1180.77        2968.25           2402      227955.00   1029078.00
 1180.80        2968.50           2406      216222.00    974293.80
 1180.83        2968.75           2409      206052.00    926974.90
 1180.86        2969.00           2413      192297.00    863221.10
 1180.89        2969.25           2417      178331.00    798775.10
 1180.92        2969.50           2420      167921.00    750923.80
 1180.96        2969.75           2424      153400.00    684438.00
 1180.99        2970.00           2427      142820.00    636187.30
 1181.02        2970.25           2431      128665.00    571882.00
 1181.05        2970.50           2434      119015.00    528204.80
 1181.08        2970.75           2438      105504.00    467271.30
 1181.11        2971.00           2441       94830.00    419311.80
 1181.14        2971.25           2445       80192.00    353796.70
 1181.17        2971.50           2449       65454.00    288129.30
 1181.20        2971.75           2452       54005.00    237319.10
 1181.23        2972.00           2456       39932.00    175104.40
 1181.26        2972.25           2459       30739.00    134605.50
 1181.29        2972.50           2463       19550.00     85463.76
 1181.32        2972.75           2466       10648.00     46483.61
 1181.35        2973.00           2470        3305.00     14407.67
 1181.38        2973.25           2473        1581.00      6886.97
 1181.41        2973.50           2477        1174.00      5112.05
 1181.44        2973.75           2481        1101.00      4793.72
 1181.48        2974.00           2484        1070.00      4658.54
 1181.51        2974.25           2488        1069.00      4654.18
 1181.54        2974.50           2491         995.00      4331.50
 1181.57        2974.75           2495         978.00      4257.37
 1181.60        2975.00           2498         947.00      4122.20
 1181.63        2975.25           2502         946.00      4117.84
 1181.66        2975.50           2505         956.00      4161.44
 1181.69        2975.75           2509         924.00      4021.91
 1181.72        2976.00           2512         923.00      4017.55
 1181.75        2976.25           2516         956.00      4161.44
 1181.78        2976.50           2520         928.00      4039.35
 1181.81        2976.75           2523         886.00      3856.22
 1181.84        2977.00           2527         876.00      3812.61
 1181.87        2977.25           2530         861.00      3747.21
 1181.90        2977.50           2534         879.00      3825.69
 1181.93        2977.75           2537         856.00      3725.41
 1181.96        2978.00           2541         846.00      3681.80
 1182.00        2978.25           2544         835.00      3633.84
 1182.03        2978.50           2548         807.00      3511.75
 1182.06        2978.75           2552         827.00      3598.96
 1182.09        2979.00           2555         838.00      3646.92
 1182.12        2979.25           2559         837.00      3642.56
 1182.15        2979.50           2562         795.00      3459.43
 1182.18        2979.75           2566         813.00      3537.91
 1182.21        2980.00           2569         803.00      3494.31
 1182.24        2980.25           2573         794.00      3455.07
 1182.27        2980.50           2577         799.00      3476.87
 1182.30        2980.75           2580         787.00      3424.55
 1182.33        2981.00           2584         787.00      3424.55
 1182.36        2981.25           2587         759.00      3302.46
 1182.39        2981.50           2591         773.00      3363.51
 1182.42        2981.75           2594         763.00      3319.90
 1182.45        2982.00           2598         764.00      3324.26
 1182.48        2982.25           2601         765.00      3328.62
 1182.52        2982.50           2605         746.00      3245.78
 1182.55        2982.75           2609         753.00      3276.30
 1182.58        2983.00           2612         744.00      3237.06
 1182.61        2983.25           2616         757.00      3293.74
 1182.64        2983.50           2619         718.00      3123.70
 1182.67        2983.75           2623         742.00      3228.34
 1182.70        2984.00           2626         709.00      3084.46
HS scan finished at 19:42:55
end
