************************************************************
  HS Scan of (1) Internal mercury lamp
************************************************************
Integration time is 0.2294 seconds per sample
dh040418Reading 51.44 .94 3pr1000
************************************************************
Dead Time -------------------------  3.4E-08 
Number of Cycles Used -------------  4 
Starting Wavelength (Angstroms) ---  2950 
Final Wavelength (Angstoms) -------  2984 
Wavelength Increment (Angstroms) --  .25 
Filter Wheel #1 Position ---------- (1) Ground quartz diffuser (ND=2.32)
Filter Wheel #2 Position ---------- (1) Neutral Density 0.494



************************************************************
HS scan start time = 19:37:29
Dark Count =  .9 


Time (GMT)  Wavelength (Ang)  Step Number  Raw Counts  Counts/Second

 1178.37        2950.00           2144         125.00       540.99
 1178.57        2950.25           2147         102.00       440.72
 1178.60        2950.50           2151         106.00       458.16
 1178.63        2950.75           2155         120.00       519.19
 1178.66        2951.00           2158         103.00       445.08
 1178.69        2951.25           2162         102.00       440.72
 1178.72        2951.50           2165         107.00       462.52
 1178.75        2951.75           2169         103.00       445.08
 1178.78        2952.00           2172         146.00       632.53
 1178.81        2952.25           2176         116.00       501.75
 1178.84        2952.50           2179         139.00       602.02
 1178.87        2952.75           2183         117.00       506.11
 1178.90        2953.00           2186         117.00       506.11
 1178.93        2953.25           2190         122.00       527.91
 1178.97        2953.50           2193         126.00       545.35
 1179.00        2953.75           2197         128.00       554.06
 1179.03        2954.00           2200         139.00       602.02
 1179.06        2954.25           2204         112.00       484.31
 1179.09        2954.50           2208         139.00       602.02
 1179.12        2954.75           2211         123.00       532.27
 1179.15        2955.00           2215         108.00       466.88
 1179.18        2955.25           2218         125.00       540.99
 1179.21        2955.50           2222         113.00       488.67
 1179.24        2955.75           2225         125.00       540.99
 1179.27        2956.00           2229         136.00       588.94
 1179.30        2956.25           2232         166.00       719.72
 1179.33        2956.50           2236         121.00       523.55
 1179.36        2956.75           2239         164.00       711.00
 1179.39        2957.00           2243         140.00       606.38
 1179.42        2957.25           2246         132.00       571.50
 1179.45        2957.50           2250         146.00       632.53
 1179.49        2957.75           2254         127.00       549.71
 1179.52        2958.00           2257         142.00       615.10
 1179.55        2958.25           2261         131.00       567.14
 1179.58        2958.50           2264         143.00       619.46
 1179.61        2958.75           2268         139.00       602.02
 1179.64        2959.00           2271         140.00       606.38
 1179.67        2959.25           2275         166.00       719.72
 1179.70        2959.50           2278         155.00       671.77
 1179.73        2959.75           2282         139.00       602.02
 1179.76        2960.00           2285         157.00       680.49
 1179.79        2960.25           2289         164.00       711.00
 1179.82        2960.50           2293         159.00       689.21
 1179.85        2960.75           2296         171.00       741.52
 1179.88        2961.00           2300         189.00       819.99
 1179.91        2961.25           2303         325.00      1412.88
 1179.94        2961.50           2307        1418.00      6178.72
 1179.97        2961.75           2310        2856.00     12451.22
 1180.01        2962.00           2314        5117.00     22319.02
 1180.04        2962.25           2317        6967.00     30398.01
 1180.07        2962.50           2321        9407.00     41060.33
 1180.10        2962.75           2324       11499.00     50208.13
 1180.13        2963.00           2328       14072.00     61467.04
 1180.16        2963.25           2331       16324.00     71328.40
 1180.19        2963.50           2335       18946.00     82818.31
 1180.22        2963.75           2339       21726.00     95010.43
 1180.25        2964.00           2342       24047.00    105197.30
 1180.28        2964.25           2346       26956.00    117974.90
 1180.31        2964.50           2349       28991.00    126920.10
 1180.34        2964.75           2353       31790.00    139232.50
 1180.37        2965.00           2356       34027.00    149080.30
 1180.40        2965.25           2360       36458.00    159789.50
 1180.43        2965.50           2363       38616.00    169302.60
 1180.48        2965.75           2367       41169.00    180565.00
 1180.51        2966.00           2370       42856.00    188011.90
 1180.54        2966.25           2374       44851.00    196823.20
 1180.57        2966.50           2378       46420.00    203756.80
 1180.60        2966.75           2381       46753.00    205228.70
 1180.63        2967.00           2385       46858.00    205692.90
 1180.66        2967.25           2388       47011.00    206369.30
 1180.69        2967.50           2392       46785.00    205370.20
 1180.72        2967.75           2395       46614.00    204614.30
 1180.75        2968.00           2399       45243.00    198555.20
 1180.79        2968.25           2402       43500.00    190855.70
 1180.82        2968.50           2406       40837.00    179099.90
 1180.85        2968.75           2409       39050.00    171216.60
 1180.88        2969.00           2413       36810.00    161340.80
 1180.91        2969.25           2417       34106.00    149428.10
 1180.94        2969.50           2420       32049.00    140372.40
 1180.97        2969.75           2424       29085.00    127333.40
 1181.00        2970.00           2427       27107.00    118638.50
 1181.03        2970.25           2431       24163.00    105706.60
 1181.06        2970.50           2434       22179.00     96998.09
 1181.09        2970.75           2438       19548.00     85457.62
 1181.12        2971.00           2441       17664.00     77199.31
 1181.15        2971.25           2445       15087.00     65910.84
 1181.18        2971.50           2449       12395.00     54127.86
 1181.21        2971.75           2452       10256.00     44772.12
 1181.24        2972.00           2456        7470.00     32595.39
 1181.27        2972.25           2459        5480.00     23903.90
 1181.31        2972.50           2463        3308.00     14423.38
 1181.34        2972.75           2466        1870.00      8150.04
 1181.37        2973.00           2470         615.00      2677.23
 1181.40        2973.25           2473         261.00      1133.87
 1181.43        2973.50           2477         188.00       815.63
 1181.46        2973.75           2481         168.00       728.44
 1181.49        2974.00           2484         170.00       737.16
 1181.52        2974.25           2488         163.00       706.64
 1181.55        2974.50           2491         152.00       658.69
 1181.58        2974.75           2495         156.00       676.13
 1181.61        2975.00           2498         160.00       693.56
 1181.64        2975.25           2502         153.00       663.05
 1181.67        2975.50           2505         163.00       706.64
 1181.70        2975.75           2509         144.00       623.81
 1181.73        2976.00           2512         150.00       649.97
 1181.76        2976.25           2516         143.00       619.46
 1181.79        2976.50           2520         134.00       580.22
 1181.82        2976.75           2523         128.00       554.06
 1181.86        2977.00           2527         160.00       693.56
 1181.89        2977.25           2530         135.00       584.58
 1181.92        2977.50           2534         152.00       658.69
 1181.95        2977.75           2537         128.00       554.06
 1181.98        2978.00           2541         135.00       584.58
 1182.01        2978.25           2544         164.00       711.00
 1182.04        2978.50           2548         123.00       532.27
 1182.07        2978.75           2552         124.00       536.63
 1182.10        2979.00           2555         105.00       453.80
 1182.13        2979.25           2559         147.00       636.89
 1182.16        2979.50           2562         137.00       593.30
 1182.19        2979.75           2566         120.00       519.19
 1182.22        2980.00           2569         142.00       615.10
 1182.25        2980.25           2573         127.00       549.71
 1182.28        2980.50           2577         107.00       462.52
 1182.31        2980.75           2580         104.00       449.44
 1182.34        2981.00           2584         109.00       471.24
 1182.38        2981.25           2587         121.00       523.55
 1182.41        2981.50           2591         127.00       549.71
 1182.44        2981.75           2594         104.00       449.44
 1182.47        2982.00           2598         122.00       527.91
 1182.50        2982.25           2601         100.00       432.00
 1182.53        2982.50           2605         102.00       440.72
 1182.56        2982.75           2609          98.00       423.28
 1182.59        2983.00           2612         110.00       475.60
 1182.62        2983.25           2616         142.00       615.10
 1182.65        2983.50           2619         101.00       436.36
 1182.68        2983.75           2623          95.00       410.21
 1182.71        2984.00           2626          97.00       418.92
HS scan finished at 19:42:56
end
