************************************************************
  HS Scan of (1) Internal mercury lamp
************************************************************
Integration time is 0.2294 seconds per sample
dh060418Reading 51.44 .94 2.6pr1000
************************************************************
Dead Time -------------------------  3.4E-08 
Number of Cycles Used -------------  4 
Starting Wavelength (Angstroms) ---  2950 
Final Wavelength (Angstoms) -------  2984 
Wavelength Increment (Angstroms) --  .25 
Filter Wheel #1 Position ---------- (1) Ground quartz diffuser (ND=2.32)
Filter Wheel #2 Position ---------- (1) Neutral Density 0.494



************************************************************
HS scan start time = 01:49:36
Dark Count =  .4 


Time (GMT)  Wavelength (Ang)  Step Number  Raw Counts  Counts/Second

  110.50        2950.00           2144         143.00       621.63
  110.69        2950.25           2147         129.00       560.60
  110.72        2950.50           2151         134.00       582.40
  110.75        2950.75           2155         145.00       630.35
  110.78        2951.00           2158         148.00       643.43
  110.81        2951.25           2162         126.00       547.53
  110.84        2951.50           2165         129.00       560.60
  110.87        2951.75           2169         139.00       604.20
  110.91        2952.00           2172         133.00       578.04
  110.94        2952.25           2176         138.00       599.84
  110.97        2952.50           2179         147.00       639.07
  111.00        2952.75           2183         146.00       634.71
  111.03        2953.00           2186         133.00       578.04
  111.06        2953.25           2190         141.00       612.92
  111.09        2953.50           2193         170.00       739.34
  111.12        2953.75           2197         145.00       630.35
  111.15        2954.00           2200         137.00       595.48
  111.18        2954.25           2204         147.00       639.07
  111.21        2954.50           2208         149.00       647.79
  111.24        2954.75           2211         145.00       630.35
  111.27        2955.00           2215         151.00       656.51
  111.30        2955.25           2218         137.00       595.48
  111.33        2955.50           2222         134.00       582.40
  111.36        2955.75           2225         139.00       604.20
  111.39        2956.00           2229         163.00       708.82
  111.43        2956.25           2232         142.00       617.28
  111.46        2956.50           2236         166.00       721.90
  111.49        2956.75           2239         145.00       630.35
  111.52        2957.00           2243         158.00       687.03
  111.55        2957.25           2246         170.00       739.34
  111.58        2957.50           2250         145.00       630.35
  111.61        2957.75           2254         151.00       656.51
  111.64        2958.00           2257         151.00       656.51
  111.67        2958.25           2261         168.00       730.62
  111.70        2958.50           2264         168.00       730.62
  111.73        2958.75           2268         167.00       726.26
  111.76        2959.00           2271         166.00       721.90
  111.79        2959.25           2275         169.00       734.98
  111.82        2959.50           2278         184.00       800.37
  111.85        2959.75           2282         178.00       774.21
  111.88        2960.00           2285         187.00       813.45
  111.91        2960.25           2289         190.00       826.53
  111.95        2960.50           2293         203.00       883.20
  111.98        2960.75           2296         207.00       900.64
  112.01        2961.00           2300         268.00      1166.57
  112.04        2961.25           2303         612.00      2666.33
  112.07        2961.50           2307        2155.00      9395.33
  112.10        2961.75           2310        4061.00     17711.62
  112.13        2962.00           2314        6969.00     30408.93
  112.16        2962.25           2317        9143.00     39908.52
  112.19        2962.50           2321       12245.00     53473.77
  112.22        2962.75           2324       14441.00     63084.60
  112.25        2963.00           2328       17273.00     75488.18
  112.28        2963.25           2331       19786.00     86503.38
  112.31        2963.50           2335       23149.00    101257.30
  112.34        2963.75           2339       26326.00    115208.90
  112.37        2964.00           2342       28897.00    126509.00
  112.40        2964.25           2346       31971.00    140031.30
  112.43        2964.50           2349       34435.00    150879.30
  112.47        2964.75           2353       37976.00    166482.90
  112.50        2965.00           2356       39960.00    175232.70
  112.53        2965.25           2360       43532.00    190999.20
  112.56        2965.50           2363       45727.00    200696.10
  112.59        2965.75           2367       48639.00    213570.50
  112.62        2966.00           2370       50617.00    222322.00
  112.65        2966.25           2374       53551.00    235312.80
  112.68        2966.50           2378       55133.00    242322.20
  112.71        2966.75           2381       55552.00    244179.30
  112.74        2967.00           2385       56049.00    246382.30
  112.77        2967.25           2388       56046.00    246369.00
  112.80        2967.50           2392       55777.00    245176.60
  112.83        2967.75           2395       55554.00    244188.10
  112.86        2968.00           2399       54429.00    239202.60
  112.89        2968.25           2402       52391.00    230175.30
  112.92        2968.50           2406       49292.00    216459.10
  112.95        2968.75           2409       46711.00    205045.30
  112.99        2969.00           2413       43139.00    189263.70
  113.02        2969.25           2417       39728.00    174209.30
  113.05        2969.50           2420       37394.00    163917.10
  113.08        2969.75           2424       34461.00    150993.80
  113.11        2970.00           2427       31912.00    139771.60
  113.14        2970.25           2431       28159.00    123264.40
  113.17        2970.50           2434       25747.00    112665.30
  113.20        2970.75           2438       22607.00     98878.50
  113.23        2971.00           2441       19873.00     86884.88
  113.26        2971.25           2445       16826.00     73529.71
  113.29        2971.50           2449       13531.00     59101.20
  113.32        2971.75           2452       11109.00     48504.52
  113.35        2972.00           2456        7990.00     34869.57
  113.38        2972.25           2459        5855.00     25543.54
  113.41        2972.50           2463        2817.00     12283.25
  113.44        2972.75           2466        1227.00      5347.96
  113.47        2973.00           2470         392.00      1707.16
  113.51        2973.25           2473         275.00      1197.08
  113.54        2973.50           2477         237.00      1031.42
  113.57        2973.75           2481         206.00       896.28
  113.60        2974.00           2484         211.00       918.08
  113.63        2974.25           2488         205.00       891.92
  113.66        2974.50           2491         190.00       826.53
  113.69        2974.75           2495         182.00       791.65
  113.72        2975.00           2498         188.00       817.81
  113.75        2975.25           2502         176.00       765.50
  113.78        2975.50           2505         178.00       774.21
  113.81        2975.75           2509         174.00       756.78
  113.84        2976.00           2512         167.00       726.26
  113.87        2976.25           2516         177.00       769.85
  113.90        2976.50           2520         183.00       796.01
  113.93        2976.75           2523         177.00       769.85
  113.96        2977.00           2527         165.00       717.54
  113.99        2977.25           2530         163.00       708.82
  114.03        2977.50           2534         152.00       660.87
  114.06        2977.75           2537         141.00       612.92
  114.09        2978.00           2541         166.00       721.90
  114.12        2978.25           2544         141.00       612.92
  114.15        2978.50           2548         155.00       673.95
  114.18        2978.75           2552         160.00       695.74
  114.21        2979.00           2555         157.00       682.67
  114.24        2979.25           2559         138.00       599.84
  114.27        2979.50           2562         140.00       608.56
  114.30        2979.75           2566         145.00       630.35
  114.33        2980.00           2569         160.00       695.74
  114.36        2980.25           2573         153.00       665.23
  114.39        2980.50           2577         142.00       617.28
  114.42        2980.75           2580         138.00       599.84
  114.45        2981.00           2584         146.00       634.71
  114.48        2981.25           2587         134.00       582.40
  114.51        2981.50           2591         133.00       578.04
  114.54        2981.75           2594         133.00       578.04
  114.58        2982.00           2598         127.00       551.88
  114.61        2982.25           2601         136.00       591.12
  114.64        2982.50           2605         131.00       569.32
  114.67        2982.75           2609         170.00       739.34
  114.70        2983.00           2612         153.00       665.23
  114.73        2983.25           2616         160.00       695.74
  114.76        2983.50           2619         130.00       564.96
  114.79        2983.75           2623         121.00       525.73
  114.82        2984.00           2626         115.00       499.57
HS scan finished at 01:55:03
end
************************************************************
  HS Scan of (1) Internal mercury lamp
************************************************************
Integration time is 0.2294 seconds per sample
dh060418Reading 51.44 .94 3.35pr1000
************************************************************
Dead Time -------------------------  3.4E-08 
Number of Cycles Used -------------  4 
Starting Wavelength (Angstroms) ---  2950 
Final Wavelength (Angstoms) -------  2984 
Wavelength Increment (Angstroms) --  .25 
Filter Wheel #1 Position ---------- (1) Ground quartz diffuser (ND=2.32)
Filter Wheel #2 Position ---------- (1) Neutral Density 0.494



************************************************************
HS scan start time = 19:37:28
Dark Count =  2.3 


Time (GMT)  Wavelength (Ang)  Step Number  Raw Counts  Counts/Second

 1178.37        2950.00           2144          72.00       303.84
 1178.56        2950.25           2147          74.00       312.56
 1178.59        2950.50           2151          76.00       321.28
 1178.62        2950.75           2155          70.00       295.12
 1178.65        2951.00           2158          77.00       325.64
 1178.69        2951.25           2162          78.00       329.99
 1178.72        2951.50           2165          78.00       329.99
 1178.75        2951.75           2169          77.00       325.64
 1178.78        2952.00           2172          84.00       356.15
 1178.81        2952.25           2176          77.00       325.64
 1178.84        2952.50           2179          76.00       321.28
 1178.87        2952.75           2183          73.00       308.20
 1178.90        2953.00           2186          78.00       329.99
 1178.93        2953.25           2190          79.00       334.35
 1178.96        2953.50           2193          91.00       386.67
 1178.99        2953.75           2197          82.00       347.43
 1179.02        2954.00           2200          79.00       334.35
 1179.05        2954.25           2204          78.00       329.99
 1179.08        2954.50           2208          77.00       325.64
 1179.11        2954.75           2211          82.00       347.43
 1179.14        2955.00           2215          83.00       351.79
 1179.17        2955.25           2218          75.00       316.92
 1179.21        2955.50           2222          78.00       329.99
 1179.24        2955.75           2225          80.00       338.71
 1179.27        2956.00           2229          88.00       373.59
 1179.30        2956.25           2232          81.00       343.07
 1179.33        2956.50           2236          87.00       369.23
 1179.36        2956.75           2239          86.00       364.87
 1179.39        2957.00           2243          87.00       369.23
 1179.42        2957.25           2246          90.00       382.31
 1179.45        2957.50           2250          96.00       408.46
 1179.48        2957.75           2254          89.00       377.95
 1179.51        2958.00           2257          94.00       399.74
 1179.54        2958.25           2261         100.00       425.90
 1179.57        2958.50           2264          91.00       386.67
 1179.60        2958.75           2268          98.00       417.18
 1179.63        2959.00           2271         110.00       469.49
 1179.66        2959.25           2275          85.00       360.51
 1179.69        2959.50           2278         101.00       430.26
 1179.72        2959.75           2282          98.00       417.18
 1179.76        2960.00           2285         100.00       425.90
 1179.79        2960.25           2289          94.00       399.74
 1179.82        2960.50           2293         108.00       460.77
 1179.85        2960.75           2296         123.00       526.16
 1179.88        2961.00           2300         134.00       574.12
 1179.91        2961.25           2303         207.00       892.35
 1179.94        2961.50           2307         703.00      3054.81
 1179.97        2961.75           2310        1528.00      6652.33
 1180.00        2962.00           2314        2920.00     12724.34
 1180.03        2962.25           2317        4012.00     17489.47
 1180.06        2962.50           2321        5542.00     24168.50
 1180.09        2962.75           2324        6829.00     29789.10
 1180.12        2963.00           2328        8560.00     37352.12
 1180.15        2963.25           2331        9910.00     43253.19
 1180.18        2963.50           2335       11586.00     50582.57
 1180.21        2963.75           2339       13104.00     57224.14
 1180.24        2964.00           2342       14356.00     62704.16
 1180.28        2964.25           2346       16335.00     71370.46
 1180.31        2964.50           2349       17647.00     77118.68
 1180.34        2964.75           2353       19462.00     85074.40
 1180.37        2965.00           2356       20881.00     91297.34
 1180.40        2965.25           2360       22462.00     98233.82
 1180.43        2965.50           2363       23806.00    104133.10
 1180.46        2965.75           2367       25395.00    111110.80
 1180.49        2966.00           2370       26287.00    115029.20
 1180.52        2966.25           2374       27629.00    120926.40
 1180.55        2966.50           2378       28743.00    125823.50
 1180.58        2966.75           2381       28822.00    126170.90
 1180.61        2967.00           2385       28963.00    126790.80
 1180.64        2967.25           2388       28835.00    126228.00
 1180.67        2967.50           2392       29052.00    127182.20
 1180.70        2967.75           2395       28636.00    125353.10
 1180.73        2968.00           2399       27795.00    121656.10
 1180.76        2968.25           2402       26585.00    116338.50
 1180.80        2968.50           2406       25004.00    109393.50
 1180.83        2968.75           2409       23767.00    103961.90
 1180.86        2969.00           2413       22141.00     96825.21
 1180.89        2969.25           2417       20637.00     90227.10
 1180.92        2969.50           2420       19343.00     84552.66
 1180.95        2969.75           2424       17898.00     78218.65
 1180.98        2970.00           2427       16488.00     72040.68
 1181.01        2970.25           2431       14849.00     64862.60
 1181.04        2970.50           2434       13582.00     59316.11
 1181.07        2970.75           2438       11715.00     51146.85
 1181.10        2971.00           2441       10254.00     44757.25
 1181.13        2971.25           2445        8670.00     37832.86
 1181.16        2971.50           2449        7039.00     30706.41
 1181.19        2971.75           2452        5912.00     25784.15
 1181.22        2972.00           2456        4346.00     18947.25
 1181.25        2972.25           2459        3080.00     13422.43
 1181.28        2972.50           2463        1677.00      7302.16
 1181.32        2972.75           2466         815.00      3543.15
 1181.35        2973.00           2470         284.00      1228.04
 1181.38        2973.25           2473         143.00       613.35
 1181.41        2973.50           2477         117.00       500.01
 1181.44        2973.75           2481         140.00       600.27
 1181.47        2974.00           2484         133.00       569.76
 1181.50        2974.25           2488         108.00       460.77
 1181.53        2974.50           2491         121.00       517.45
 1181.56        2974.75           2495         121.00       517.45
 1181.59        2975.00           2498          94.00       399.74
 1181.62        2975.25           2502          87.00       369.23
 1181.65        2975.50           2505          96.00       408.46
 1181.68        2975.75           2509          94.00       399.74
 1181.71        2976.00           2512         106.00       452.06
 1181.74        2976.25           2516          87.00       369.23
 1181.77        2976.50           2520         102.00       434.62
 1181.80        2976.75           2523          97.00       412.82
 1181.84        2977.00           2527          90.00       382.31
 1181.87        2977.25           2530          91.00       386.67
 1181.90        2977.50           2534          91.00       386.67
 1181.93        2977.75           2537          95.00       404.10
 1181.96        2978.00           2541          82.00       347.43
 1181.99        2978.25           2544          81.00       343.07
 1182.02        2978.50           2548          85.00       360.51
 1182.05        2978.75           2552          77.00       325.64
 1182.08        2979.00           2555          83.00       351.79
 1182.11        2979.25           2559          85.00       360.51
 1182.14        2979.50           2562          82.00       347.43
 1182.17        2979.75           2566          85.00       360.51
 1182.20        2980.00           2569          93.00       395.38
 1182.23        2980.25           2573          75.00       316.92
 1182.26        2980.50           2577          85.00       360.51
 1182.29        2980.75           2580          73.00       308.20
 1182.32        2981.00           2584          83.00       351.79
 1182.36        2981.25           2587          81.00       343.07
 1182.39        2981.50           2591          77.00       325.64
 1182.42        2981.75           2594          80.00       338.71
 1182.45        2982.00           2598          80.00       338.71
 1182.48        2982.25           2601          76.00       321.28
 1182.51        2982.50           2605          70.00       295.12
 1182.54        2982.75           2609          67.00       282.04
 1182.57        2983.00           2612          73.00       308.20
 1182.60        2983.25           2616          73.00       308.20
 1182.63        2983.50           2619          76.00       321.28
 1182.66        2983.75           2623          74.00       312.56
 1182.69        2984.00           2626          84.00       356.15
HS scan finished at 19:42:55
end
