************************************************************
  HS Scan of (1) Internal mercury lamp
************************************************************
Integration time is 0.2294 seconds per sample
dh030419Reading 51.44 .94 2.54pr1000
************************************************************
Dead Time -------------------------  3.4E-08 
Number of Cycles Used -------------  4 
Starting Wavelength (Angstroms) ---  2950 
Final Wavelength (Angstoms) -------  2984 
Wavelength Increment (Angstroms) --  .25 
Filter Wheel #1 Position ---------- (1) Ground quartz diffuser (ND=2.32)
Filter Wheel #2 Position ---------- (1) Neutral Density 0.494



************************************************************
HS scan start time = 02:09:02
Dark Count =  .3 


Time (GMT)  Wavelength (Ang)  Step Number  Raw Counts  Counts/Second

  129.94        2950.00           2144        1681.00      7328.33
  130.13        2950.25           2147        1742.00      7594.38
  130.16        2950.50           2151        1748.00      7620.55
  130.19        2950.75           2155        1703.00      7424.28
  130.22        2951.00           2158        1722.00      7507.15
  130.25        2951.25           2162        1757.00      7659.80
  130.28        2951.50           2165        1760.00      7672.88
  130.32        2951.75           2169        1718.00      7489.70
  130.35        2952.00           2172        1759.00      7668.52
  130.38        2952.25           2176        1761.00      7677.24
  130.41        2952.50           2179        1747.00      7616.18
  130.44        2952.75           2183        1752.00      7637.99
  130.47        2953.00           2186        1744.00      7603.10
  130.50        2953.25           2190        1745.00      7607.46
  130.53        2953.50           2193        1758.00      7664.16
  130.56        2953.75           2197        1762.00      7681.61
  130.59        2954.00           2200        1768.00      7707.77
  130.62        2954.25           2204        1755.00      7651.07
  130.65        2954.50           2208        1823.00      7947.66
  130.68        2954.75           2211        1796.00      7829.90
  130.71        2955.00           2215        1837.00      8008.72
  130.74        2955.25           2218        1856.00      8091.59
  130.77        2955.50           2222        1867.00      8139.57
  130.80        2955.75           2225        1857.00      8095.95
  130.83        2956.00           2229        1912.00      8335.84
  130.87        2956.25           2232        1884.00      8213.72
  130.90        2956.50           2236        1908.00      8318.39
  130.93        2956.75           2239        1844.00      8039.25
  130.96        2957.00           2243        1880.00      8196.27
  130.99        2957.25           2246        1911.00      8331.48
  131.02        2957.50           2250        1927.00      8401.27
  131.05        2957.75           2254        1927.00      8401.27
  131.08        2958.00           2257        1923.00      8383.82
  131.11        2958.25           2261        2009.00      8758.93
  131.14        2958.50           2264        1970.00      8588.82
  131.17        2958.75           2268        2034.00      8867.97
  131.20        2959.00           2271        2027.00      8837.44
  131.23        2959.25           2275        2018.00      8798.19
  131.26        2959.50           2278        2106.00      9182.03
  131.29        2959.75           2282        2126.00      9269.27
  131.32        2960.00           2285        2141.00      9334.70
  131.36        2960.25           2289        2118.00      9234.37
  131.39        2960.50           2293        2190.00      9548.44
  131.42        2960.75           2296        2266.00      9879.95
  131.45        2961.00           2300        2325.00     10137.32
  131.48        2961.25           2303        2920.00     12733.06
  131.51        2961.50           2307        7715.00     33668.43
  131.54        2961.75           2310       17761.00     77627.02
  131.57        2962.00           2314       36660.00    160682.30
  131.60        2962.25           2317       53613.00    235587.90
  131.63        2962.50           2321       75593.00    333278.80
  131.66        2962.75           2324       91711.00    405332.80
  131.69        2963.00           2328      112770.00    500014.10
  131.72        2963.25           2331      131097.00    582915.60
  131.75        2963.50           2335      157370.00    702590.30
  131.78        2963.75           2339      182968.00    820146.30
  131.81        2964.00           2342      202405.00    910049.50
  131.84        2964.25           2346      226664.00   1023045.00
  131.88        2964.50           2349      243529.00   1102125.00
  131.91        2964.75           2353      265729.00   1206885.00
  131.94        2965.00           2356      282777.00   1287854.00
  131.97        2965.25           2360      305957.00   1398684.00
  132.00        2965.50           2363      322864.00   1480064.00
  132.03        2965.75           2367      346124.00   1592784.00
  132.06        2966.00           2370      362362.00   1672006.00
  132.09        2966.25           2374      382737.00   1772036.00
  132.12        2966.50           2378      396510.00   1840054.00
  132.15        2966.75           2381      401682.00   1865681.00
  132.18        2967.00           2385      404121.00   1877781.00
  132.21        2967.25           2388      405872.00   1886475.00
  132.24        2967.50           2392      405716.00   1885700.00
  132.27        2967.75           2395      404815.00   1881227.00
  132.30        2968.00           2399      400571.00   1860172.00
  132.33        2968.25           2402      390486.00   1810265.00
  132.36        2968.50           2406      372694.00   1722643.00
  132.40        2968.75           2409      355816.00   1640016.00
  132.43        2969.00           2413      330573.00   1517324.00
  132.46        2969.25           2417      306436.00   1400983.00
  132.49        2969.50           2420      289689.00   1320813.00
  132.52        2969.75           2424      266243.00   1209320.00
  132.55        2970.00           2427      248095.00   1123609.00
  132.58        2970.25           2431      221970.00   1001112.00
  132.61        2970.50           2434      203733.00    916212.30
  132.64        2970.75           2438      181806.00    814789.30
  132.67        2971.00           2441      163696.00    731553.40
  132.70        2971.25           2445      138610.00    617037.30
  132.73        2971.50           2449      114352.00    507151.70
  132.76        2971.75           2452       96228.00    425589.60
  132.79        2972.00           2456       73454.00    323743.30
  132.82        2972.25           2459       55833.00    245425.20
  132.85        2972.50           2463       31368.00    137378.20
  132.88        2972.75           2466       16174.00     70673.98
  132.92        2973.00           2470        5589.00     24382.46
  132.95        2973.25           2473        3057.00     13330.80
  132.98        2973.50           2477        2360.00     10290.00
  133.01        2973.75           2481        2282.00      9949.75
  133.04        2974.00           2484        2212.00      9644.40
  133.07        2974.25           2488        2118.00      9234.37
  133.10        2974.50           2491        2206.00      9618.23
  133.13        2974.75           2495        2111.00      9203.84
  133.16        2975.00           2498        2078.00      9059.90
  133.19        2975.25           2502        2051.00      8942.13
  133.22        2975.50           2505        1993.00      8689.14
  133.25        2975.75           2509        1975.00      8610.63
  133.28        2976.00           2512        1955.00      8523.39
  133.31        2976.25           2516        1959.00      8540.84
  133.34        2976.50           2520        1914.00      8344.56
  133.37        2976.75           2523        1896.00      8266.06
  133.40        2977.00           2527        1862.00      8117.76
  133.43        2977.25           2530        1828.00      7969.47
  133.47        2977.50           2534        1855.00      8087.23
  133.50        2977.75           2537        1853.00      8078.50
  133.53        2978.00           2541        1815.00      7912.76
  133.56        2978.25           2544        1812.00      7899.68
  133.59        2978.50           2548        1761.00      7677.24
  133.62        2978.75           2552        1765.00      7694.69
  133.65        2979.00           2555        1755.00      7651.07
  133.68        2979.25           2559        1735.00      7563.85
  133.71        2979.50           2562        1723.00      7511.51
  133.74        2979.75           2566        1748.00      7620.55
  133.77        2980.00           2569        1702.00      7419.92
  133.80        2980.25           2573        1711.00      7459.17
  133.83        2980.50           2577        1739.00      7581.29
  133.86        2980.75           2580        1743.00      7598.74
  133.89        2981.00           2584        1671.00      7284.72
  133.92        2981.25           2587        1695.00      7389.39
  133.96        2981.50           2591        1651.00      7197.49
  133.99        2981.75           2594        1676.00      7306.52
  134.02        2982.00           2598        1706.00      7437.36
  134.05        2982.25           2601        1649.00      7188.77
  134.08        2982.50           2605        1635.00      7127.71
  134.11        2982.75           2609        1609.00      7014.31
  134.14        2983.00           2612        1595.00      6953.26
  134.17        2983.25           2616        1579.00      6883.48
  134.20        2983.50           2619        1628.00      7097.18
  134.23        2983.75           2623        1599.00      6970.70
  134.26        2984.00           2626        1602.00      6983.79
HS scan finished at 02:14:29
end
************************************************************
  HS Scan of (1) Internal mercury lamp
************************************************************
Integration time is 0.2294 seconds per sample
dh030419Reading 51.44 .94 2.82pr1000
************************************************************
Dead Time -------------------------  3.4E-08 
Number of Cycles Used -------------  4 
Starting Wavelength (Angstroms) ---  2950 
Final Wavelength (Angstoms) -------  2984 
Wavelength Increment (Angstroms) --  .25 
Filter Wheel #1 Position ---------- (1) Ground quartz diffuser (ND=2.32)
Filter Wheel #2 Position ---------- (1) Neutral Density 0.494



************************************************************
HS scan start time = 19:37:26
Dark Count =  .6 


Time (GMT)  Wavelength (Ang)  Step Number  Raw Counts  Counts/Second

 1178.34        2950.00           2144        1495.00      6515.83
 1178.53        2950.25           2147        1537.00      6699.00
 1178.56        2950.50           2151        1519.00      6620.50
 1178.59        2950.75           2155        1558.00      6790.58
 1178.63        2951.00           2158        1545.00      6733.89
 1178.66        2951.25           2162        1539.00      6707.72
 1178.69        2951.50           2165        1515.00      6603.05
 1178.72        2951.75           2169        1543.00      6725.16
 1178.75        2952.00           2172        1567.00      6829.83
 1178.78        2952.25           2176        1515.00      6603.05
 1178.81        2952.50           2179        1557.00      6786.22
 1178.84        2952.75           2183        1529.00      6664.11
 1178.87        2953.00           2186        1561.00      6803.67
 1178.90        2953.25           2190        1587.00      6917.06
 1178.93        2953.50           2193        1591.00      6934.50
 1178.96        2953.75           2197        1603.00      6986.84
 1178.99        2954.00           2200        1562.00      6808.03
 1179.02        2954.25           2204        1568.00      6834.19
 1179.05        2954.50           2208        1586.00      6912.70
 1179.08        2954.75           2211        1579.00      6882.17
 1179.11        2955.00           2215        1619.00      7056.62
 1179.15        2955.25           2218        1608.00      7008.65
 1179.18        2955.50           2222        1628.00      7095.87
 1179.21        2955.75           2225        1611.00      7021.73
 1179.24        2956.00           2229        1616.00      7043.54
 1179.27        2956.25           2232        1643.00      7161.29
 1179.30        2956.50           2236        1666.00      7261.60
 1179.33        2956.75           2239        1647.00      7178.74
 1179.36        2957.00           2243        1685.00      7344.47
 1179.39        2957.25           2246        1689.00      7361.91
 1179.42        2957.50           2250        1689.00      7361.91
 1179.45        2957.75           2254        1707.00      7440.42
 1179.48        2958.00           2257        1709.00      7449.14
 1179.51        2958.25           2261        1797.00      7832.95
 1179.54        2958.50           2264        1743.00      7597.43
 1179.57        2958.75           2268        1776.00      7741.36
 1179.60        2959.00           2271        1784.00      7776.25
 1179.63        2959.25           2275        1822.00      7941.99
 1179.67        2959.50           2278        1822.00      7941.99
 1179.70        2959.75           2282        1804.00      7863.48
 1179.73        2960.00           2285        1835.00      7998.69
 1179.76        2960.25           2289        1899.00      8277.83
 1179.79        2960.50           2293        2006.00      8744.53
 1179.82        2960.75           2296        1991.00      8679.11
 1179.85        2961.00           2300        2045.00      8914.65
 1179.88        2961.25           2303        2224.00      9695.44
 1179.91        2961.50           2307        4071.00     17754.39
 1179.94        2961.75           2310        9394.00     41004.82
 1179.97        2962.00           2314       24113.00    105488.40
 1180.00        2962.25           2317       38430.00    168483.80
 1180.03        2962.50           2321       58698.00    258129.10
 1180.06        2962.75           2324       75318.00    332051.20
 1180.09        2963.00           2328       97383.00    430772.40
 1180.12        2963.25           2331      113720.00    504298.40
 1180.15        2963.50           2335      136701.00    608358.30
 1180.19        2963.75           2339      159960.00    714440.10
 1180.22        2964.00           2342      176920.00    792284.10
 1180.25        2964.25           2346      200884.00    902992.80
 1180.28        2964.50           2349      218120.00    983146.10
 1180.31        2964.75           2353      242145.00   1095617.00
 1180.34        2965.00           2356      260427.00   1181795.00
 1180.37        2965.25           2360      283477.00   1291187.00
 1180.40        2965.50           2363      297957.00   1360336.00
 1180.43        2965.75           2367      317039.00   1451972.00
 1180.46        2966.00           2370      334143.00   1534611.00
 1180.49        2966.25           2374      356136.00   1641577.00
 1180.52        2966.50           2378      374407.00   1731054.00
 1180.55        2966.75           2381      380433.00   1760688.00
 1180.58        2967.00           2385      383089.00   1773769.00
 1180.61        2967.25           2388      384048.00   1778495.00
 1180.64        2967.50           2392      383660.00   1776583.00
 1180.67        2967.75           2395      383025.00   1773454.00
 1180.71        2968.00           2399      375764.00   1737722.00
 1180.74        2968.25           2402      370697.00   1712840.00
 1180.77        2968.50           2406      353274.00   1627612.00
 1180.80        2968.75           2409      337725.00   1551978.00
 1180.83        2969.00           2413      317583.00   1454593.00
 1180.86        2969.25           2417      297312.00   1357248.00
 1180.89        2969.50           2420      281846.00   1283419.00
 1180.92        2969.75           2424      260395.00   1181643.00
 1180.95        2970.00           2427      242296.00   1096327.00
 1180.98        2970.25           2431      217157.00    978656.10
 1181.01        2970.50           2434      200062.00    899181.20
 1181.04        2970.75           2438      178358.00    798903.60
 1181.07        2971.00           2441      159873.00    714041.90
 1181.10        2971.25           2445      136696.00    608335.60
 1181.13        2971.50           2449      113586.00    503693.90
 1181.16        2971.75           2452       96592.00    427221.80
 1181.19        2972.00           2456       74099.00    326616.60
 1181.23        2972.25           2459       57570.00    253125.50
 1181.26        2972.50           2463       35795.00    156869.30
 1181.29        2972.75           2466       21671.00     94770.44
 1181.32        2973.00           2470        8182.00     35707.67
 1181.35        2973.25           2473        3779.00     16480.03
 1181.38        2973.50           2477        2214.00      9651.81
 1181.41        2973.75           2481        2014.00      8779.43
 1181.44        2974.00           2484        1980.00      8631.13
 1181.47        2974.25           2488        1959.00      8539.53
 1181.51        2974.50           2491        1911.00      8330.17
 1181.54        2974.75           2495        1876.00      8177.51
 1181.57        2975.00           2498        1864.00      8125.17
 1181.60        2975.25           2502        1855.00      8085.92
 1181.63        2975.50           2505        1806.00      7872.20
 1181.66        2975.75           2509        1813.00      7902.73
 1181.69        2976.00           2512        1763.00      7684.66
 1181.72        2976.25           2516        1757.00      7658.49
 1181.75        2976.50           2520        1746.00      7610.51
 1181.78        2976.75           2523        1715.00      7475.31
 1181.81        2977.00           2527        1709.00      7449.14
 1181.84        2977.25           2530        1683.00      7335.75
 1181.87        2977.50           2534        1687.00      7353.19
 1181.90        2977.75           2537        1644.00      7165.65
 1181.93        2978.00           2541        1610.00      7017.37
 1181.96        2978.25           2544        1615.00      7039.17
 1181.99        2978.50           2548        1617.00      7047.90
 1182.02        2978.75           2552        1555.00      6777.50
 1182.06        2979.00           2555        1552.00      6764.42
 1182.09        2979.25           2559        1575.00      6864.72
 1182.12        2979.50           2562        1564.00      6816.75
 1182.15        2979.75           2566        1554.00      6773.14
 1182.18        2980.00           2569        1552.00      6764.42
 1182.21        2980.25           2573        1562.00      6808.03
 1182.24        2980.50           2577        1503.00      6550.72
 1182.27        2980.75           2580        1520.00      6624.86
 1182.30        2981.00           2584        1501.00      6542.00
 1182.33        2981.25           2587        1504.00      6555.08
 1182.36        2981.50           2591        1511.00      6585.61
 1182.39        2981.75           2594        1502.00      6546.36
 1182.42        2982.00           2598        1489.00      6489.66
 1182.45        2982.25           2601        1486.00      6476.58
 1182.48        2982.50           2605        1441.00      6280.33
 1182.51        2982.75           2609        1446.00      6302.14
 1182.54        2983.00           2612        1435.00      6254.16
 1182.58        2983.25           2616        1450.00      6319.58
 1182.61        2983.50           2619        1410.00      6145.14
 1182.64        2983.75           2623        1440.00      6275.97
 1182.67        2984.00           2626        1478.00      6441.69
HS scan finished at 19:42:54
end
