************************************************************
  HS Scan of (1) Internal mercury lamp
************************************************************
Integration time is 0.2294 seconds per sample
dh020418Reading 51.44 .94 2.62pr1000
************************************************************
Dead Time -------------------------  3.4E-08 
Number of Cycles Used -------------  4 
Starting Wavelength (Angstroms) ---  2950 
Final Wavelength (Angstoms) -------  2984 
Wavelength Increment (Angstroms) --  .25 
Filter Wheel #1 Position ---------- (1) Ground quartz diffuser (ND=2.32)
Filter Wheel #2 Position ---------- (1) Neutral Density 0.494



************************************************************
HS scan start time = 02:13:07
Dark Count =  .3 


Time (GMT)  Wavelength (Ang)  Step Number  Raw Counts  Counts/Second

  134.01        2950.00           2144         149.00       648.23
  134.20        2950.25           2147         143.00       622.07
  134.23        2950.50           2151         141.00       613.35
  134.26        2950.75           2155         143.00       622.07
  134.29        2951.00           2158         146.00       635.15
  134.32        2951.25           2162         150.00       652.59
  134.35        2951.50           2165         144.00       626.43
  134.39        2951.75           2169         142.00       617.71
  134.42        2952.00           2172         139.00       604.63
  134.45        2952.25           2176         147.00       639.51
  134.48        2952.50           2179         144.00       626.43
  134.51        2952.75           2183         133.00       578.48
  134.54        2953.00           2186         159.00       691.82
  134.57        2953.25           2190         147.00       639.51
  134.60        2953.50           2193         152.00       661.31
  134.63        2953.75           2197         160.00       696.18
  134.66        2954.00           2200         146.00       635.15
  134.69        2954.25           2204         150.00       652.59
  134.72        2954.50           2208         138.00       600.27
  134.75        2954.75           2211         167.00       726.70
  134.78        2955.00           2215         152.00       661.31
  134.81        2955.25           2218         159.00       691.82
  134.84        2955.50           2222         142.00       617.71
  134.88        2955.75           2225         149.00       648.23
  134.91        2956.00           2229         153.00       665.66
  134.94        2956.25           2232         169.00       735.42
  134.97        2956.50           2236         156.00       678.74
  135.00        2956.75           2239         157.00       683.10
  135.03        2957.00           2243         167.00       726.70
  135.06        2957.25           2246         160.00       696.18
  135.09        2957.50           2250         159.00       691.82
  135.12        2957.75           2254         174.00       757.21
  135.15        2958.00           2257         178.00       774.65
  135.18        2958.25           2261         176.00       765.93
  135.21        2958.50           2264         178.00       774.65
  135.24        2958.75           2268         189.00       822.60
  135.27        2959.00           2271         179.00       779.01
  135.30        2959.25           2275         182.00       792.09
  135.33        2959.50           2278         199.00       866.20
  135.36        2959.75           2282         188.00       818.24
  135.39        2960.00           2285         189.00       822.60
  135.43        2960.25           2289         200.00       870.56
  135.46        2960.50           2293         213.00       927.23
  135.49        2960.75           2296         208.00       905.43
  135.52        2961.00           2300         249.00      1084.17
  135.55        2961.25           2303         395.00      1720.68
  135.58        2961.50           2307        1429.00      6229.31
  135.61        2961.75           2310        3134.00     13666.77
  135.64        2962.00           2314        5991.00     26137.87
  135.67        2962.25           2317        8276.00     36119.74
  135.70        2962.50           2321       11665.00     50936.88
  135.73        2962.75           2324       14089.00     61544.08
  135.76        2963.00           2328       17167.00     75024.16
  135.79        2963.25           2331       19406.00     84837.65
  135.82        2963.50           2335       22845.00     99923.48
  135.85        2963.75           2339       26404.00    115552.10
  135.88        2964.00           2342       29382.00    128642.10
  135.91        2964.25           2346       33066.00    144851.60
  135.95        2964.50           2349       36011.00    157822.40
  135.98        2964.75           2353       39325.00    172432.10
  136.01        2965.00           2356       41754.00    183149.60
  136.04        2965.25           2360       44857.00    196852.40
  136.07        2965.50           2363       47392.00    208056.40
  136.10        2965.75           2367       50726.00    222804.80
  136.13        2966.00           2370       53332.00    234343.20
  136.16        2966.25           2374       56360.00    247761.50
  136.19        2966.50           2378       58600.00    257695.70
  136.22        2966.75           2381       59264.00    260641.80
  136.25        2967.00           2385       59495.00    261666.80
  136.28        2967.25           2388       59441.00    261427.20
  136.31        2967.50           2392       59493.00    261658.00
  136.34        2967.75           2395       59118.00    259993.90
  136.37        2968.00           2399       57583.00    253184.50
  136.40        2968.25           2402       55672.00    244711.60
  136.43        2968.50           2406       52652.00    231331.50
  136.47        2968.75           2409       50275.00    220808.90
  136.50        2969.00           2413       46952.00    206111.10
  136.53        2969.25           2417       43521.00    190951.10
  136.56        2969.50           2420       40693.00    178467.20
  136.59        2969.75           2424       37290.00    163459.10
  136.62        2970.00           2427       34545.00    151364.20
  136.65        2970.25           2431       31289.00    137030.60
  136.68        2970.50           2434       28532.00    124904.60
  136.71        2970.75           2438       24885.00    108879.60
  136.74        2971.00           2441       22010.00     96259.16
  136.77        2971.25           2445       18612.00     81356.82
  136.80        2971.50           2449       15093.00     65939.74
  136.83        2971.75           2452       12595.00     55005.57
  136.86        2972.00           2456        9351.00     40818.17
  136.89        2972.25           2459        7127.00     31099.57
  136.92        2972.50           2463        4041.00     17624.77
  136.95        2972.75           2466        1960.00      8545.20
  136.99        2973.00           2470         591.00      2575.20
  137.02        2973.25           2473         294.00      1280.35
  137.05        2973.50           2477         239.00      1040.58
  137.08        2973.75           2481         218.00       949.03
  137.11        2974.00           2484         237.00      1031.86
  137.14        2974.25           2488         217.00       944.67
  137.17        2974.50           2491         209.00       909.79
  137.20        2974.75           2495         190.00       826.96
  137.23        2975.00           2498         193.00       840.04
  137.26        2975.25           2502         193.00       840.04
  137.29        2975.50           2505         194.00       844.40
  137.32        2975.75           2509         196.00       853.12
  137.35        2976.00           2512         179.00       779.01
  137.38        2976.25           2516         174.00       757.21
  137.41        2976.50           2520         178.00       774.65
  137.44        2976.75           2523         175.00       761.57
  137.47        2977.00           2527         167.00       726.70
  137.51        2977.25           2530         167.00       726.70
  137.54        2977.50           2534         175.00       761.57
  137.57        2977.75           2537         163.00       709.26
  137.60        2978.00           2541         166.00       722.34
  137.63        2978.25           2544         157.00       683.10
  137.66        2978.50           2548         171.00       744.13
  137.69        2978.75           2552         157.00       683.10
  137.72        2979.00           2555         150.00       652.59
  137.76        2979.25           2559         168.00       731.06
  137.79        2979.50           2562         150.00       652.59
  137.82        2979.75           2566         146.00       635.15
  137.85        2980.00           2569         154.00       670.02
  137.88        2980.25           2573         147.00       639.51
  137.91        2980.50           2577         153.00       665.66
  137.94        2980.75           2580         150.00       652.59
  137.97        2981.00           2584         142.00       617.71
  138.00        2981.25           2587         148.00       643.87
  138.03        2981.50           2591         147.00       639.51
  138.06        2981.75           2594         143.00       622.07
  138.09        2982.00           2598         136.00       591.56
  138.12        2982.25           2601         145.00       630.79
  138.15        2982.50           2605         151.00       656.95
  138.18        2982.75           2609         143.00       622.07
  138.21        2983.00           2612         128.00       556.68
  138.25        2983.25           2616         142.00       617.71
  138.28        2983.50           2619         131.00       569.76
  138.31        2983.75           2623         142.00       617.71
  138.34        2984.00           2626         143.00       622.07
HS scan finished at 02:18:33
end
************************************************************
  HS Scan of (1) Internal mercury lamp
************************************************************
Integration time is 0.2294 seconds per sample
dh020418Reading 51.44 .94 3.11pr1000
************************************************************
Dead Time -------------------------  3.4E-08 
Number of Cycles Used -------------  4 
Starting Wavelength (Angstroms) ---  2950 
Final Wavelength (Angstoms) -------  2984 
Wavelength Increment (Angstroms) --  .25 
Filter Wheel #1 Position ---------- (1) Ground quartz diffuser (ND=2.32)
Filter Wheel #2 Position ---------- (1) Neutral Density 0.494



************************************************************
HS scan start time = 19:37:26
Dark Count =  1.1 


Time (GMT)  Wavelength (Ang)  Step Number  Raw Counts  Counts/Second

 1178.34        2950.00           2144         120.00       518.32
 1178.53        2950.25           2147         152.00       657.82
 1178.56        2950.50           2151         117.00       505.24
 1178.59        2950.75           2155         137.00       592.43
 1178.63        2951.00           2158         140.00       605.51
 1178.66        2951.25           2162         137.00       592.43
 1178.69        2951.50           2165         125.00       540.11
 1178.72        2951.75           2169         142.00       614.22
 1178.75        2952.00           2172         121.00       522.68
 1178.78        2952.25           2176         159.00       688.33
 1178.81        2952.50           2179         132.00       570.63
 1178.85        2952.75           2183         137.00       592.43
 1178.88        2953.00           2186         133.00       574.99
 1178.91        2953.25           2190         128.00       553.19
 1178.94        2953.50           2193         140.00       605.51
 1178.97        2953.75           2197         139.00       601.15
 1179.00        2954.00           2200         121.00       522.68
 1179.03        2954.25           2204         130.00       561.91
 1179.06        2954.50           2208         149.00       644.74
 1179.09        2954.75           2211         137.00       592.43
 1179.12        2955.00           2215         166.00       718.85
 1179.15        2955.25           2218         140.00       605.51
 1179.18        2955.50           2222         150.00       649.10
 1179.21        2955.75           2225         135.00       583.71
 1179.24        2956.00           2229         157.00       679.61
 1179.27        2956.25           2232         137.00       592.43
 1179.30        2956.50           2236         148.00       640.38
 1179.34        2956.75           2239         143.00       618.58
 1179.37        2957.00           2243         157.00       679.61
 1179.40        2957.25           2246         154.00       666.54
 1179.43        2957.50           2250         152.00       657.82
 1179.46        2957.75           2254         155.00       670.90
 1179.49        2958.00           2257         150.00       649.10
 1179.52        2958.25           2261         164.00       710.13
 1179.55        2958.50           2264         155.00       670.90
 1179.58        2958.75           2268         164.00       710.13
 1179.61        2959.00           2271         157.00       679.61
 1179.64        2959.25           2275         165.00       714.49
 1179.67        2959.50           2278         165.00       714.49
 1179.70        2959.75           2282         168.00       727.57
 1179.73        2960.00           2285         178.00       771.16
 1179.76        2960.25           2289         181.00       784.24
 1179.79        2960.50           2293         194.00       840.91
 1179.82        2960.75           2296         189.00       819.12
 1179.86        2961.00           2300         281.00      1220.19
 1179.89        2961.25           2303         654.00      2846.40
 1179.92        2961.50           2307        2220.00      9675.81
 1179.95        2961.75           2310        4101.00     17883.15
 1179.98        2962.00           2314        7068.00     30838.33
 1180.01        2962.25           2317        9452.00     41256.18
 1180.04        2962.50           2321       12509.00     54625.78
 1180.07        2962.75           2324       14706.00     64241.74
 1180.10        2963.00           2328       17641.00     77097.66
 1180.13        2963.25           2331       20146.00     88078.99
 1180.16        2963.50           2335       23502.00    102803.80
 1180.19        2963.75           2339       27213.00    119103.40
 1180.22        2964.00           2342       29706.00    130063.40
 1180.25        2964.25           2346       33114.00    145059.40
 1180.28        2964.50           2349       35503.00    155580.60
 1180.31        2964.75           2353       38832.00    170254.30
 1180.34        2965.00           2356       41219.00    180784.80
 1180.38        2965.25           2360       44317.00    194463.30
 1180.41        2965.50           2363       46936.00    206036.80
 1180.44        2965.75           2367       50143.00    220221.20
 1180.47        2966.00           2370       52373.00    230092.50
 1180.50        2966.25           2374       54625.00    240068.00
 1180.53        2966.50           2378       55787.00    245217.80
 1180.56        2966.75           2381       56162.00    246880.10
 1180.59        2967.00           2385       56342.00    247678.10
 1180.62        2967.25           2388       56446.00    248139.20
 1180.65        2967.50           2392       56162.00    246880.10
 1180.68        2967.75           2395       55762.00    245107.00
 1180.71        2968.00           2399       54001.00    237303.20
 1180.74        2968.25           2402       52123.00    228985.50
 1180.77        2968.50           2406       49212.00    216102.00
 1180.80        2968.75           2409       46913.00    205935.10
 1180.83        2969.00           2413       43610.00    191340.60
 1180.86        2969.25           2417       40276.00    176623.70
 1180.90        2969.50           2420       38036.00    166744.30
 1180.93        2969.75           2424       34756.00    152290.00
 1180.96        2970.00           2427       32141.00    140776.40
 1180.99        2970.25           2431       28912.00    126571.90
 1181.02        2970.50           2434       26660.00    116673.40
 1181.05        2970.75           2438       23327.00    102035.60
 1181.08        2971.00           2441       20671.00     90381.51
 1181.11        2971.25           2445       17364.00     75883.85
 1181.14        2971.50           2449       14090.00     61544.96
 1181.17        2971.75           2452       11865.00     51808.27
 1181.20        2972.00           2456        8968.00     39140.55
 1181.23        2972.25           2459        6756.00     29475.47
 1181.26        2972.50           2463        3677.00     16032.71
 1181.29        2972.75           2466        1649.00      7185.28
 1181.32        2973.00           2470         423.00      1839.26
 1181.35        2973.25           2473         261.00      1133.00
 1181.38        2973.50           2477         224.00       971.70
 1181.41        2973.75           2481         203.00       880.15
 1181.45        2974.00           2484         188.00       814.76
 1181.48        2974.25           2488         178.00       771.16
 1181.51        2974.50           2491         184.00       797.32
 1181.54        2974.75           2495         179.00       775.52
 1181.57        2975.00           2498         178.00       771.16
 1181.60        2975.25           2502         174.00       753.72
 1181.63        2975.50           2505         185.00       801.68
 1181.66        2975.75           2509         160.00       692.69
 1181.69        2976.00           2512         166.00       718.85
 1181.72        2976.25           2516         159.00       688.33
 1181.75        2976.50           2520         164.00       710.13
 1181.78        2976.75           2523         155.00       670.90
 1181.81        2977.00           2527         156.00       675.26
 1181.84        2977.25           2530         156.00       675.26
 1181.87        2977.50           2534         162.00       701.41
 1181.90        2977.75           2537         154.00       666.54
 1181.93        2978.00           2541         162.00       701.41
 1181.97        2978.25           2544         148.00       640.38
 1182.00        2978.50           2548         148.00       640.38
 1182.03        2978.75           2552         151.00       653.46
 1182.06        2979.00           2555         151.00       653.46
 1182.09        2979.25           2559         152.00       657.82
 1182.13        2979.50           2562         140.00       605.51
 1182.16        2979.75           2566         146.00       631.66
 1182.19        2980.00           2569         149.00       644.74
 1182.22        2980.25           2573         134.00       579.35
 1182.25        2980.50           2577         115.00       496.52
 1182.28        2980.75           2580         137.00       592.43
 1182.31        2981.00           2584         134.00       579.35
 1182.34        2981.25           2587         130.00       561.91
 1182.37        2981.50           2591         133.00       574.99
 1182.40        2981.75           2594         156.00       675.26
 1182.43        2982.00           2598         135.00       583.71
 1182.46        2982.25           2601         163.00       705.77
 1182.49        2982.50           2605         133.00       574.99
 1182.52        2982.75           2609         115.00       496.52
 1182.55        2983.00           2612         135.00       583.71
 1182.58        2983.25           2616         154.00       666.54
 1182.61        2983.50           2619         157.00       679.61
 1182.64        2983.75           2623         134.00       579.35
 1182.68        2984.00           2626         149.00       644.74
HS scan finished at 19:42:54
end
