************************************************************
  HS Scan of 
************************************************************
Integration time is 0.2294 seconds per sample
dh070417Reading 51.44 .94 2.9pr1000
************************************************************
Dead Time -------------------------  3.4E-08 
Number of Cycles Used -------------  4 
Starting Wavelength (Angstroms) ---  2950 
Final Wavelength (Angstoms) -------  2984 
Wavelength Increment (Angstroms) --  .25 
Filter Wheel #1 Position ---------- (1) Ground quartz diffuser (ND=2.32)
Filter Wheel #2 Position ---------- (1) Neutral Density 0.494



************************************************************
HS scan start time = 01:40:54
Dark Count =  .8 


Time (GMT)  Wavelength (Ang)  Step Number  Raw Counts  Counts/Second

  101.80        2950.00           2144         802.00      3493.00
  101.99        2950.25           2147         796.00      3466.84
  102.02        2950.50           2151         842.00      3667.41
  102.05        2950.75           2155         836.00      3641.25
  102.08        2951.00           2158         831.00      3619.45
  102.11        2951.25           2162         839.00      3654.33
  102.14        2951.50           2165         826.00      3597.65
  102.18        2951.75           2169         846.00      3684.86
  102.21        2952.00           2172         862.00      3754.62
  102.24        2952.25           2176         853.00      3715.38
  102.27        2952.50           2179         848.00      3693.58
  102.30        2952.75           2183         857.00      3732.82
  102.33        2953.00           2186         865.00      3767.70
  102.36        2953.25           2190         869.00      3785.14
  102.39        2953.50           2193         848.00      3693.58
  102.42        2953.75           2197         872.00      3798.22
  102.45        2954.00           2200         852.00      3711.02
  102.48        2954.25           2204         882.00      3841.83
  102.51        2954.50           2208         916.00      3990.08
  102.54        2954.75           2211         929.00      4046.76
  102.57        2955.00           2215         877.00      3820.03
  102.60        2955.25           2218         903.00      3933.39
  102.63        2955.50           2222         899.00      3915.95
  102.66        2955.75           2225         911.00      3968.28
  102.70        2956.00           2229         919.00      4003.16
  102.73        2956.25           2232         921.00      4011.88
  102.76        2956.50           2236         915.00      3985.72
  102.79        2956.75           2239         929.00      4046.76
  102.82        2957.00           2243         938.00      4086.01
  102.85        2957.25           2246         927.00      4038.04
  102.88        2957.50           2250         949.00      4133.97
  102.91        2957.75           2254         954.00      4155.77
  102.94        2958.00           2257        1025.00      4465.37
  102.97        2958.25           2261         994.00      4330.19
  103.00        2958.50           2264        1000.00      4356.36
  103.03        2958.75           2268         989.00      4308.39
  103.06        2959.00           2271        1017.00      4430.48
  103.09        2959.25           2275        1028.00      4478.45
  103.12        2959.50           2278        1036.00      4513.33
  103.15        2959.75           2282        1067.00      4648.51
  103.18        2960.00           2285        1089.00      4744.44
  103.22        2960.25           2289        1095.00      4770.61
  103.25        2960.50           2293        1128.00      4914.51
  103.28        2960.75           2296        1141.00      4971.20
  103.31        2961.00           2300        1229.00      5354.94
  103.34        2961.25           2303        1555.00      6776.63
  103.37        2961.50           2307        4641.00     20241.48
  103.40        2961.75           2310       11131.00     48598.99
  103.43        2962.00           2314       23529.00    102923.60
  103.46        2962.25           2317       34000.00    148961.80
  103.49        2962.50           2321       47558.00    208788.20
  103.52        2962.75           2324       57606.00    253284.30
  103.55        2963.00           2328       71523.00    315138.00
  103.58        2963.25           2331       84204.00    371727.00
  103.61        2963.50           2335      100296.00    443854.60
  103.64        2963.75           2339      114886.00    509559.50
  103.67        2964.00           2342      125239.00    556363.60
  103.70        2964.25           2346      139820.00    622537.90
  103.74        2964.50           2349      150332.00    670433.00
  103.77        2964.75           2353      165347.00    739119.50
  103.80        2965.00           2356      175990.00    788003.80
  103.83        2965.25           2360      188126.00    843947.20
  103.86        2965.50           2363      197711.00    888284.60
  103.89        2965.75           2367      212923.00    958930.40
  103.92        2966.00           2370      224033.00   1010745.00
  103.95        2966.25           2374      237395.00   1073310.00
  103.98        2966.50           2378      247214.00   1119459.00
  104.01        2966.75           2381      250231.00   1133669.00
  104.04        2967.00           2385      251770.00   1140922.00
  104.07        2967.25           2388      251978.00   1141903.00
  104.10        2967.50           2392      251412.00   1139235.00
  104.13        2967.75           2395      251303.00   1138721.00
  104.16        2968.00           2399      249175.00   1128693.00
  104.19        2968.25           2402      242675.00   1098108.00
  104.23        2968.50           2406      229811.00   1037766.00
  104.26        2968.75           2409      218630.00    985523.60
  104.29        2969.00           2413      204851.00    921400.50
  104.32        2969.25           2417      191162.00    857976.20
  104.35        2969.50           2420      180321.00    807943.70
  104.38        2969.75           2424      164736.00    736318.10
  104.41        2970.00           2427      152456.00    680129.60
  104.44        2970.25           2431      136818.00    608889.00
  104.47        2970.50           2434      125982.00    559728.30
  104.50        2970.75           2438      110307.00    488906.50
  104.53        2971.00           2441       98608.00    436271.90
  104.56        2971.25           2445       83986.00    370752.40
  104.59        2971.50           2449       69387.00    305627.60
  104.62        2971.75           2452       58998.00    259459.20
  104.65        2972.00           2456       45132.00    198065.20
  104.68        2972.25           2459       33696.00    147623.10
  104.71        2972.50           2463       19324.00     84475.93
  104.74        2972.75           2466       10201.00     44532.07
  104.78        2973.00           2470        3521.00     15353.26
  104.81        2973.25           2473        1754.00      7644.53
  104.84        2973.50           2477        1245.00      5424.71
  104.87        2973.75           2481        1186.00      5167.43
  104.90        2974.00           2484        1118.00      4870.90
  104.93        2974.25           2488        1133.00      4936.31
  104.96        2974.50           2491        1100.00      4792.41
  104.99        2974.75           2495        1074.00      4679.04
  105.02        2975.00           2498        1032.00      4495.89
  105.05        2975.25           2502        1032.00      4495.89
  105.08        2975.50           2505        1037.00      4517.70
  105.11        2975.75           2509         987.00      4299.67
  105.14        2976.00           2512        1019.00      4439.21
  105.17        2976.25           2516         952.00      4147.05
  105.20        2976.50           2520         993.00      4325.83
  105.23        2976.75           2523         975.00      4247.34
  105.26        2977.00           2527         955.00      4160.14
  105.30        2977.25           2530         969.00      4221.18
  105.33        2977.50           2534         942.00      4103.45
  105.36        2977.75           2537         891.00      3881.07
  105.39        2978.00           2541         938.00      4086.01
  105.42        2978.25           2544         913.00      3977.00
  105.45        2978.50           2548         925.00      4029.32
  105.48        2978.75           2552         885.00      3854.91
  105.51        2979.00           2555         855.00      3724.10
  105.54        2979.25           2559         881.00      3837.47
  105.57        2979.50           2562         881.00      3837.47
  105.60        2979.75           2566         875.00      3811.31
  105.63        2980.00           2569         851.00      3706.66
  105.66        2980.25           2573         840.00      3658.69
  105.69        2980.50           2577         836.00      3641.25
  105.72        2980.75           2580         864.00      3763.34
  105.75        2981.00           2584         853.00      3715.38
  105.78        2981.25           2587         821.00      3575.85
  105.82        2981.50           2591         822.00      3580.21
  105.85        2981.75           2594         836.00      3641.25
  105.88        2982.00           2598         816.00      3554.05
  105.91        2982.25           2601         810.00      3527.89
  105.94        2982.50           2605         808.00      3519.17
  105.97        2982.75           2609         798.00      3475.56
  106.00        2983.00           2612         823.00      3584.57
  106.03        2983.25           2616         815.00      3549.69
  106.06        2983.50           2619         786.00      3423.24
  106.09        2983.75           2623         775.00      3375.28
  106.12        2984.00           2626         777.00      3384.00
HS scan finished at 01:46:21
end
************************************************************
  HS Scan of 
************************************************************
Integration time is 0.2294 seconds per sample
dh070417Reading 51.44 .94 3.56pr1000
************************************************************
Dead Time -------------------------  3.4E-08 
Number of Cycles Used -------------  4 
Starting Wavelength (Angstroms) ---  2950 
Final Wavelength (Angstoms) -------  2984 
Wavelength Increment (Angstroms) --  .25 
Filter Wheel #1 Position ---------- (1) Ground quartz diffuser (ND=2.32)
Filter Wheel #2 Position ---------- (1) Neutral Density 0.494



************************************************************
HS scan start time = 19:37:29
Dark Count =  3.6 


Time (GMT)  Wavelength (Ang)  Step Number  Raw Counts  Counts/Second

 1178.39        2950.00           2144         605.00      2621.86
 1178.58        2950.25           2147         607.00      2630.58
 1178.61        2950.50           2151         611.00      2648.02
 1178.64        2950.75           2155         629.00      2726.50
 1178.67        2951.00           2158         621.00      2691.62
 1178.70        2951.25           2162         605.00      2621.86
 1178.73        2951.50           2165         631.00      2735.22
 1178.76        2951.75           2169         631.00      2735.22
 1178.79        2952.00           2172         623.00      2700.34
 1178.82        2952.25           2176         622.00      2695.98
 1178.85        2952.50           2179         654.00      2835.50
 1178.88        2952.75           2183         640.00      2774.46
 1178.92        2953.00           2186         666.00      2887.82
 1178.95        2953.25           2190         642.00      2783.18
 1178.98        2953.50           2193         649.00      2813.70
 1179.01        2953.75           2197         681.00      2953.22
 1179.04        2954.00           2200         675.00      2927.06
 1179.07        2954.25           2204         674.00      2922.70
 1179.10        2954.50           2208         668.00      2896.54
 1179.13        2954.75           2211         680.00      2948.86
 1179.16        2955.00           2215         683.00      2961.94
 1179.19        2955.25           2218         690.00      2992.46
 1179.22        2955.50           2222         675.00      2927.06
 1179.25        2955.75           2225         685.00      2970.66
 1179.28        2956.00           2229         684.00      2966.30
 1179.31        2956.25           2232         704.00      3053.50
 1179.34        2956.50           2236         712.00      3088.38
 1179.37        2956.75           2239         695.00      3014.26
 1179.40        2957.00           2243         723.00      3136.34
 1179.44        2957.25           2246         718.00      3114.54
 1179.47        2957.50           2250         776.00      3367.43
 1179.50        2957.75           2254         750.00      3254.07
 1179.53        2958.00           2257         802.00      3480.80
 1179.56        2958.25           2261         786.00      3411.03
 1179.59        2958.50           2264         773.00      3354.35
 1179.62        2958.75           2268         795.00      3450.27
 1179.65        2959.00           2271         801.00      3476.44
 1179.68        2959.25           2275         797.00      3458.99
 1179.71        2959.50           2278         809.00      3511.32
 1179.74        2959.75           2282         811.00      3520.04
 1179.77        2960.00           2285         826.00      3585.44
 1179.80        2960.25           2289         824.00      3576.72
 1179.83        2960.50           2293         899.00      3903.74
 1179.86        2960.75           2296         909.00      3947.35
 1179.89        2961.00           2300        1023.00      4444.44
 1179.92        2961.25           2303        1677.00      7296.49
 1179.95        2961.50           2307        6132.00     26739.21
 1179.99        2961.75           2310       12611.00     55061.14
 1180.02        2962.00           2314       23454.00    102582.10
 1180.05        2962.25           2317       32758.00    143481.20
 1180.08        2962.50           2321       44654.00    195940.90
 1180.11        2962.75           2324       53629.00    235644.20
 1180.14        2963.00           2328       66006.00    290574.10
 1180.17        2963.25           2331       76158.00    335783.90
 1180.20        2963.50           2335       90554.00    400133.90
 1180.23        2963.75           2339      103478.00    458146.70
 1180.26        2964.00           2342      112565.00    499074.60
 1180.29        2964.25           2346      125310.00    556672.40
 1180.32        2964.50           2349      134823.00    599813.00
 1180.35        2964.75           2353      148498.00    662052.70
 1180.38        2965.00           2356      157309.00    702296.30
 1180.41        2965.25           2360      168947.00    755623.40
 1180.44        2965.50           2363      177164.00    793393.40
 1180.48        2965.75           2367      189082.00    848350.40
 1180.51        2966.00           2370      197553.00    887539.70
 1180.54        2966.25           2374      209731.00    944064.90
 1180.57        2966.50           2378      217145.00    978586.10
 1180.60        2966.75           2381      220102.00    992377.60
 1180.63        2967.00           2385      220089.00    992316.90
 1180.66        2967.25           2388      220818.00    995719.10
 1180.69        2967.50           2392      220259.00    993110.20
 1180.72        2967.75           2395      219889.00    991383.80
 1180.75        2968.00           2399      216532.00    975728.80
 1180.78        2968.25           2402      210953.00    949749.20
 1180.81        2968.50           2406      199733.00    897642.10
 1180.84        2968.75           2409      190035.00    852753.90
 1180.87        2969.00           2413      176974.00    792518.80
 1180.90        2969.25           2417      164224.00    733958.30
 1180.93        2969.50           2420      155660.00    694756.10
 1180.96        2969.75           2424      143992.00    641514.90
 1181.00        2970.00           2427      133006.00    591563.10
 1181.03        2970.25           2431      117787.00    522646.60
 1181.06        2970.50           2434      107564.00    476535.80
 1181.09        2970.75           2438       94822.00    419266.50
 1181.12        2971.00           2441       85523.00    377613.10
 1181.15        2971.25           2445       73752.00    325056.60
 1181.18        2971.50           2449       61029.00    268461.10
 1181.21        2971.75           2452       50939.00    223733.00
 1181.24        2972.00           2456       36038.00    157926.80
 1181.27        2972.25           2459       25831.00    113020.20
 1181.30        2972.50           2463       14488.00     63276.36
 1181.33        2972.75           2466        7525.00     32823.88
 1181.36        2973.00           2470        2484.00     10816.53
 1181.39        2973.25           2473        1280.00      5565.13
 1181.42        2973.50           2477         998.00      4335.43
 1181.45        2973.75           2481         939.00      4078.16
 1181.48        2974.00           2484         924.00      4012.75
 1181.52        2974.25           2488         868.00      3768.57
 1181.55        2974.50           2491         905.00      3929.91
 1181.58        2974.75           2495         845.00      3668.29
 1181.61        2975.00           2498         848.00      3681.37
 1181.64        2975.25           2502         824.00      3576.72
 1181.67        2975.50           2505         828.00      3594.16
 1181.70        2975.75           2509         798.00      3463.36
 1181.74        2976.00           2512         778.00      3376.15
 1181.78        2976.25           2516         739.00      3206.10
 1181.81        2976.50           2520         761.00      3302.03
 1181.84        2976.75           2523         784.00      3402.31
 1181.87        2977.00           2527         749.00      3249.71
 1181.90        2977.25           2530         769.00      3336.91
 1181.93        2977.50           2534         729.00      3162.50
 1181.97        2977.75           2537         734.00      3184.30
 1182.00        2978.00           2541         710.00      3079.66
 1182.03        2978.25           2544         712.00      3088.38
 1182.06        2978.50           2548         716.00      3105.82
 1182.09        2978.75           2552         690.00      2992.46
 1182.12        2979.00           2555         693.00      3005.54
 1182.15        2979.25           2559         702.00      3044.78
 1182.18        2979.50           2562         730.00      3166.86
 1182.21        2979.75           2566         690.00      2992.46
 1182.24        2980.00           2569         685.00      2970.66
 1182.27        2980.25           2573         655.00      2839.86
 1182.30        2980.50           2577         658.00      2852.94
 1182.33        2980.75           2580         677.00      2935.78
 1182.36        2981.00           2584         655.00      2839.86
 1182.39        2981.25           2587         657.00      2848.58
 1182.42        2981.50           2591         664.00      2879.10
 1182.45        2981.75           2594         666.00      2887.82
 1182.48        2982.00           2598         676.00      2931.42
 1182.52        2982.25           2601         655.00      2839.86
 1182.55        2982.50           2605         665.00      2883.46
 1182.58        2982.75           2609         641.00      2778.82
 1182.61        2983.00           2612         639.00      2770.10
 1182.64        2983.25           2616         608.00      2634.94
 1182.67        2983.50           2619         620.00      2687.26
 1182.70        2983.75           2623         635.00      2752.66
 1182.73        2984.00           2626         605.00      2621.86
HS scan finished at 19:42:57
end
