************************************************************
  HS Scan of (1) Internal mercury lamp
************************************************************
Integration time is 0.2294 seconds per sample
dh010418Reading 51.44 .94 2.66pr1000
************************************************************
Dead Time -------------------------  3.4E-08 
Number of Cycles Used -------------  4 
Starting Wavelength (Angstroms) ---  2950 
Final Wavelength (Angstoms) -------  2984 
Wavelength Increment (Angstroms) --  .25 
Filter Wheel #1 Position ---------- (1) Ground quartz diffuser (ND=2.32)
Filter Wheel #2 Position ---------- (1) Neutral Density 0.494



************************************************************
HS scan start time = 02:18:30
Dark Count =  .4 


Time (GMT)  Wavelength (Ang)  Step Number  Raw Counts  Counts/Second

  139.40        2950.00           2144         128.00       556.24
  139.59        2950.25           2147         129.00       560.60
  139.62        2950.50           2151         151.00       656.51
  139.65        2950.75           2155         156.00       678.31
  139.68        2951.00           2158         141.00       612.92
  139.71        2951.25           2162         159.00       691.39
  139.74        2951.50           2165         145.00       630.35
  139.77        2951.75           2169         158.00       687.03
  139.81        2952.00           2172         143.00       621.63
  139.84        2952.25           2176         132.00       573.68
  139.87        2952.50           2179         147.00       639.07
  139.90        2952.75           2183         155.00       673.95
  139.93        2953.00           2186         140.00       608.56
  139.96        2953.25           2190         143.00       621.63
  139.99        2953.50           2193         135.00       586.76
  140.02        2953.75           2197         148.00       643.43
  140.05        2954.00           2200         152.00       660.87
  140.08        2954.25           2204         154.00       669.59
  140.11        2954.50           2208         149.00       647.79
  140.14        2954.75           2211         178.00       774.21
  140.17        2955.00           2215         155.00       673.95
  140.20        2955.25           2218         177.00       769.85
  140.23        2955.50           2222         153.00       665.23
  140.26        2955.75           2225         155.00       673.95
  140.29        2956.00           2229         146.00       634.71
  140.33        2956.25           2232         158.00       687.03
  140.36        2956.50           2236         146.00       634.71
  140.39        2956.75           2239         158.00       687.03
  140.42        2957.00           2243         150.00       652.15
  140.45        2957.25           2246         157.00       682.67
  140.48        2957.50           2250         165.00       717.54
  140.51        2957.75           2254         156.00       678.31
  140.54        2958.00           2257         172.00       748.06
  140.57        2958.25           2261         164.00       713.18
  140.60        2958.50           2264         173.00       752.42
  140.63        2958.75           2268         176.00       765.50
  140.66        2959.00           2271         178.00       774.21
  140.69        2959.25           2275         182.00       791.65
  140.72        2959.50           2278         190.00       826.53
  140.75        2959.75           2282         181.00       787.29
  140.78        2960.00           2285         189.00       822.17
  140.81        2960.25           2289         203.00       883.20
  140.85        2960.50           2293         206.00       896.28
  140.88        2960.75           2296         201.00       874.48
  140.91        2961.00           2300         247.00      1075.02
  140.94        2961.25           2303         410.00      1785.64
  140.97        2961.50           2307        1653.00      7205.78
  141.00        2961.75           2310        3477.00     15163.00
  141.03        2962.00           2314        6145.00     26809.96
  141.06        2962.25           2317        8330.00     36355.28
  141.09        2962.50           2321       11678.00     50993.31
  141.12        2962.75           2324       14308.00     62502.34
  141.15        2963.00           2328       18001.00     78678.37
  141.18        2963.25           2331       20457.00     89445.98
  141.21        2963.50           2335       23811.00    104163.40
  141.24        2963.75           2339       27111.00    118658.20
  141.27        2964.00           2342       29888.00    130867.00
  141.30        2964.25           2346       33663.00    147479.60
  141.33        2964.50           2349       36128.00    158337.50
  141.37        2964.75           2353       39573.00    173525.60
  141.40        2965.00           2356       41811.00    183400.80
  141.43        2965.25           2360       45088.00    197872.50
  141.46        2965.50           2363       47453.00    208325.70
  141.49        2965.75           2367       50612.00    222299.90
  141.52        2966.00           2370       53096.00    233297.50
  141.55        2966.25           2374       55850.00    245500.20
  141.58        2966.50           2378       58079.00    255384.10
  141.61        2966.75           2381       58559.00    257513.40
  141.64        2967.00           2385       58574.00    257579.90
  141.67        2967.25           2388       58486.00    257189.50
  141.70        2967.50           2392       58517.00    257327.00
  141.73        2967.75           2395       58700.00    258138.90
  141.76        2968.00           2399       57335.00    252084.20
  141.79        2968.25           2402       55155.00    242419.70
  141.82        2968.50           2406       51846.00    227762.20
  141.85        2968.75           2409       49696.00    218246.50
  141.90        2969.00           2413       46727.00    205116.00
  141.93        2969.25           2417       43608.00    191334.90
  141.96        2969.50           2420       41029.00    179949.40
  141.99        2969.75           2424       37437.00    164106.70
  142.02        2970.00           2427       34746.00    152249.00
  142.05        2970.25           2431       31363.00    137355.80
  142.08        2970.50           2434       28881.00    126438.60
  142.11        2970.75           2438       25617.00    112094.20
  142.14        2971.00           2441       22881.00    100081.00
  142.18        2971.25           2445       19507.00     85280.05
  142.21        2971.50           2449       15532.00     67861.71
  142.24        2971.75           2452       12833.00     56046.54
  142.27        2972.00           2456        9243.00     40345.63
  142.30        2972.25           2459        6921.00     30199.26
  142.33        2972.50           2463        3898.00     17000.24
  142.36        2972.75           2466        2097.00      9142.34
  142.39        2973.00           2470         656.00      2858.17
  142.42        2973.25           2473         302.00      1314.79
  142.45        2973.50           2477         231.00      1005.27
  142.48        2973.75           2481         221.00       961.67
  142.51        2974.00           2484         199.00       865.76
  142.54        2974.25           2488         223.00       970.39
  142.57        2974.50           2491         202.00       878.84
  142.60        2974.75           2495         192.00       835.25
  142.63        2975.00           2498         182.00       791.65
  142.66        2975.25           2502         188.00       817.81
  142.70        2975.50           2505         178.00       774.21
  142.73        2975.75           2509         171.00       743.70
  142.76        2976.00           2512         165.00       717.54
  142.79        2976.25           2516         175.00       761.14
  142.82        2976.50           2520         186.00       809.09
  142.85        2976.75           2523         175.00       761.14
  142.88        2977.00           2527         163.00       708.82
  142.91        2977.25           2530         163.00       708.82
  142.94        2977.50           2534         158.00       687.03
  142.97        2977.75           2537         156.00       678.31
  143.00        2978.00           2541         163.00       708.82
  143.03        2978.25           2544         156.00       678.31
  143.06        2978.50           2548         154.00       669.59
  143.09        2978.75           2552         152.00       660.87
  143.12        2979.00           2555         159.00       691.39
  143.15        2979.25           2559         151.00       656.51
  143.19        2979.50           2562         159.00       691.39
  143.22        2979.75           2566         150.00       652.15
  143.25        2980.00           2569         155.00       673.95
  143.28        2980.25           2573         156.00       678.31
  143.31        2980.50           2577         146.00       634.71
  143.34        2980.75           2580         139.00       604.20
  143.37        2981.00           2584         134.00       582.40
  143.40        2981.25           2587         147.00       639.07
  143.43        2981.50           2591         142.00       617.28
  143.46        2981.75           2594         139.00       604.20
  143.49        2982.00           2598         161.00       700.10
  143.52        2982.25           2601         128.00       556.24
  143.55        2982.50           2605         157.00       682.67
  143.58        2982.75           2609         126.00       547.53
  143.61        2983.00           2612         138.00       599.84
  143.64        2983.25           2616         156.00       678.31
  143.67        2983.50           2619         139.00       604.20
  143.71        2983.75           2623         125.00       543.17
  143.74        2984.00           2626         133.00       578.04
HS scan finished at 02:23:57
end
************************************************************
  HS Scan of (1) Internal mercury lamp
************************************************************
Integration time is 0.2294 seconds per sample
dh010418Reading 51.44 .94 2.9pr1000
************************************************************
Dead Time -------------------------  3.4E-08 
Number of Cycles Used -------------  4 
Starting Wavelength (Angstroms) ---  2950 
Final Wavelength (Angstoms) -------  2984 
Wavelength Increment (Angstroms) --  .25 
Filter Wheel #1 Position ---------- (1) Ground quartz diffuser (ND=2.32)
Filter Wheel #2 Position ---------- (1) Neutral Density 0.494



************************************************************
HS scan start time = 19:37:27
Dark Count =  .7 


Time (GMT)  Wavelength (Ang)  Step Number  Raw Counts  Counts/Second

 1178.35        2950.00           2144         129.00       559.30
 1178.54        2950.25           2147         105.00       454.67
 1178.57        2950.50           2151         128.00       554.94
 1178.60        2950.75           2155         120.00       520.06
 1178.63        2951.00           2158         117.00       506.98
 1178.66        2951.25           2162         147.00       637.76
 1178.69        2951.50           2165         119.00       515.70
 1178.72        2951.75           2169         136.00       589.81
 1178.76        2952.00           2172         113.00       489.55
 1178.79        2952.25           2176         152.00       659.56
 1178.82        2952.50           2179         128.00       554.94
 1178.85        2952.75           2183         145.00       629.05
 1178.88        2953.00           2186         125.00       541.86
 1178.91        2953.25           2190         115.00       498.26
 1178.94        2953.50           2193         109.00       472.11
 1178.97        2953.75           2197         103.00       445.95
 1179.00        2954.00           2200         117.00       506.98
 1179.03        2954.25           2204         133.00       576.73
 1179.06        2954.50           2208         115.00       498.26
 1179.09        2954.75           2211         145.00       629.05
 1179.12        2955.00           2215         125.00       541.86
 1179.15        2955.25           2218         131.00       568.01
 1179.18        2955.50           2222         118.00       511.34
 1179.21        2955.75           2225         160.00       694.44
 1179.24        2956.00           2229         119.00       515.70
 1179.28        2956.25           2232         133.00       576.73
 1179.31        2956.50           2236         115.00       498.26
 1179.34        2956.75           2239         177.00       768.55
 1179.37        2957.00           2243         121.00       524.42
 1179.40        2957.25           2246         168.00       729.31
 1179.43        2957.50           2250         154.00       668.28
 1179.46        2957.75           2254         136.00       589.81
 1179.49        2958.00           2257         142.00       615.97
 1179.52        2958.25           2261         155.00       672.64
 1179.55        2958.50           2264         124.00       537.50
 1179.58        2958.75           2268         135.00       585.45
 1179.61        2959.00           2271         157.00       681.36
 1179.64        2959.25           2275         158.00       685.72
 1179.67        2959.50           2278         161.00       698.80
 1179.70        2959.75           2282         148.00       642.12
 1179.73        2960.00           2285         167.00       724.95
 1179.76        2960.25           2289         173.00       751.11
 1179.80        2960.50           2293         161.00       698.80
 1179.83        2960.75           2296         182.00       790.34
 1179.86        2961.00           2300         210.00       912.41
 1179.89        2961.25           2303         360.00      1566.34
 1179.92        2961.50           2307        1304.00      5682.44
 1179.95        2961.75           2310        2697.00     11758.41
 1179.98        2962.00           2314        5182.00     22603.68
 1180.01        2962.25           2317        7361.00     32120.06
 1180.04        2962.50           2321       10022.00     43749.86
 1180.07        2962.75           2324       12145.00     53034.96
 1180.10        2963.00           2328       14729.00     64344.19
 1180.13        2963.25           2331       16860.00     73677.36
 1180.16        2963.50           2335       19882.00     86923.03
 1180.19        2963.75           2339       22873.00    100044.60
 1180.22        2964.00           2342       25204.00    110278.90
 1180.25        2964.25           2346       28067.00    122858.70
 1180.28        2964.50           2349       29843.00    130667.70
 1180.31        2964.75           2353       33086.00    144937.90
 1180.35        2965.00           2356       34931.00    153062.60
 1180.38        2965.25           2360       37310.00    163545.50
 1180.41        2965.50           2363       39590.00    173599.20
 1180.44        2965.75           2367       42531.00    186577.90
 1180.47        2966.00           2370       44347.00    194597.60
 1180.50        2966.25           2374       46536.00    204270.40
 1180.53        2966.50           2378       47658.00    209230.80
 1180.56        2966.75           2381       48017.00    210818.30
 1180.59        2967.00           2385       48404.00    212529.80
 1180.62        2967.25           2388       48048.00    210955.40
 1180.65        2967.50           2392       48379.00    212419.20
 1180.68        2967.75           2395       47966.00    210592.70
 1180.71        2968.00           2399       46851.00    205662.80
 1180.74        2968.25           2402       45196.00    198348.40
 1180.77        2968.50           2406       42366.00    185849.40
 1180.80        2968.75           2409       40671.00    178368.30
 1180.83        2969.00           2413       37865.00    165992.20
 1180.87        2969.25           2417       35427.00    155247.60
 1180.90        2969.50           2420       33311.00    145928.40
 1180.93        2969.75           2424       30475.00    133447.60
 1180.96        2970.00           2427       28164.00    123285.10
 1180.99        2970.25           2431       25503.00    111592.20
 1181.02        2970.50           2434       23679.00    103582.60
 1181.05        2970.75           2438       20599.00     90067.46
 1181.08        2971.00           2441       18121.00     79202.98
 1181.11        2971.25           2445       15198.00     66397.77
 1181.14        2971.50           2449       12517.00     54662.53
 1181.17        2971.75           2452       10566.00     46128.53
 1181.20        2972.00           2456        7916.00     34544.91
 1181.23        2972.25           2459        5967.00     26031.31
 1181.26        2972.50           2463        3424.00     14930.42
 1181.29        2972.75           2466        1749.00      7623.16
 1181.32        2973.00           2470         446.00      1941.28
 1181.35        2973.25           2473         244.00      1060.63
 1181.39        2973.50           2477         184.00       799.06
 1181.42        2973.75           2481         177.00       768.55
 1181.45        2974.00           2484         171.00       742.39
 1181.48        2974.25           2488         159.00       690.08
 1181.51        2974.50           2491         162.00       703.16
 1181.54        2974.75           2495         167.00       724.95
 1181.57        2975.00           2498         153.00       663.92
 1181.60        2975.25           2502         156.00       677.00
 1181.63        2975.50           2505         151.00       655.20
 1181.66        2975.75           2509         146.00       633.41
 1181.69        2976.00           2512         135.00       585.45
 1181.72        2976.25           2516         147.00       637.76
 1181.75        2976.50           2520         138.00       598.53
 1181.78        2976.75           2523         130.00       563.66
 1181.81        2977.00           2527         130.00       563.66
 1181.85        2977.25           2530         145.00       629.05
 1181.88        2977.50           2534         144.00       624.69
 1181.91        2977.75           2537         133.00       576.73
 1181.94        2978.00           2541         151.00       655.20
 1181.97        2978.25           2544         140.00       607.25
 1182.00        2978.50           2548         144.00       624.69
 1182.03        2978.75           2552         139.00       602.89
 1182.06        2979.00           2555         134.00       581.09
 1182.10        2979.25           2559         136.00       589.81
 1182.13        2979.50           2562         149.00       646.48
 1182.16        2979.75           2566         159.00       690.08
 1182.19        2980.00           2569         105.00       454.67
 1182.22        2980.25           2573         132.00       572.37
 1182.25        2980.50           2577         114.00       493.91
 1182.28        2980.75           2580         111.00       480.83
 1182.31        2981.00           2584         130.00       563.66
 1182.34        2981.25           2587         114.00       493.91
 1182.37        2981.50           2591         105.00       454.67
 1182.40        2981.75           2594         144.00       624.69
 1182.43        2982.00           2598         108.00       467.75
 1182.46        2982.25           2601         133.00       576.73
 1182.49        2982.50           2605         113.00       489.55
 1182.52        2982.75           2609         128.00       554.94
 1182.55        2983.00           2612         157.00       681.36
 1182.58        2983.25           2616         126.00       546.22
 1182.62        2983.50           2619         124.00       537.50
 1182.65        2983.75           2623          89.00       384.92
 1182.68        2984.00           2626         105.00       454.67
HS scan finished at 19:42:54
end
