************************************************************
  HS Scan of 
************************************************************
Integration time is 0.2294 seconds per sample
dh020417Reading 51.44 .94 2.84pr1000
************************************************************
Dead Time -------------------------  3.4E-08 
Number of Cycles Used -------------  4 
Starting Wavelength (Angstroms) ---  2950 
Final Wavelength (Angstoms) -------  2984 
Wavelength Increment (Angstroms) --  .25 
Filter Wheel #1 Position ---------- (1) Ground quartz diffuser (ND=2.32)
Filter Wheel #2 Position ---------- (1) Neutral Density 0.494



************************************************************
HS scan start time = 02:11:48
Dark Count =  .4 


Time (GMT)  Wavelength (Ang)  Step Number  Raw Counts  Counts/Second

  132.70        2950.00           2144         842.00      3669.16
  132.90        2950.25           2147         849.00      3699.68
  132.93        2950.50           2151         832.00      3625.56
  132.96        2950.75           2155         817.00      3560.15
  132.99        2951.00           2158         823.00      3586.31
  133.02        2951.25           2162         842.00      3669.16
  133.05        2951.50           2165         814.00      3547.07
  133.08        2951.75           2169         868.00      3782.53
  133.11        2952.00           2172         878.00      3826.13
  133.14        2952.25           2176         891.00      3882.81
  133.17        2952.50           2179         852.00      3712.76
  133.20        2952.75           2183         862.00      3756.36
  133.23        2953.00           2186         875.00      3813.05
  133.26        2953.25           2190         887.00      3865.37
  133.29        2953.50           2193         875.00      3813.05
  133.33        2953.75           2197         904.00      3939.50
  133.36        2954.00           2200         908.00      3956.94
  133.39        2954.25           2204         874.00      3808.69
  133.42        2954.50           2208         897.00      3908.98
  133.45        2954.75           2211         873.00      3804.33
  133.48        2955.00           2215         931.00      4057.23
  133.51        2955.25           2218         895.00      3900.26
  133.54        2955.50           2222         929.00      4048.51
  133.57        2955.75           2225         915.00      3987.46
  133.60        2956.00           2229         920.00      4009.27
  133.63        2956.25           2232         947.00      4127.00
  133.66        2956.50           2236         941.00      4100.83
  133.69        2956.75           2239         971.00      4231.65
  133.72        2957.00           2243         931.00      4057.23
  133.75        2957.25           2246         963.00      4196.76
  133.78        2957.50           2250         962.00      4192.40
  133.81        2957.75           2254        1021.00      4449.67
  133.85        2958.00           2257        1036.00      4515.08
  133.88        2958.25           2261        1006.00      4384.26
  133.91        2958.50           2264         992.00      4323.22
  133.94        2958.75           2268        1009.00      4397.34
  133.97        2959.00           2271        1046.00      4558.68
  134.00        2959.25           2275        1035.00      4510.72
  134.03        2959.50           2278        1071.00      4667.70
  134.06        2959.75           2282        1077.00      4693.86
  134.09        2960.00           2285        1076.00      4689.50
  134.12        2960.25           2289        1106.00      4820.32
  134.15        2960.50           2293        1157.00      5042.71
  134.18        2960.75           2296        1138.00      4959.86
  134.21        2961.00           2300        1244.00      5422.10
  134.24        2961.25           2303        1600.00      6974.63
  134.27        2961.50           2307        5647.00     24635.27
  134.30        2961.75           2310       12901.00     56344.10
  134.33        2962.00           2314       25760.00    112722.40
  134.37        2962.25           2317       35851.00    157117.00
  134.40        2962.50           2321       48892.00    214689.60
  134.43        2962.75           2324       59310.00    260845.50
  134.46        2963.00           2328       74920.00    330277.50
  134.49        2963.25           2331       87118.00    384763.50
  134.52        2963.50           2335      102976.00    455903.40
  134.55        2963.75           2339      117489.00    521314.80
  134.58        2964.00           2342      128079.00    569230.90
  134.61        2964.25           2346      142991.00    636971.00
  134.64        2964.50           2349      153994.00    687156.80
  134.67        2964.75           2353      169968.00    760325.80
  134.70        2965.00           2356      180322.00    807950.10
  134.73        2965.25           2360      193382.00    868244.90
  134.76        2965.50           2363      202007.00    908202.50
  134.79        2965.75           2367      214944.00    968344.10
  134.82        2966.00           2370      225978.00   1019837.00
  134.85        2966.25           2374      239710.00   1084179.00
  134.89        2966.50           2378      250809.00   1136394.00
  134.92        2966.75           2381      253880.00   1150875.00
  134.95        2967.00           2385      254334.00   1153017.00
  134.98        2967.25           2388      254552.00   1154046.00
  135.01        2967.50           2392      255001.00   1156165.00
  135.04        2967.75           2395      254832.00   1155367.00
  135.07        2968.00           2399      252521.00   1144465.00
  135.10        2968.25           2402      245972.00   1113615.00
  135.13        2968.50           2406      232757.00   1051565.00
  135.16        2968.75           2409      220990.00    996536.70
  135.19        2969.00           2413      206701.00    929995.00
  135.22        2969.25           2417      192221.00    862874.60
  135.25        2969.50           2420      182423.00    817633.00
  135.28        2969.75           2424      167460.00    748813.40
  135.31        2970.00           2427      154402.00    689021.00
  135.34        2970.25           2431      138003.00    614277.00
  135.37        2970.50           2434      126162.00    560545.40
  135.41        2970.75           2438      111326.00    493501.70
  135.44        2971.00           2441      100184.00    443353.20
  135.47        2971.25           2445       85272.00    376504.80
  135.50        2971.50           2449       69821.00    307561.30
  135.53        2971.75           2452       58959.00    259288.00
  135.56        2972.00           2456       43675.00    191630.70
  135.59        2972.25           2459       32778.00    143583.30
  135.62        2972.50           2463       18619.00     81387.06
  135.65        2972.75           2466        9702.00     42352.14
  135.68        2973.00           2470        3241.00     14133.21
  135.71        2973.25           2473        1717.00      7484.90
  135.74        2973.50           2477        1274.00      5552.92
  135.77        2973.75           2481        1196.00      5212.78
  135.80        2974.00           2484        1188.00      5177.90
  135.83        2974.25           2488        1139.00      4964.22
  135.86        2974.50           2491        1124.00      4898.81
  135.89        2974.75           2495        1084.00      4724.39
  135.93        2975.00           2498        1076.00      4689.50
  135.96        2975.25           2502        1059.00      4615.37
  135.99        2975.50           2505        1043.00      4545.60
  136.02        2975.75           2509        1061.00      4624.09
  136.05        2976.00           2512        1044.00      4549.96
  136.08        2976.25           2516        1007.00      4388.62
  136.11        2976.50           2520         989.00      4310.13
  136.14        2976.75           2523         996.00      4340.66
  136.17        2977.00           2527         953.00      4153.16
  136.20        2977.25           2530         980.00      4270.89
  136.23        2977.50           2534         954.00      4157.52
  136.26        2977.75           2537         934.00      4070.31
  136.29        2978.00           2541         931.00      4057.23
  136.32        2978.25           2544         926.00      4035.43
  136.35        2978.50           2548         938.00      4087.75
  136.38        2978.75           2552         894.00      3895.90
  136.41        2979.00           2555         944.00      4113.91
  136.44        2979.25           2559         880.00      3834.85
  136.48        2979.50           2562         901.00      3926.42
  136.51        2979.75           2566         907.00      3952.58
  136.54        2980.00           2569         899.00      3917.70
  136.57        2980.25           2573         880.00      3834.85
  136.60        2980.50           2577         897.00      3908.98
  136.63        2980.75           2580         863.00      3760.73
  136.66        2981.00           2584         888.00      3869.73
  136.69        2981.25           2587         839.00      3656.08
  136.72        2981.50           2591         828.00      3608.11
  136.75        2981.75           2594         854.00      3721.48
  136.78        2982.00           2598         819.00      3568.87
  136.81        2982.25           2601         838.00      3651.72
  136.84        2982.50           2605         845.00      3682.24
  136.87        2982.75           2609         826.00      3599.39
  136.90        2983.00           2612         854.00      3721.48
  136.93        2983.25           2616         839.00      3656.08
  136.96        2983.50           2619         824.00      3590.67
  137.00        2983.75           2623         809.00      3525.27
  137.03        2984.00           2626         827.00      3603.75
HS scan finished at 02:17:15
end
************************************************************
  HS Scan of 
************************************************************
Integration time is 0.2294 seconds per sample
dh020417Reading 51.44 .94 3.33pr1000
************************************************************
Dead Time -------------------------  3.4E-08 
Number of Cycles Used -------------  4 
Starting Wavelength (Angstroms) ---  2950 
Final Wavelength (Angstoms) -------  2984 
Wavelength Increment (Angstroms) --  .25 
Filter Wheel #1 Position ---------- (1) Ground quartz diffuser (ND=2.32)
Filter Wheel #2 Position ---------- (1) Neutral Density 0.494



************************************************************
HS scan start time = 19:37:30
Dark Count =  2 


Time (GMT)  Wavelength (Ang)  Step Number  Raw Counts  Counts/Second

 1178.40        2950.00           2144         526.00      2284.40
 1178.60        2950.25           2147         526.00      2284.40
 1178.63        2950.50           2151         517.00      2245.16
 1178.66        2950.75           2155         560.00      2432.63
 1178.69        2951.00           2158         536.00      2328.00
 1178.72        2951.25           2162         552.00      2397.75
 1178.75        2951.50           2165         545.00      2367.23
 1178.78        2951.75           2169         531.00      2306.20
 1178.81        2952.00           2172         568.00      2467.51
 1178.84        2952.25           2176         535.00      2323.64
 1178.87        2952.50           2179         582.00      2528.55
 1178.90        2952.75           2183         538.00      2336.72
 1178.93        2953.00           2186         553.00      2402.11
 1178.97        2953.25           2190         582.00      2528.55
 1179.00        2953.50           2193         542.00      2354.16
 1179.03        2953.75           2197         589.00      2559.07
 1179.06        2954.00           2200         570.00      2476.23
 1179.09        2954.25           2204         583.00      2532.91
 1179.12        2954.50           2208         556.00      2415.19
 1179.15        2954.75           2211         566.00      2458.79
 1179.18        2955.00           2215         574.00      2493.67
 1179.21        2955.25           2218         586.00      2545.99
 1179.24        2955.50           2222         596.00      2589.59
 1179.27        2955.75           2225         585.00      2541.63
 1179.30        2956.00           2229         600.00      2607.03
 1179.33        2956.25           2232         616.00      2676.79
 1179.36        2956.50           2236         595.00      2585.23
 1179.39        2956.75           2239         608.00      2641.91
 1179.42        2957.00           2243         575.00      2498.03
 1179.46        2957.25           2246         622.00      2702.95
 1179.49        2957.50           2250         650.00      2825.03
 1179.52        2957.75           2254         642.00      2790.15
 1179.55        2958.00           2257         631.00      2742.19
 1179.58        2958.25           2261         636.00      2763.99
 1179.61        2958.50           2264         675.00      2934.03
 1179.64        2958.75           2268         672.00      2920.95
 1179.67        2959.00           2271         680.00      2955.83
 1179.70        2959.25           2275         695.00      3021.23
 1179.73        2959.50           2278         699.00      3038.68
 1179.76        2959.75           2282         702.00      3051.76
 1179.79        2960.00           2285         704.00      3060.48
 1179.82        2960.25           2289         712.00      3095.36
 1179.85        2960.50           2293         751.00      3265.40
 1179.88        2960.75           2296         740.00      3217.44
 1179.91        2961.00           2300         817.00      3553.18
 1179.94        2961.25           2303         955.00      4154.90
 1179.97        2961.50           2307        2844.00     12394.06
 1180.01        2961.75           2310        7065.00     30821.30
 1180.04        2962.00           2314       15007.00     65555.72
 1180.07        2962.25           2317       21522.00     94110.60
 1180.10        2962.50           2321       31200.00    136631.50
 1180.13        2962.75           2324       39403.00    172768.70
 1180.16        2963.00           2328       50044.00    219779.20
 1180.19        2963.25           2331       58591.00    257648.20
 1180.22        2963.50           2335       69255.00    305034.80
 1180.25        2963.75           2339       80121.00    353477.30
 1180.28        2964.00           2342       88244.00    389796.30
 1180.31        2964.25           2346       99445.00    440025.90
 1180.34        2964.50           2349      107426.00    475921.60
 1180.37        2964.75           2353      118183.00    524442.90
 1180.40        2965.00           2356      126205.00    560733.00
 1180.43        2965.25           2360      137015.00    609778.90
 1180.46        2965.50           2363      144889.00    645608.30
 1180.49        2965.75           2367      154226.00    688209.50
 1180.52        2966.00           2370      161228.00    720239.10
 1180.56        2966.25           2374      169795.00    759524.00
 1180.59        2966.50           2378      176332.00    789571.80
 1180.62        2966.75           2381      178279.00    798533.40
 1180.65        2967.00           2385      178616.00    800085.00
 1180.68        2967.25           2388      178886.00    801328.40
 1180.71        2967.50           2392      178008.00    797285.60
 1180.74        2967.75           2395      177942.00    796981.80
 1180.77        2968.00           2399      174886.00    782919.80
 1180.80        2968.25           2402      169381.00    757623.20
 1180.83        2968.50           2406      159129.00    710630.20
 1180.86        2968.75           2409      151143.00    674129.20
 1180.89        2969.00           2413      141786.00    631478.10
 1180.92        2969.25           2417      131902.00    586560.20
 1180.95        2969.50           2420      124561.00    553288.40
 1180.98        2969.75           2424      115179.00    510876.60
 1181.01        2970.00           2427      107404.00    475822.50
 1181.05        2970.25           2431       96256.00    425707.60
 1181.08        2970.50           2434       88162.00    389429.20
 1181.11        2970.75           2438       76505.00    337338.70
 1181.14        2971.00           2441       68078.00    299797.10
 1181.17        2971.25           2445       58037.00    255190.60
 1181.20        2971.50           2449       48658.00    213647.50
 1181.23        2971.75           2452       40513.00    177665.50
 1181.26        2972.00           2456       29347.00    128480.70
 1181.29        2972.25           2459       21765.00     95176.72
 1181.32        2972.50           2463       12172.00     53147.39
 1181.35        2972.75           2466        6340.00     27654.59
 1181.38        2973.00           2470        2098.00      9139.72
 1181.41        2973.25           2473        1071.00      4660.72
 1181.44        2973.50           2477         846.00      3679.62
 1181.47        2973.75           2481         826.00      3592.42
 1181.50        2974.00           2484         808.00      3513.93
 1181.53        2974.25           2488         746.00      3243.60
 1181.56        2974.50           2491         792.00      3444.17
 1181.60        2974.75           2495         728.00      3165.12
 1181.63        2975.00           2498         711.00      3091.00
 1181.66        2975.25           2502         690.00      2999.43
 1181.69        2975.50           2505         712.00      3095.36
 1181.72        2975.75           2509         678.00      2947.11
 1181.75        2976.00           2512         717.00      3117.16
 1181.78        2976.25           2516         659.00      2864.27
 1181.81        2976.50           2520         649.00      2820.67
 1181.84        2976.75           2523         668.00      2903.51
 1181.87        2977.00           2527         658.00      2859.91
 1181.90        2977.25           2530         653.00      2838.11
 1181.93        2977.50           2534         612.00      2659.35
 1181.96        2977.75           2537         633.00      2750.91
 1181.99        2978.00           2541         607.00      2637.55
 1182.02        2978.25           2544         648.00      2816.31
 1182.05        2978.50           2548         661.00      2872.99
 1182.08        2978.75           2552         629.00      2733.47
 1182.12        2979.00           2555         598.00      2598.31
 1182.15        2979.25           2559         578.00      2511.11
 1182.18        2979.50           2562         573.00      2489.31
 1182.21        2979.75           2566         580.00      2519.83
 1182.24        2980.00           2569         565.00      2454.43
 1182.27        2980.25           2573         579.00      2515.47
 1182.30        2980.50           2577         563.00      2445.71
 1182.33        2980.75           2580         595.00      2585.23
 1182.36        2981.00           2584         548.00      2380.31
 1182.39        2981.25           2587         558.00      2423.91
 1182.42        2981.50           2591         546.00      2371.60
 1182.45        2981.75           2594         549.00      2384.67
 1182.48        2982.00           2598         524.00      2275.68
 1182.51        2982.25           2601         565.00      2454.43
 1182.54        2982.50           2605         554.00      2406.47
 1182.57        2982.75           2609         562.00      2441.35
 1182.61        2983.00           2612         556.00      2415.19
 1182.64        2983.25           2616         534.00      2319.28
 1182.67        2983.50           2619         515.00      2236.44
 1182.70        2983.75           2623         532.00      2310.56
 1182.73        2984.00           2626         538.00      2336.72
HS scan finished at 19:42:57
end
