************************************************************
  HS Scan of (1) Internal mercury lamp
************************************************************
Integration time is 0.2294 seconds per sample
dh010419Reading 51.44 .94 2.72pr1000
************************************************************
Dead Time -------------------------  3.4E-08 
Number of Cycles Used -------------  4 
Starting Wavelength (Angstroms) ---  2950 
Final Wavelength (Angstoms) -------  2984 
Wavelength Increment (Angstroms) --  .25 
Filter Wheel #1 Position ---------- (1) Ground quartz diffuser (ND=2.32)
Filter Wheel #2 Position ---------- (1) Neutral Density 0.494



************************************************************
HS scan start time = 02:19:28
Dark Count =  .4 


Time (GMT)  Wavelength (Ang)  Step Number  Raw Counts  Counts/Second

  140.36        2950.00           2144        1709.00      7450.01
  140.55        2950.25           2147        1681.00      7327.89
  140.58        2950.50           2151        1709.00      7450.01
  140.61        2950.75           2155        1735.00      7563.41
  140.64        2951.00           2158        1717.00      7484.90
  140.67        2951.25           2162        1702.00      7419.48
  140.70        2951.50           2165        1727.00      7528.52
  140.73        2951.75           2169        1694.00      7384.59
  140.76        2952.00           2172        1739.00      7580.85
  140.80        2952.25           2176        1751.00      7633.19
  140.83        2952.50           2179        1717.00      7484.90
  140.86        2952.75           2183        1747.00      7615.75
  140.89        2953.00           2186        1731.00      7545.96
  140.92        2953.25           2190        1762.00      7681.17
  140.95        2953.50           2193        1734.00      7559.05
  140.99        2953.75           2197        1781.00      7764.04
  141.02        2954.00           2200        1767.00      7702.98
  141.06        2954.25           2204        1778.00      7750.95
  141.09        2954.50           2208        1816.00      7916.69
  141.12        2954.75           2211        1814.00      7907.97
  141.15        2955.00           2215        1798.00      7838.18
  141.18        2955.25           2218        1841.00      8025.73
  141.21        2955.50           2222        1855.00      8086.79
  141.24        2955.75           2225        1827.00      7964.67
  141.27        2956.00           2229        1838.00      8012.65
  141.30        2956.25           2232        1816.00      7916.69
  141.33        2956.50           2236        1826.00      7960.31
  141.36        2956.75           2239        1839.00      8017.01
  141.39        2957.00           2243        1870.00      8152.22
  141.42        2957.25           2246        1921.00      8374.66
  141.45        2957.50           2250        1919.00      8365.94
  141.48        2957.75           2254        1914.00      8344.13
  141.51        2958.00           2257        1929.00      8409.55
  141.54        2958.25           2261        1968.00      8579.66
  141.58        2958.50           2264        1970.00      8588.38
  141.61        2958.75           2268        2013.00      8775.94
  141.64        2959.00           2271        2031.00      8854.45
  141.67        2959.25           2275        2087.00      9098.72
  141.70        2959.50           2278        2068.00      9015.84
  141.73        2959.75           2282        2111.00      9203.40
  141.76        2960.00           2285        2094.00      9129.25
  141.79        2960.25           2289        2115.00      9220.85
  141.82        2960.50           2293        2201.00      9595.98
  141.85        2960.75           2296        2167.00      9447.67
  141.88        2961.00           2300        2328.00     10149.97
  141.91        2961.25           2303        2601.00     11340.90
  141.94        2961.50           2307        5380.00     23469.46
  141.97        2961.75           2310       13855.00     60519.35
  142.00        2962.00           2314       32473.00    142240.70
  142.03        2962.25           2317       48865.00    214570.20
  142.06        2962.50           2321       71839.00    316547.30
  142.09        2962.75           2324       89332.00    394674.90
  142.13        2963.00           2328      114223.00    506569.10
  142.16        2963.25           2331      132768.00    590497.40
  142.19        2963.50           2335      157784.00    704483.50
  142.22        2963.75           2339      182872.00    819703.10
  142.25        2964.00           2342      202197.00    909083.90
  142.28        2964.25           2346      228033.00   1029448.00
  142.31        2964.50           2349      248442.00   1125243.00
  142.34        2964.75           2353      272036.00   1236787.00
  142.37        2965.00           2356      289191.00   1318435.00
  142.40        2965.25           2360      312903.00   1432061.00
  142.43        2965.50           2363      330741.00   1518137.00
  142.46        2965.75           2367      355971.00   1640773.00
  142.49        2966.00           2370      373583.00   1727008.00
  142.52        2966.25           2374      395242.00   1833778.00
  142.55        2966.50           2378      412922.00   1921532.00
  142.58        2966.75           2381      418859.00   1951122.00
  142.62        2967.00           2385      422030.00   1966951.00
  142.65        2967.25           2388      422345.00   1968524.00
  142.68        2967.50           2392      422869.00   1971142.00
  142.71        2967.75           2395      421688.00   1965243.00
  142.74        2968.00           2399      416605.00   1939880.00
  142.77        2968.25           2402      405122.00   1882750.00
  142.80        2968.50           2406      385733.00   1786804.00
  142.83        2968.75           2409      370332.00   1711050.00
  142.86        2969.00           2413      349876.00   1611050.00
  142.89        2969.25           2417      326512.00   1497684.00
  142.92        2969.50           2420      307095.00   1404147.00
  142.95        2969.75           2424      281144.00   1280078.00
  142.98        2970.00           2427      263076.00   1194325.00
  143.01        2970.25           2431      236470.00   1068972.00
  143.04        2970.50           2434      218089.00    983002.40
  143.07        2970.75           2438      192528.00    864294.40
  143.10        2971.00           2441      171791.00    768699.50
  143.13        2971.25           2445      147362.00    656886.80
  143.17        2971.50           2449      122746.00    545081.30
  143.20        2971.75           2452      103017.00    456087.80
  143.23        2972.00           2456       79002.00    348488.40
  143.26        2972.25           2459       60122.00    264449.00
  143.29        2972.50           2463       37252.00    163291.20
  143.32        2972.75           2466       21579.00     94367.68
  143.35        2973.00           2470        7274.00     31741.30
  143.38        2973.25           2473        3454.00     15062.64
  143.41        2973.50           2477        2410.00     10507.68
  143.44        2973.75           2481        2229.00      9718.12
  143.47        2974.00           2484        2194.00      9565.45
  143.50        2974.25           2488        2134.00      9303.73
  143.53        2974.50           2491        2085.00      9089.99
  143.56        2974.75           2495        2077.00      9055.10
  143.59        2975.00           2498        2070.00      9024.57
  143.62        2975.25           2502        2017.00      8793.39
  143.65        2975.50           2505        1987.00      8662.53
  143.69        2975.75           2509        1988.00      8666.89
  143.72        2976.00           2512        1996.00      8701.79
  143.75        2976.25           2516        1936.00      8440.09
  143.78        2976.50           2520        1870.00      8152.22
  143.81        2976.75           2523        1902.00      8291.79
  143.84        2977.00           2527        1915.00      8348.49
  143.87        2977.25           2530        1812.00      7899.24
  143.90        2977.50           2534        1869.00      8147.85
  143.93        2977.75           2537        1836.00      8003.92
  143.96        2978.00           2541        1783.00      7772.76
  143.99        2978.25           2544        1785.00      7781.48
  144.02        2978.50           2548        1819.00      7929.78
  144.05        2978.75           2552        1730.00      7541.60
  144.08        2979.00           2555        1751.00      7633.19
  144.11        2979.25           2559        1757.00      7659.36
  144.14        2979.50           2562        1750.00      7628.83
  144.17        2979.75           2566        1719.00      7493.63
  144.21        2980.00           2569        1699.00      7406.40
  144.24        2980.25           2573        1700.00      7410.76
  144.27        2980.50           2577        1719.00      7493.63
  144.30        2980.75           2580        1691.00      7371.51
  144.33        2981.00           2584        1629.00      7101.10
  144.36        2981.25           2587        1671.00      7284.28
  144.39        2981.50           2591        1649.00      7188.33
  144.42        2981.75           2594        1635.00      7127.27
  144.45        2982.00           2598        1662.00      7245.03
  144.48        2982.25           2601        1617.00      7048.77
  144.51        2982.50           2605        1637.00      7135.99
  144.54        2982.75           2609        1588.00      6922.29
  144.57        2983.00           2612        1618.00      7053.13
  144.60        2983.25           2616        1588.00      6922.29
  144.63        2983.50           2619        1605.00      6996.43
  144.66        2983.75           2623        1591.00      6935.38
  144.69        2984.00           2626        1608.00      7009.52
HS scan finished at 02:24:55
end
************************************************************
  HS Scan of (1) Internal mercury lamp
************************************************************
Integration time is 0.2294 seconds per sample
dh010419Reading 51.44 .94 3.23pr1000
************************************************************
Dead Time -------------------------  3.4E-08 
Number of Cycles Used -------------  4 
Starting Wavelength (Angstroms) ---  2950 
Final Wavelength (Angstoms) -------  2984 
Wavelength Increment (Angstroms) --  .25 
Filter Wheel #1 Position ---------- (1) Ground quartz diffuser (ND=2.32)
Filter Wheel #2 Position ---------- (1) Neutral Density 0.494



************************************************************
HS scan start time = 19:37:26
Dark Count =  1.7 


Time (GMT)  Wavelength (Ang)  Step Number  Raw Counts  Counts/Second

 1178.34        2950.00           2144        1571.00      6842.48
 1178.53        2950.25           2147        1600.00      6968.96
 1178.56        2950.50           2151        1600.00      6968.96
 1178.59        2950.75           2155        1593.00      6938.43
 1178.62        2951.00           2158        1603.00      6982.04
 1178.65        2951.25           2162        1605.00      6990.76
 1178.69        2951.50           2165        1599.00      6964.60
 1178.72        2951.75           2169        1598.00      6960.23
 1178.75        2952.00           2172        1604.00      6986.40
 1178.78        2952.25           2176        1616.00      7038.74
 1178.81        2952.50           2179        1660.00      7230.64
 1178.84        2952.75           2183        1652.00      7195.75
 1178.87        2953.00           2186        1617.00      7043.10
 1178.90        2953.25           2190        1606.00      6995.12
 1178.93        2953.50           2193        1667.00      7261.16
 1178.96        2953.75           2197        1644.00      7160.86
 1178.99        2954.00           2200        1689.00      7357.12
 1179.02        2954.25           2204        1684.00      7335.31
 1179.05        2954.50           2208        1664.00      7248.08
 1179.08        2954.75           2211        1692.00      7370.20
 1179.11        2955.00           2215        1684.00      7335.31
 1179.14        2955.25           2218        1709.00      7444.34
 1179.17        2955.50           2222        1732.00      7544.66
 1179.21        2955.75           2225        1712.00      7457.43
 1179.24        2956.00           2229        1682.00      7326.59
 1179.27        2956.25           2232        1713.00      7461.79
 1179.30        2956.50           2236        1746.00      7605.72
 1179.33        2956.75           2239        1774.00      7727.84
 1179.36        2957.00           2243        1773.00      7723.48
 1179.39        2957.25           2246        1807.00      7871.77
 1179.42        2957.50           2250        1813.00      7897.94
 1179.45        2957.75           2254        1804.00      7858.68
 1179.48        2958.00           2257        1836.00      7998.25
 1179.51        2958.25           2261        1893.00      8246.86
 1179.54        2958.50           2264        1832.00      7980.81
 1179.57        2958.75           2268        1896.00      8259.95
 1179.60        2959.00           2271        1922.00      8373.35
 1179.63        2959.25           2275        1956.00      8521.65
 1179.66        2959.50           2278        1969.00      8578.35
 1179.69        2959.75           2282        2021.00      8805.16
 1179.73        2960.00           2285        2032.00      8853.14
 1179.76        2960.25           2289        2029.00      8840.06
 1179.79        2960.50           2293        2112.00      9202.10
 1179.82        2960.75           2296        2155.00      9389.66
 1179.85        2961.00           2300        2215.00      9651.38
 1179.88        2961.25           2303        2499.00     10890.26
 1179.91        2961.50           2307        6203.00     27057.58
 1179.94        2961.75           2310       16716.00     73042.11
 1179.97        2962.00           2314       36937.00    161897.00
 1180.00        2962.25           2317       54364.00    238908.80
 1180.03        2962.50           2321       77889.00    343514.90
 1180.06        2962.75           2324       97557.00    431548.60
 1180.09        2963.00           2328      125874.00    559235.10
 1180.12        2963.25           2331      146511.00    653001.30
 1180.15        2963.50           2335      173705.00    777490.50
 1180.18        2963.75           2339      201161.00    904272.20
 1180.21        2964.00           2342      220529.00    994379.00
 1180.25        2964.25           2346      246301.00   1115158.00
 1180.28        2964.50           2349      268255.00   1218847.00
 1180.31        2964.75           2353      298411.00   1362504.00
 1180.34        2965.00           2356      319243.00   1462589.00
 1180.37        2965.25           2360      344818.00   1586425.00
 1180.40        2965.50           2363      362383.00   1672102.00
 1180.43        2965.75           2367      384692.00   1781665.00
 1180.46        2966.00           2370      400695.00   1860780.00
 1180.49        2966.25           2374      423953.00   1976553.00
 1180.52        2966.50           2378      443015.00   2072148.00
 1180.55        2966.75           2381      450089.00   2107788.00
 1180.58        2967.00           2385      452960.00   2122279.00
 1180.61        2967.25           2388      453619.00   2125607.00
 1180.64        2967.50           2392      453674.00   2125885.00
 1180.67        2967.75           2395      452879.00   2121870.00
 1180.70        2968.00           2399      449522.00   2104928.00
 1180.74        2968.25           2402      438538.00   2049638.00
 1180.77        2968.50           2406      418447.00   1949060.00
 1180.80        2968.75           2409      400079.00   1857726.00
 1180.83        2969.00           2413      376820.00   1742908.00
 1180.86        2969.25           2417      352197.00   1622355.00
 1180.89        2969.50           2420      335653.00   1541924.00
 1180.92        2969.75           2424      310974.00   1422778.00
 1180.95        2970.00           2427      289255.00   1318735.00
 1180.98        2970.25           2431      260858.00   1183827.00
 1181.01        2970.50           2434      238431.00   1078168.00
 1181.04        2970.75           2438      212531.00    957101.50
 1181.07        2971.00           2441      193414.00    868387.00
 1181.10        2971.25           2445      166863.00    746068.50
 1181.13        2971.50           2449      140620.00    626173.30
 1181.16        2971.75           2452      120994.00    537150.40
 1181.19        2972.00           2456       94854.00    419418.50
 1181.22        2972.25           2459       74687.00    329232.90
 1181.25        2972.50           2463       47107.00    206790.10
 1181.29        2972.75           2466       28231.00    123575.20
 1181.32        2973.00           2470       10448.00     45608.16
 1181.35        2973.25           2473        4849.00     21145.54
 1181.38        2973.50           2477        2617.00     11405.03
 1181.41        2973.75           2481        2242.00      9769.16
 1181.44        2974.00           2484        2186.00      9524.88
 1181.47        2974.25           2488        2169.00      9450.73
 1181.50        2974.50           2491        2072.00      9027.62
 1181.53        2974.75           2495        2073.00      9031.98
 1181.56        2975.00           2498        2027.00      8831.34
 1181.59        2975.25           2502        1985.00      8648.14
 1181.62        2975.50           2505        1927.00      8395.16
 1181.65        2975.75           2509        1960.00      8539.10
 1181.68        2976.00           2512        1834.00      7989.53
 1181.71        2976.25           2516        1871.00      8150.91
 1181.74        2976.50           2520        1911.00      8325.37
 1181.77        2976.75           2523        1808.00      7876.13
 1181.81        2977.00           2527        1827.00      7959.00
 1181.84        2977.25           2530        1777.00      7740.92
 1181.87        2977.50           2534        1768.00      7701.67
 1181.90        2977.75           2537        1761.00      7671.14
 1181.93        2978.00           2541        1739.00      7575.19
 1181.96        2978.25           2544        1711.00      7453.07
 1181.99        2978.50           2548        1736.00      7562.10
 1182.02        2978.75           2552        1680.00      7317.86
 1182.05        2979.00           2555        1674.00      7291.70
 1182.08        2979.25           2559        1658.00      7221.91
 1182.11        2979.50           2562        1675.00      7296.06
 1182.14        2979.75           2566        1644.00      7160.86
 1182.17        2980.00           2569        1643.00      7156.49
 1182.20        2980.25           2573        1592.00      6934.07
 1182.23        2980.50           2577        1573.00      6851.20
 1182.26        2980.75           2580        1562.00      6803.23
 1182.29        2981.00           2584        1603.00      6982.04
 1182.33        2981.25           2587        1568.00      6829.40
 1182.36        2981.50           2591        1593.00      6938.43
 1182.39        2981.75           2594        1608.00      7003.85
 1182.42        2982.00           2598        1569.00      6833.76
 1182.45        2982.25           2601        1577.00      6868.65
 1182.48        2982.50           2605        1577.00      6868.65
 1182.51        2982.75           2609        1531.00      6668.03
 1182.54        2983.00           2612        1543.00      6720.37
 1182.57        2983.25           2616        1512.00      6585.17
 1182.60        2983.50           2619        1513.00      6589.53
 1182.63        2983.75           2623        1505.00      6554.64
 1182.66        2984.00           2626        1523.00      6633.14
HS scan finished at 19:42:54
end
