************************************************************
  HS Scan of (1) Internal mercury lamp
************************************************************
Integration time is 0.2294 seconds per sample
dh040419Reading 51.44 .94 2.72pr1000
************************************************************
Dead Time -------------------------  3.4E-08 
Number of Cycles Used -------------  4 
Starting Wavelength (Angstroms) ---  2950 
Final Wavelength (Angstoms) -------  2984 
Wavelength Increment (Angstroms) --  .25 
Filter Wheel #1 Position ---------- (1) Ground quartz diffuser (ND=2.32)
Filter Wheel #2 Position ---------- (1) Neutral Density 0.494



************************************************************
HS scan start time = 02:40:02
Dark Count =  .4 


Time (GMT)  Wavelength (Ang)  Step Number  Raw Counts  Counts/Second

  160.93        2950.00           2144        1643.00      7162.16
  161.12        2950.25           2147        1638.00      7140.36
  161.15        2950.50           2151        1635.00      7127.27
  161.18        2950.75           2155        1665.00      7258.11
  161.21        2951.00           2158        1682.00      7332.26
  161.24        2951.25           2162        1662.00      7245.03
  161.27        2951.50           2165        1641.00      7153.44
  161.30        2951.75           2169        1672.00      7288.64
  161.33        2952.00           2172        1673.00      7293.00
  161.37        2952.25           2176        1664.00      7253.75
  161.40        2952.50           2179        1671.00      7284.28
  161.43        2952.75           2183        1741.00      7589.58
  161.46        2953.00           2186        1699.00      7406.40
  161.49        2953.25           2190        1704.00      7428.21
  161.52        2953.50           2193        1710.00      7454.37
  161.55        2953.75           2197        1740.00      7585.22
  161.58        2954.00           2200        1785.00      7781.48
  161.61        2954.25           2204        1783.00      7772.76
  161.64        2954.50           2208        1736.00      7567.77
  161.67        2954.75           2211        1815.00      7912.33
  161.70        2955.00           2215        1786.00      7785.84
  161.73        2955.25           2218        1811.00      7894.88
  161.76        2955.50           2222        1853.00      8078.07
  161.79        2955.75           2225        1837.00      8008.28
  161.82        2956.00           2229        1800.00      7846.91
  161.85        2956.25           2232        1830.00      7977.75
  161.89        2956.50           2236        1864.00      8126.05
  161.92        2956.75           2239        1885.00      8217.64
  161.95        2957.00           2243        1963.00      8557.85
  161.98        2957.25           2246        1910.00      8326.68
  162.01        2957.50           2250        1955.00      8522.96
  162.04        2957.75           2254        1932.00      8422.64
  162.07        2958.00           2257        2001.00      8723.60
  162.10        2958.25           2261        2009.00      8758.49
  162.13        2958.50           2264        2030.00      8850.09
  162.16        2958.75           2268        2025.00      8828.28
  162.19        2959.00           2271        2073.00      9037.65
  162.22        2959.25           2275        2083.00      9081.27
  162.25        2959.50           2278        2120.00      9242.66
  162.29        2959.75           2282        2211.00      9639.60
  162.32        2960.00           2285        2169.00      9456.40
  162.35        2960.25           2289        2219.00      9674.50
  162.38        2960.50           2293        2255.00      9831.53
  162.41        2960.75           2296        2291.00      9988.57
  162.44        2961.00           2300        2554.00     11135.86
  162.47        2961.25           2303        3533.00     15407.37
  162.50        2961.50           2307       11809.00     51566.35
  162.53        2961.75           2310       27228.00    119172.40
  162.56        2962.00           2314       52912.00    232482.60
  162.59        2962.25           2317       75067.00    330932.90
  162.63        2962.50           2321      106368.00    471165.20
  162.66        2962.75           2324      129235.00    574471.00
  162.69        2963.00           2328      158667.00    708523.40
  162.72        2963.25           2331      182035.00    815844.30
  162.75        2963.50           2335      213943.00    963681.70
  162.78        2963.75           2339      244568.00   1107010.00
  162.81        2964.00           2342      267393.00   1214768.00
  162.84        2964.25           2346      295686.00   1349469.00
  162.87        2964.50           2349      318272.00   1457915.00
  162.90        2964.75           2353      346698.00   1595577.00
  162.93        2965.00           2356      366964.00   1694537.00
  162.96        2965.25           2360      393509.00   1825206.00
  162.99        2965.50           2363      413406.00   1923942.00
  163.02        2965.75           2367      439699.00   2055478.00
  163.05        2966.00           2370      460496.00   2160391.00
  163.08        2966.25           2374      482584.00   2272676.00
  163.11        2966.50           2378      492847.00   2325154.00
  163.15        2966.75           2381      493844.00   2330262.00
  163.18        2967.00           2385      493946.00   2330785.00
  163.21        2967.25           2388      492620.00   2323990.00
  163.24        2967.50           2392      491370.00   2317589.00
  163.27        2967.75           2395      485367.00   2286887.00
  163.30        2968.00           2399      471039.00   2213876.00
  163.33        2968.25           2402      454368.00   2129397.00
  163.36        2968.50           2406      428269.00   1998147.00
  163.39        2968.75           2409      406288.00   1888541.00
  163.42        2969.00           2413      375297.00   1735428.00
  163.45        2969.25           2417      345037.00   1587496.00
  163.48        2969.50           2420      321372.00   1472863.00
  163.51        2969.75           2424      290195.00   1323228.00
  163.54        2970.00           2427      266332.00   1209741.00
  163.57        2970.25           2431      237603.00   1074288.00
  163.60        2970.50           2434      216132.00    973879.30
  163.63        2970.75           2438      189008.00    848023.20
  163.67        2971.00           2441      167447.00    748753.80
  163.70        2971.25           2445      138545.00    616741.30
  163.73        2971.50           2449      110770.00    490995.20
  163.76        2971.75           2452       91614.00    404897.70
  163.79        2972.00           2456       68007.00    299488.40
  163.82        2972.25           2459       50307.00    220950.10
  163.85        2972.50           2463       26674.00    116737.90
  163.88        2972.75           2466       12289.00     53666.27
  163.91        2973.00           2470        4232.00     18457.96
  163.94        2973.25           2473        2778.00     12113.10
  163.97        2973.50           2477        2315.00     10093.26
  164.00        2973.75           2481        2282.00      9949.31
  164.03        2974.00           2484        2196.00      9574.17
  164.06        2974.25           2488        2142.00      9338.62
  164.09        2974.50           2491        2106.00      9181.59
  164.12        2974.75           2495        2109.00      9194.68
  164.15        2975.00           2498        2073.00      9037.65
  164.19        2975.25           2502        2057.00      8967.86
  164.22        2975.50           2505        2043.00      8906.80
  164.25        2975.75           2509        1999.00      8714.88
  164.28        2976.00           2512        2002.00      8727.96
  164.31        2976.25           2516        1942.00      8466.26
  164.34        2976.50           2520        1928.00      8405.19
  164.37        2976.75           2523        1882.00      8204.56
  164.40        2977.00           2527        1902.00      8291.79
  164.43        2977.25           2530        1869.00      8147.85
  164.46        2977.50           2534        1885.00      8217.64
  164.49        2977.75           2537        1834.00      7995.20
  164.52        2978.00           2541        1829.00      7973.39
  164.55        2978.25           2544        1807.00      7877.44
  164.58        2978.50           2548        1777.00      7746.59
  164.61        2978.75           2552        1755.00      7650.64
  164.64        2979.00           2555        1776.00      7742.23
  164.67        2979.25           2559        1743.00      7598.30
  164.71        2979.50           2562        1702.00      7419.48
  164.74        2979.75           2566        1748.00      7620.11
  164.77        2980.00           2569        1742.00      7593.94
  164.80        2980.25           2573        1732.00      7550.33
  164.83        2980.50           2577        1665.00      7258.11
  164.86        2980.75           2580        1685.00      7345.34
  164.89        2981.00           2584        1674.00      7297.36
  164.92        2981.25           2587        1704.00      7428.21
  164.95        2981.50           2591        1681.00      7327.89
  164.98        2981.75           2594        1689.00      7362.78
  165.01        2982.00           2598        1658.00      7227.58
  165.04        2982.25           2601        1628.00      7096.74
  165.07        2982.50           2605        1638.00      7140.36
  165.10        2982.75           2609        1645.00      7170.88
  165.13        2983.00           2612        1601.00      6978.99
  165.16        2983.25           2616        1595.00      6952.82
  165.19        2983.50           2619        1612.00      7026.96
  165.23        2983.75           2623        1560.00      6800.18
  165.26        2984.00           2626        1631.00      7109.83
HS scan finished at 02:45:29
end
************************************************************
  HS Scan of (1) Internal mercury lamp
************************************************************
Integration time is 0.2294 seconds per sample
dh040419Reading 51.44 .94 2.7pr1000
************************************************************
Dead Time -------------------------  3.4E-08 
Number of Cycles Used -------------  4 
Starting Wavelength (Angstroms) ---  2950 
Final Wavelength (Angstoms) -------  2984 
Wavelength Increment (Angstroms) --  .25 
Filter Wheel #1 Position ---------- (1) Ground quartz diffuser (ND=2.32)
Filter Wheel #2 Position ---------- (1) Neutral Density 0.494



************************************************************
HS scan start time = 19:39:55
Dark Count =  .5 


Time (GMT)  Wavelength (Ang)  Step Number  Raw Counts  Counts/Second

 1180.82        2950.00           2144        1220.00      5317.00
 1181.01        2950.25           2147        1226.00      5343.17
 1181.04        2950.50           2151        1254.00      5465.27
 1181.07        2950.75           2155        1221.00      5321.36
 1181.10        2951.00           2158        1241.00      5408.58
 1181.14        2951.25           2162        1295.00      5644.07
 1181.17        2951.50           2165        1244.00      5421.66
 1181.20        2951.75           2169        1271.00      5539.40
 1181.23        2952.00           2172        1278.00      5569.93
 1181.26        2952.25           2176        1273.00      5548.13
 1181.29        2952.50           2179        1232.00      5369.33
 1181.32        2952.75           2183        1277.00      5565.57
 1181.35        2953.00           2186        1267.00      5521.96
 1181.38        2953.25           2190        1294.00      5639.70
 1181.41        2953.50           2193        1263.00      5504.52
 1181.44        2953.75           2197        1273.00      5548.13
 1181.47        2954.00           2200        1314.00      5726.92
 1181.50        2954.25           2204        1290.00      5622.26
 1181.53        2954.50           2208        1299.00      5661.51
 1181.56        2954.75           2211        1282.00      5587.37
 1181.59        2955.00           2215        1343.00      5853.39
 1181.62        2955.25           2218        1301.00      5670.23
 1181.66        2955.50           2222        1304.00      5683.31
 1181.69        2955.75           2225        1320.00      5753.09
 1181.72        2956.00           2229        1347.00      5870.83
 1181.75        2956.25           2232        1328.00      5787.97
 1181.78        2956.50           2236        1339.00      5835.95
 1181.81        2956.75           2239        1333.00      5809.78
 1181.84        2957.00           2243        1346.00      5866.47
 1181.87        2957.25           2246        1356.00      5910.08
 1181.90        2957.50           2250        1389.00      6053.99
 1181.93        2957.75           2254        1426.00      6215.35
 1181.96        2958.00           2257        1406.00      6128.13
 1181.99        2958.25           2261        1446.00      6302.57
 1182.02        2958.50           2264        1402.00      6110.69
 1182.05        2958.75           2268        1447.00      6306.93
 1182.08        2959.00           2271        1443.00      6289.49
 1182.11        2959.25           2275        1459.00      6359.27
 1182.14        2959.50           2278        1486.00      6477.02
 1182.18        2959.75           2282        1518.00      6616.57
 1182.21        2960.00           2285        1515.00      6603.49
 1182.24        2960.25           2289        1545.00      6734.32
 1182.27        2960.50           2293        1586.00      6913.13
 1182.31        2960.75           2296        1642.00      7157.37
 1182.34        2961.00           2300        1708.00      7445.22
 1182.37        2961.25           2303        1992.00      8683.91
 1182.40        2961.50           2307        4662.00     20334.46
 1182.44        2961.75           2310       11400.00     49776.85
 1182.47        2962.00           2314       25360.00    110964.90
 1182.50        2962.25           2317       36588.00    160364.10
 1182.53        2962.50           2321       53918.00    236938.20
 1182.56        2962.75           2324       67358.00    296600.70
 1182.59        2963.00           2328       87329.00    385707.40
 1182.63        2963.25           2331      100878.00    446471.30
 1182.66        2963.50           2335      118714.00    526849.00
 1182.69        2963.75           2339      136263.00    606368.50
 1182.72        2964.00           2342      150219.00    669918.60
 1182.75        2964.25           2346      169738.00    759269.30
 1182.78        2964.50           2349      184522.00    827312.70
 1182.81        2964.75           2353      200880.00    902974.60
 1182.84        2965.00           2356      213978.00    963844.20
 1182.87        2965.25           2360      231518.00   1045760.00
 1182.90        2965.50           2363      245249.00   1110213.00
 1182.93        2965.75           2367      261996.00   1189215.00
 1182.96        2966.00           2370      274431.00   1248157.00
 1182.99        2966.25           2374      289906.00   1321848.00
 1183.02        2966.50           2378      302822.00   1383643.00
 1183.05        2966.75           2381      306594.00   1401741.00
 1183.08        2967.00           2385      308331.00   1410082.00
 1183.11        2967.25           2388      309495.00   1415674.00
 1183.14        2967.50           2392      309322.00   1414843.00
 1183.18        2967.75           2395      308279.00   1409832.00
 1183.21        2968.00           2399      305772.00   1397795.00
 1183.24        2968.25           2402      297436.00   1357842.00
 1183.27        2968.50           2406      284493.00   1296029.00
 1183.30        2968.75           2409      273136.00   1242008.00
 1183.33        2969.00           2413      258338.00   1171922.00
 1183.36        2969.25           2417      240897.00   1089754.00
 1183.39        2969.50           2420      226449.00   1022039.00
 1183.42        2969.75           2424      207618.00    934255.80
 1183.45        2970.00           2427      195037.00    875903.20
 1183.48        2970.25           2431      176981.00    792565.30
 1183.51        2970.50           2434      163423.00    730301.40
 1183.54        2970.75           2438      144043.00    641761.30
 1183.57        2971.00           2441      131275.00    583722.30
 1183.60        2971.25           2445      110676.00    490571.00
 1183.63        2971.50           2449       89667.00    396174.70
 1183.66        2971.75           2452       75578.00    333211.00
 1183.70        2972.00           2456       57246.00    251689.10
 1183.73        2972.25           2459       44483.00    195199.20
 1183.76        2972.50           2463       29164.00    127682.60
 1183.79        2972.75           2466       18318.00     80067.28
 1183.82        2973.00           2470        6483.00     28285.69
 1183.85        2973.25           2473        2829.00     12335.16
 1183.88        2973.50           2477        1732.00      7549.89
 1183.91        2973.75           2481        1609.00      7013.44
 1183.94        2974.00           2484        1611.00      7022.16
 1183.97        2974.25           2488        1569.00      6838.99
 1184.00        2974.50           2491        1583.00      6900.05
 1184.03        2974.75           2495        1512.00      6590.40
 1184.06        2975.00           2498        1488.00      6485.74
 1184.09        2975.25           2502        1474.00      6424.68
 1184.12        2975.50           2505        1470.00      6407.24
 1184.15        2975.75           2509        1444.00      6293.85
 1184.18        2976.00           2512        1411.00      6149.93
 1184.22        2976.25           2516        1425.00      6210.99
 1184.25        2976.50           2520        1398.00      6093.24
 1184.28        2976.75           2523        1360.00      5927.52
 1184.31        2977.00           2527        1368.00      5962.41
 1184.34        2977.25           2530        1344.00      5857.75
 1184.37        2977.50           2534        1359.00      5923.16
 1184.40        2977.75           2537        1398.00      6093.24
 1184.43        2978.00           2541        1320.00      5753.09
 1184.46        2978.25           2544        1257.00      5478.35
 1184.49        2978.50           2548        1281.00      5583.01
 1184.52        2978.75           2552        1285.00      5600.46
 1184.55        2979.00           2555        1245.00      5426.02
 1184.58        2979.25           2559        1287.00      5609.18
 1184.61        2979.50           2562        1253.00      5460.91
 1184.64        2979.75           2566        1262.00      5500.16
 1184.67        2980.00           2569        1234.00      5378.05
 1184.70        2980.25           2573        1227.00      5347.53
 1184.74        2980.50           2577        1254.00      5465.27
 1184.77        2980.75           2580        1204.00      5247.23
 1184.80        2981.00           2584        1225.00      5338.81
 1184.83        2981.25           2587        1218.00      5308.28
 1184.86        2981.50           2591        1202.00      5238.51
 1184.89        2981.75           2594        1200.00      5229.79
 1184.92        2982.00           2598        1215.00      5295.20
 1184.95        2982.25           2601        1195.00      5207.98
 1184.98        2982.50           2605        1182.00      5151.29
 1185.01        2982.75           2609        1166.00      5081.52
 1185.04        2983.00           2612        1173.00      5112.05
 1185.07        2983.25           2616        1153.00      5024.83
 1185.10        2983.50           2619        1138.00      4959.42
 1185.13        2983.75           2623        1132.00      4933.26
 1185.16        2984.00           2626        1155.00      5033.56
HS scan finished at 19:45:23
end
