************************************************************
  HS Scan of (1) Internal mercury lamp
************************************************************
Integration time is 0.2294 seconds per sample
dh060419Reading 51.44 .94 2.8pr1000
************************************************************
Dead Time -------------------------  3.4E-08 
Number of Cycles Used -------------  4 
Starting Wavelength (Angstroms) ---  2950 
Final Wavelength (Angstoms) -------  2984 
Wavelength Increment (Angstroms) --  .25 
Filter Wheel #1 Position ---------- (1) Ground quartz diffuser (ND=2.32)
Filter Wheel #2 Position ---------- (1) Neutral Density 0.494



************************************************************
HS scan start time = 01:51:12
Dark Count =  .6 


Time (GMT)  Wavelength (Ang)  Step Number  Raw Counts  Counts/Second

  112.10        2950.00           2144        1713.00      7466.59
  112.29        2950.25           2147        1671.00      7283.41
  112.33        2950.50           2151        1669.00      7274.69
  112.36        2950.75           2155        1707.00      7440.42
  112.39        2951.00           2158        1665.00      7257.24
  112.42        2951.25           2162        1693.00      7379.36
  112.45        2951.50           2165        1687.00      7353.19
  112.48        2951.75           2169        1711.00      7457.86
  112.51        2952.00           2172        1696.00      7392.44
  112.54        2952.25           2176        1718.00      7488.39
  112.57        2952.50           2179        1738.00      7575.62
  112.60        2952.75           2183        1709.00      7449.14
  112.63        2953.00           2186        1729.00      7536.37
  112.66        2953.25           2190        1764.00      7689.02
  112.69        2953.50           2193        1721.00      7501.48
  112.72        2953.75           2197        1760.00      7671.57
  112.75        2954.00           2200        1779.00      7754.44
  112.78        2954.25           2204        1803.00      7859.12
  112.81        2954.50           2208        1807.00      7876.57
  112.85        2954.75           2211        1814.00      7907.10
  112.88        2955.00           2215        1791.00      7806.78
  112.91        2955.25           2218        1865.00      8129.54
  112.94        2955.50           2222        1809.00      7885.29
  112.97        2955.75           2225        1857.00      8094.64
  113.00        2956.00           2229        1851.00      8068.47
  113.03        2956.25           2232        1811.00      7894.01
  113.06        2956.50           2236        1898.00      8273.47
  113.09        2956.75           2239        1837.00      8007.41
  113.12        2957.00           2243        1876.00      8177.51
  113.15        2957.25           2246        1886.00      8221.13
  113.18        2957.50           2250        1905.00      8304.00
  113.21        2957.75           2254        1948.00      8491.55
  113.24        2958.00           2257        1980.00      8631.13
  113.27        2958.25           2261        2004.00      8735.81
  113.30        2958.50           2264        1994.00      8692.19
  113.33        2958.75           2268        1981.00      8635.49
  113.36        2959.00           2271        2028.00      8840.50
  113.40        2959.25           2275        2039.00      8888.47
  113.43        2959.50           2278        2044.00      8910.28
  113.46        2959.75           2282        2081.00      9071.67
  113.49        2960.00           2285        2123.00      9254.87
  113.52        2960.25           2289        2177.00      9490.42
  113.55        2960.50           2293        2232.00      9730.33
  113.58        2960.75           2296        2269.00      9891.73
  113.61        2961.00           2300        2482.00     10820.89
  113.64        2961.25           2303        3268.00     14250.15
  113.67        2961.50           2307        9815.00     42845.28
  113.70        2961.75           2310       21710.00     94941.56
  113.73        2962.00           2314       42414.00    186061.70
  113.76        2962.25           2317       59252.00    260587.20
  113.79        2962.50           2321       83134.00    366944.60
  113.82        2962.75           2324      103613.00    458767.40
  113.85        2963.00           2328      132111.00    587515.00
  113.89        2963.25           2331      151474.00    675646.60
  113.92        2963.50           2335      175288.00    784775.30
  113.95        2963.75           2339      200595.00    901652.60
  113.98        2964.00           2342      221569.00    999238.60
  114.01        2964.25           2346      252260.00   1143234.00
  114.04        2964.50           2349      272496.00   1238969.00
  114.07        2964.75           2353      296931.00   1355425.00
  114.10        2965.00           2356      313645.00   1435631.00
  114.13        2965.25           2360      336793.00   1547457.00
  114.16        2965.50           2363      355570.00   1638814.00
  114.19        2965.75           2367      379246.00   1754846.00
  114.22        2966.00           2370      397041.00   1842682.00
  114.25        2966.25           2374      419794.00   1955786.00
  114.28        2966.50           2378      433774.00   2025730.00
  114.31        2966.75           2381      439281.00   2053377.00
  114.34        2967.00           2385      440747.00   2060746.00
  114.37        2967.25           2388      441065.00   2062345.00
  114.41        2967.50           2392      441449.00   2064275.00
  114.44        2967.75           2395      440425.00   2059127.00
  114.47        2968.00           2399      433789.00   2025805.00
  114.50        2968.25           2402      422577.00   1969682.00
  114.53        2968.50           2406      401110.00   1862843.00
  114.56        2968.75           2409      386697.00   1791558.00
  114.59        2969.00           2413      362843.00   1674358.00
  114.62        2969.25           2417      339295.00   1559597.00
  114.65        2969.50           2420      320553.00   1468911.00
  114.68        2969.75           2424      293908.00   1340966.00
  114.71        2970.00           2427      274018.00   1246195.00
  114.74        2970.25           2431      248515.00   1125586.00
  114.77        2970.50           2434      229665.00   1037084.00
  114.80        2970.75           2438      202274.00    909440.30
  114.83        2971.00           2441      182601.00    818452.70
  114.86        2971.25           2445      154182.00    688014.90
  114.89        2971.50           2449      123900.00    550302.60
  114.92        2971.75           2452      102794.00    455084.10
  114.96        2972.00           2456       76334.00    336582.20
  114.99        2972.25           2459       57255.00    251728.60
  115.02        2972.50           2463       34267.00    150138.50
  115.05        2972.75           2466       19229.00     84060.31
  115.08        2973.00           2470        6779.00     29578.12
  115.11        2973.25           2473        3361.00     14655.95
  115.14        2973.50           2477        2373.00     10345.40
  115.17        2973.75           2481        2266.00      9878.64
  115.20        2974.00           2484        2225.00      9699.80
  115.23        2974.25           2488        2150.00      9372.65
  115.26        2974.50           2491        2143.00      9342.11
  115.29        2974.75           2495        2147.00      9359.56
  115.32        2975.00           2498        2068.00      9014.97
  115.35        2975.25           2502        2045.00      8914.65
  115.38        2975.50           2505        2000.00      8718.36
  115.41        2975.75           2509        1993.00      8687.83
  115.45        2976.00           2512        1929.00      8408.68
  115.48        2976.25           2516        1898.00      8273.47
  115.51        2976.50           2520        1902.00      8290.92
  115.54        2976.75           2523        1924.00      8386.87
  115.57        2977.00           2527        1924.00      8386.87
  115.60        2977.25           2530        1867.00      8138.26
  115.63        2977.50           2534        1850.00      8064.11
  115.66        2977.75           2537        1822.00      7941.99
  115.69        2978.00           2541        1824.00      7950.71
  115.72        2978.25           2544        1789.00      7798.06
  115.75        2978.50           2548        1741.00      7588.71
  115.78        2978.75           2552        1785.00      7780.61
  115.81        2979.00           2555        1786.00      7784.97
  115.84        2979.25           2559        1729.00      7536.37
  115.87        2979.50           2562        1715.00      7475.31
  115.90        2979.75           2566        1671.00      7283.41
  115.93        2980.00           2569        1699.00      7405.53
  115.97        2980.25           2573        1686.00      7348.83
  116.00        2980.50           2577        1706.00      7436.06
  116.03        2980.75           2580        1700.00      7409.89
  116.06        2981.00           2584        1675.00      7300.85
  116.09        2981.25           2587        1672.00      7287.77
  116.12        2981.50           2591        1659.00      7231.07
  116.15        2981.75           2594        1635.00      7126.40
  116.18        2982.00           2598        1612.00      7026.09
  116.21        2982.25           2601        1629.00      7100.23
  116.24        2982.50           2605        1649.00      7187.46
  116.27        2982.75           2609        1627.00      7091.51
  116.30        2983.00           2612        1641.00      7152.57
  116.33        2983.25           2616        1591.00      6934.50
  116.36        2983.50           2619        1577.00      6873.45
  116.39        2983.75           2623        1597.00      6960.67
  116.42        2984.00           2626        1607.00      7004.28
HS scan finished at 01:56:39
end
************************************************************
  HS Scan of (1) Internal mercury lamp
************************************************************
Integration time is 0.2294 seconds per sample
dh060419Reading 51.44 .94 3.09pr1000
************************************************************
Dead Time -------------------------  3.4E-08 
Number of Cycles Used -------------  4 
Starting Wavelength (Angstroms) ---  2950 
Final Wavelength (Angstoms) -------  2984 
Wavelength Increment (Angstroms) --  .25 
Filter Wheel #1 Position ---------- (1) Ground quartz diffuser (ND=2.32)
Filter Wheel #2 Position ---------- (1) Neutral Density 0.494



************************************************************
HS scan start time = 19:37:24
Dark Count =  1.3 


Time (GMT)  Wavelength (Ang)  Step Number  Raw Counts  Counts/Second

 1178.30        2950.00           2144        1299.00      5658.02
 1178.49        2950.25           2147        1248.00      5435.62
 1178.53        2950.50           2151        1305.00      5684.18
 1178.56        2950.75           2155        1284.00      5592.61
 1178.59        2951.00           2158        1273.00      5544.64
 1178.62        2951.25           2162        1328.00      5784.49
 1178.65        2951.50           2165        1329.00      5788.85
 1178.68        2951.75           2169        1302.00      5671.10
 1178.71        2952.00           2172        1331.00      5797.57
 1178.74        2952.25           2176        1327.00      5780.13
 1178.77        2952.50           2179        1348.00      5871.70
 1178.80        2952.75           2183        1351.00      5884.79
 1178.83        2953.00           2186        1331.00      5797.57
 1178.87        2953.25           2190        1325.00      5771.40
 1178.91        2953.50           2193        1361.00      5928.40
 1178.94        2953.75           2197        1331.00      5797.57
 1178.97        2954.00           2200        1325.00      5771.40
 1179.00        2954.25           2204        1341.00      5841.18
 1179.03        2954.50           2208        1405.00      6120.28
 1179.06        2954.75           2211        1353.00      5893.51
 1179.09        2955.00           2215        1386.00      6037.42
 1179.12        2955.25           2218        1379.00      6006.89
 1179.15        2955.50           2222        1380.00      6011.25
 1179.18        2955.75           2225        1382.00      6019.98
 1179.21        2956.00           2229        1431.00      6233.67
 1179.24        2956.25           2232        1406.00      6124.64
 1179.28        2956.50           2236        1429.00      6224.94
 1179.31        2956.75           2239        1439.00      6268.55
 1179.34        2957.00           2243        1424.00      6203.14
 1179.37        2957.25           2246        1473.00      6416.83
 1179.40        2957.50           2250        1481.00      6451.72
 1179.43        2957.75           2254        1478.00      6438.64
 1179.46        2958.00           2257        1491.00      6495.33
 1179.49        2958.25           2261        1502.00      6543.30
 1179.52        2958.50           2264        1541.00      6713.39
 1179.55        2958.75           2268        1551.00      6757.00
 1179.58        2959.00           2271        1583.00      6896.56
 1179.61        2959.25           2275        1578.00      6874.75
 1179.64        2959.50           2278        1593.00      6940.17
 1179.67        2959.75           2282        1647.00      7175.68
 1179.70        2960.00           2285        1660.00      7232.38
 1179.73        2960.25           2289        1635.00      7123.35
 1179.76        2960.50           2293        1733.00      7550.76
 1179.79        2960.75           2296        1774.00      7729.58
 1179.83        2961.00           2300        1820.00      7930.21
 1179.86        2961.25           2303        2227.00      9705.47
 1179.89        2961.50           2307        5417.00     23627.08
 1179.92        2961.75           2310       13233.00     57793.06
 1179.95        2962.00           2314       29578.00    129499.60
 1179.98        2962.25           2317       44377.00    194727.40
 1180.01        2962.50           2321       66078.00    290904.50
 1180.04        2962.75           2324       82421.00    363754.90
 1180.07        2963.00           2328      105206.00    465931.10
 1180.10        2963.25           2331      120658.00    535632.90
 1180.13        2963.50           2335      142152.00    633147.10
 1180.16        2963.75           2339      164830.00    736746.80
 1180.19        2964.00           2342      183987.00    824841.10
 1180.22        2964.25           2346      205853.00    926051.50
 1180.25        2964.50           2349      222568.00   1003900.00
 1180.28        2964.75           2353      244573.00   1107030.00
 1180.31        2965.00           2356      259421.00   1177036.00
 1180.35        2965.25           2360      277991.00   1265072.00
 1180.38        2965.50           2363      294059.00   1341685.00
 1180.41        2965.75           2367      314954.00   1441928.00
 1180.44        2966.00           2370      330096.00   1515011.00
 1180.47        2966.25           2374      347982.00   1601822.00
 1180.50        2966.50           2378      362809.00   1674188.00
 1180.53        2966.75           2381      368541.00   1702262.00
 1180.56        2967.00           2385      370604.00   1712380.00
 1180.59        2967.25           2388      371277.00   1715682.00
 1180.62        2967.50           2392      370870.00   1713685.00
 1180.65        2967.75           2395      370919.00   1713926.00
 1180.68        2968.00           2399      367021.00   1694812.00
 1180.71        2968.25           2402      358853.00   1654844.00
 1180.74        2968.50           2406      341550.00   1570543.00
 1180.77        2968.75           2409      327392.00   1501933.00
 1180.80        2969.00           2413      309617.00   1416257.00
 1180.83        2969.25           2417      289681.00   1320770.00
 1180.87        2969.50           2420      272361.00   1238325.00
 1180.90        2969.75           2424      250276.00   1133878.00
 1180.93        2970.00           2427      234366.00   1059101.00
 1180.96        2970.25           2431      212287.00    955967.70
 1180.99        2970.50           2434      197344.00    886582.10
 1181.02        2970.75           2438      176323.00    789533.70
 1181.05        2971.00           2441      158810.00    709173.60
 1181.08        2971.25           2445      134048.00    596304.10
 1181.11        2971.50           2449      111173.00    492807.90
 1181.14        2971.75           2452       93966.00    415437.50
 1181.17        2972.00           2456       72330.00    318730.50
 1181.20        2972.25           2459       55929.00    245846.30
 1181.23        2972.50           2463       33949.00    148735.00
 1181.26        2972.75           2466       19847.00     86766.93
 1181.29        2973.00           2470        6706.00     29256.20
 1181.32        2973.25           2473        3069.00     13378.80
 1181.35        2973.50           2477        1916.00      8348.93
 1181.39        2973.75           2481        1803.00      7856.07
 1181.42        2974.00           2484        1753.00      7637.99
 1181.45        2974.25           2488        1721.00      7498.42
 1181.48        2974.50           2491        1710.00      7450.45
 1181.51        2974.75           2495        1649.00      7184.41
 1181.54        2975.00           2498        1664.00      7249.83
 1181.57        2975.25           2502        1620.00      7057.93
 1181.60        2975.50           2505        1603.00      6983.79
 1181.63        2975.75           2509        1545.00      6730.83
 1181.66        2976.00           2512        1531.00      6669.78
 1181.69        2976.25           2516        1516.00      6604.36
 1181.72        2976.50           2520        1482.00      6456.08
 1181.75        2976.75           2523        1460.00      6360.14
 1181.78        2977.00           2527        1461.00      6364.50
 1181.81        2977.25           2530        1427.00      6216.22
 1181.84        2977.50           2534        1438.00      6264.19
 1181.87        2977.75           2537        1444.00      6290.36
 1181.91        2978.00           2541        1393.00      6067.95
 1181.94        2978.25           2544        1378.00      6002.53
 1181.97        2978.50           2548        1380.00      6011.25
 1182.00        2978.75           2552        1385.00      6033.06
 1182.03        2979.00           2555        1330.00      5793.21
 1182.06        2979.25           2559        1374.00      5985.09
 1182.09        2979.50           2562        1373.00      5980.73
 1182.12        2979.75           2566        1316.00      5732.16
 1182.16        2980.00           2569        1334.00      5810.65
 1182.19        2980.25           2573        1300.00      5662.38
 1182.22        2980.50           2577        1318.00      5740.88
 1182.25        2980.75           2580        1309.00      5701.63
 1182.28        2981.00           2584        1300.00      5662.38
 1182.31        2981.25           2587        1282.00      5583.89
 1182.34        2981.50           2591        1264.00      5505.39
 1182.37        2981.75           2594        1280.00      5575.16
 1182.40        2982.00           2598        1268.00      5522.83
 1182.43        2982.25           2601        1267.00      5518.47
 1182.46        2982.50           2605        1251.00      5448.70
 1182.49        2982.75           2609        1236.00      5383.29
 1182.53        2983.00           2612        1263.00      5501.03
 1182.56        2983.25           2616        1226.00      5339.68
 1182.59        2983.50           2619        1262.00      5496.67
 1182.62        2983.75           2623        1283.00      5588.25
 1182.65        2984.00           2626        1218.00      5304.79
HS scan finished at 19:42:52
end
