************************************************************
  HS Scan of 
************************************************************
Integration time is 0.2294 seconds per sample
dh080417Reading 51.44 .94 2.9pr1000
************************************************************
Dead Time -------------------------  3.4E-08 
Number of Cycles Used -------------  4 
Starting Wavelength (Angstroms) ---  2950 
Final Wavelength (Angstoms) -------  2984 
Wavelength Increment (Angstroms) --  .25 
Filter Wheel #1 Position ---------- (1) Ground quartz diffuser (ND=2.32)
Filter Wheel #2 Position ---------- (1) Neutral Density 0.494



************************************************************
HS scan start time = 01:32:55
Dark Count =  1 


Time (GMT)  Wavelength (Ang)  Step Number  Raw Counts  Counts/Second

   93.81        2950.00           2144         722.00      3143.32
   94.00        2950.25           2147         736.00      3204.36
   94.03        2950.50           2151         720.00      3134.60
   94.06        2950.75           2155         760.00      3309.00
   94.10        2951.00           2158         725.00      3156.40
   94.13        2951.25           2162         743.00      3234.88
   94.16        2951.50           2165         740.00      3221.80
   94.19        2951.75           2169         753.00      3278.48
   94.22        2952.00           2172         765.00      3330.80
   94.25        2952.25           2176         760.00      3309.00
   94.28        2952.50           2179         755.00      3287.20
   94.31        2952.75           2183         762.00      3317.72
   94.34        2953.00           2186         784.00      3413.65
   94.37        2953.25           2190         747.00      3252.32
   94.40        2953.50           2193         764.00      3326.44
   94.43        2953.75           2197         770.00      3352.61
   94.46        2954.00           2200         790.00      3439.81
   94.49        2954.25           2204         788.00      3431.09
   94.52        2954.50           2208         765.00      3330.80
   94.55        2954.75           2211         801.00      3487.77
   94.58        2955.00           2215         812.00      3535.73
   94.62        2955.25           2218         813.00      3540.10
   94.65        2955.50           2222         802.00      3492.13
   94.68        2955.75           2225         851.00      3705.79
   94.71        2956.00           2229         823.00      3583.70
   94.74        2956.25           2232         804.00      3500.85
   94.77        2956.50           2236         818.00      3561.90
   94.80        2956.75           2239         828.00      3605.50
   94.83        2957.00           2243         833.00      3627.30
   94.86        2957.25           2246         865.00      3766.83
   94.89        2957.50           2250         815.00      3548.82
   94.92        2957.75           2254         847.00      3688.34
   94.95        2958.00           2257         893.00      3888.92
   94.98        2958.25           2261         909.00      3958.68
   95.01        2958.50           2264         897.00      3906.36
   95.04        2958.75           2268         917.00      3993.57
   95.07        2959.00           2271         918.00      3997.93
   95.10        2959.25           2275         925.00      4028.45
   95.14        2959.50           2278         922.00      4015.37
   95.17        2959.75           2282         976.00      4250.83
   95.20        2960.00           2285         976.00      4250.83
   95.23        2960.25           2289         980.00      4268.27
   95.26        2960.50           2293        1025.00      4464.50
   95.29        2960.75           2296        1051.00      4577.87
   95.32        2961.00           2300        1120.00      4878.75
   95.35        2961.25           2303        1285.00      5598.28
   95.38        2961.50           2307        3743.00     16321.17
   95.41        2961.75           2310        9373.00     40911.27
   95.44        2962.00           2314       20006.00     87465.48
   95.47        2962.25           2317       29246.00    128041.00
   95.50        2962.50           2321       41156.00    180507.20
   95.53        2962.75           2324       50164.00    220314.60
   95.56        2963.00           2328       63119.00    277754.50
   95.59        2963.25           2331       73950.00    325950.70
   95.62        2963.50           2335       88864.00    392576.50
   95.65        2963.75           2339      102645.00    454412.20
   95.69        2964.00           2342      112096.00    496971.20
   95.72        2964.25           2346      125902.00    559365.10
   95.75        2964.50           2349      136166.00    605925.50
   95.78        2964.75           2353      149774.00    667885.80
   95.81        2965.00           2356      159583.00    712712.60
   95.84        2965.25           2360      171860.00    769013.90
   95.87        2965.50           2363      181241.00    812182.00
   95.90        2965.75           2367      194273.00    872364.80
   95.93        2966.00           2370      202821.00    911976.50
   95.96        2966.25           2374      214633.00    966892.60
   95.99        2966.50           2378      224662.00   1013683.00
   96.02        2966.75           2381      229440.00   1036029.00
   96.05        2967.00           2385      231561.00   1045959.00
   96.08        2967.25           2388      231142.00   1043997.00
   96.11        2967.50           2392      231794.00   1047051.00
   96.14        2967.75           2395      232020.00   1048109.00
   96.17        2968.00           2399      230005.00   1038674.00
   96.21        2968.25           2402      225257.00   1016464.00
   96.24        2968.50           2406      214233.00    965029.40
   96.27        2968.75           2409      204296.00    918822.60
   96.30        2969.00           2413      191571.00    859866.20
   96.33        2969.25           2417      179013.00    801917.90
   96.36        2969.50           2420      168407.00    753156.60
   96.39        2969.75           2424      154284.00    688479.10
   96.42        2970.00           2427      143099.00    637459.90
   96.45        2970.25           2431      128249.00    569998.60
   96.48        2970.50           2434      118388.00    525373.70
   96.51        2970.75           2438      104486.00    462692.70
   96.54        2971.00           2441       93820.00    414784.10
   96.57        2971.25           2445       79974.00    352825.40
   96.60        2971.50           2449       67326.00    296456.10
   96.63        2971.75           2452       57535.00    252968.50
   96.66        2972.00           2456       43926.00    192736.60
   96.69        2972.25           2459       33487.00    146702.00
   96.73        2972.50           2463       20085.00     87811.91
   96.76        2972.75           2466       11321.00     49429.13
   96.79        2973.00           2470        3930.00     17137.27
   96.82        2973.25           2473        1827.00      7962.05
   96.85        2973.50           2477        1164.00      5070.62
   96.88        2973.75           2481        1111.00      4839.51
   96.92        2974.00           2484        1076.00      4686.89
   96.95        2974.25           2488        1048.00      4564.79
   96.98        2974.50           2491        1031.00      4490.66
   97.01        2974.75           2495        1018.00      4433.97
   97.04        2975.00           2498         985.00      4290.08
   97.07        2975.25           2502         953.00      4150.54
   97.10        2975.50           2505         964.00      4198.51
   97.13        2975.75           2509         906.00      3945.60
   97.16        2976.00           2512         907.00      3949.96
   97.19        2976.25           2516         904.00      3936.88
   97.22        2976.50           2520         907.00      3949.96
   97.25        2976.75           2523         913.00      3976.13
   97.28        2977.00           2527         865.00      3766.83
   97.31        2977.25           2530         864.00      3762.47
   97.34        2977.50           2534         845.00      3679.62
   97.37        2977.75           2537         838.00      3649.10
   97.40        2978.00           2541         851.00      3705.79
   97.44        2978.25           2544         846.00      3683.98
   97.47        2978.50           2548         849.00      3697.06
   97.50        2978.75           2552         834.00      3631.66
   97.53        2979.00           2555         812.00      3535.73
   97.56        2979.25           2559         811.00      3531.37
   97.59        2979.50           2562         816.00      3553.18
   97.62        2979.75           2566         781.00      3400.57
   97.65        2980.00           2569         784.00      3413.65
   97.68        2980.25           2573         777.00      3383.13
   97.71        2980.50           2577         803.00      3496.49
   97.74        2980.75           2580         809.00      3522.65
   97.77        2981.00           2584         797.00      3470.33
   97.80        2981.25           2587         761.00      3313.36
   97.83        2981.50           2591         768.00      3343.89
   97.86        2981.75           2594         760.00      3309.00
   97.89        2982.00           2598         740.00      3221.80
   97.92        2982.25           2601         738.00      3213.08
   97.96        2982.50           2605         724.00      3152.04
   97.99        2982.75           2609         723.00      3147.68
   98.02        2983.00           2612         718.00      3125.88
   98.05        2983.25           2616         732.00      3186.92
   98.08        2983.50           2619         697.00      3034.31
   98.11        2983.75           2623         724.00      3152.04
   98.14        2984.00           2626         733.00      3191.28
HS scan finished at 01:38:22
end
************************************************************
  HS Scan of 
************************************************************
Integration time is 0.2294 seconds per sample
dh080417Reading 51.44 .94 3.62pr1000
************************************************************
Dead Time -------------------------  3.4E-08 
Number of Cycles Used -------------  4 
Starting Wavelength (Angstroms) ---  2950 
Final Wavelength (Angstoms) -------  2984 
Wavelength Increment (Angstroms) --  .25 
Filter Wheel #1 Position ---------- (1) Ground quartz diffuser (ND=2.32)
Filter Wheel #2 Position ---------- (1) Neutral Density 0.494



************************************************************
HS scan start time = 19:37:31
Dark Count =  4 


Time (GMT)  Wavelength (Ang)  Step Number  Raw Counts  Counts/Second

 1178.41        2950.00           2144         520.00      2249.52
 1178.60        2950.25           2147         512.00      2214.64
 1178.63        2950.50           2151         516.00      2232.08
 1178.66        2950.75           2155         506.00      2188.48
 1178.69        2951.00           2158         540.00      2336.72
 1178.72        2951.25           2162         516.00      2232.08
 1178.76        2951.50           2165         520.00      2249.52
 1178.79        2951.75           2169         508.00      2197.20
 1178.82        2952.00           2172         544.00      2354.16
 1178.85        2952.25           2176         551.00      2384.67
 1178.88        2952.50           2179         551.00      2384.67
 1178.91        2952.75           2183         566.00      2450.07
 1178.94        2953.00           2186         551.00      2384.67
 1178.97        2953.25           2190         539.00      2332.36
 1179.00        2953.50           2193         537.00      2323.64
 1179.03        2953.75           2197         565.00      2445.71
 1179.06        2954.00           2200         548.00      2371.60
 1179.09        2954.25           2204         577.00      2498.03
 1179.12        2954.50           2208         544.00      2354.16
 1179.15        2954.75           2211         565.00      2445.71
 1179.18        2955.00           2215         579.00      2506.75
 1179.21        2955.25           2218         564.00      2441.35
 1179.24        2955.50           2222         575.00      2489.31
 1179.28        2955.75           2225         565.00      2445.71
 1179.31        2956.00           2229         595.00      2576.51
 1179.34        2956.25           2232         581.00      2515.47
 1179.37        2956.50           2236         597.00      2585.23
 1179.40        2956.75           2239         627.00      2716.03
 1179.43        2957.00           2243         596.00      2580.87
 1179.46        2957.25           2246         621.00      2689.87
 1179.49        2957.50           2250         653.00      2829.39
 1179.52        2957.75           2254         622.00      2694.23
 1179.55        2958.00           2257         675.00      2925.31
 1179.58        2958.25           2261         655.00      2838.11
 1179.61        2958.50           2264         648.00      2807.59
 1179.64        2958.75           2268         666.00      2886.07
 1179.67        2959.00           2271         657.00      2846.83
 1179.70        2959.25           2275         677.00      2934.03
 1179.73        2959.50           2278         697.00      3021.23
 1179.76        2959.75           2282         709.00      3073.56
 1179.80        2960.00           2285         692.00      2999.43
 1179.83        2960.25           2289         728.00      3156.40
 1179.86        2960.50           2293         766.00      3322.08
 1179.89        2960.75           2296         740.00      3208.72
 1179.92        2961.00           2300         827.00      3588.06
 1179.95        2961.25           2303        1264.00      5493.62
 1179.98        2961.50           2307        4845.00     21118.03
 1180.01        2961.75           2310       10484.00     45755.52
 1180.04        2962.00           2314       19716.00     86180.66
 1180.07        2962.25           2317       27166.00    118884.10
 1180.10        2962.50           2321       37635.00    164963.60
 1180.13        2962.75           2324       46045.00    202085.60
 1180.16        2963.00           2328       57252.00    251700.20
 1180.19        2963.25           2331       65986.00    290483.40
 1180.22        2963.50           2335       76712.00    338253.20
 1180.25        2963.75           2339       87451.00    386237.70
 1180.28        2964.00           2342       95860.00    423921.60
 1180.31        2964.25           2346      107234.00    475048.00
 1180.35        2964.50           2349      116217.00    515553.80
 1180.38        2964.75           2353      127799.00    567945.60
 1180.41        2965.00           2356      136255.00    606316.20
 1180.44        2965.25           2360      146970.00    655083.10
 1180.47        2965.50           2363      154268.00    688392.30
 1180.50        2965.75           2367      164325.00    734419.30
 1180.53        2966.00           2370      171658.00    768071.90
 1180.56        2966.25           2374      181028.00    811186.60
 1180.59        2966.50           2378      186905.00    838294.30
 1180.62        2966.75           2381      188003.00    843364.40
 1180.65        2967.00           2385      188770.00    846907.20
 1180.68        2967.25           2388      188769.00    846902.60
 1180.71        2967.50           2392      188734.00    846740.90
 1180.74        2967.75           2395      188349.00    844962.40
 1180.77        2968.00           2399      183407.00    822153.60
 1180.80        2968.25           2402      177213.00    793617.00
 1180.83        2968.50           2406      166747.00    745525.80
 1180.87        2968.75           2409      159458.00    712126.70
 1180.90        2969.00           2413      149894.00    668419.50
 1180.93        2969.25           2417      139577.00    621418.10
 1180.96        2969.50           2420      132010.00    587041.20
 1180.99        2969.75           2424      122240.00    542775.70
 1181.02        2970.00           2427      113022.00    501134.10
 1181.05        2970.25           2431      101173.00    447781.40
 1181.08        2970.50           2434       93602.00    413793.10
 1181.11        2970.75           2438       82678.00    364891.40
 1181.14        2971.00           2441       74320.00    327586.60
 1181.17        2971.25           2445       64166.00    282393.30
 1181.20        2971.50           2449       53551.00    235296.90
 1181.23        2971.75           2452       44833.00    196730.00
 1181.26        2972.00           2456       33144.00    145178.70
 1181.29        2972.25           2459       24495.00    107150.80
 1181.32        2972.50           2463       14730.00     64334.12
 1181.36        2972.75           2466        8350.00     36426.95
 1181.39        2973.00           2470        2646.00     11521.51
 1181.42        2973.25           2473        1228.00      5336.63
 1181.45        2973.50           2477         861.00      3736.31
 1181.48        2973.75           2481         835.00      3622.94
 1181.51        2974.00           2484         801.00      3474.69
 1181.54        2974.25           2488         761.00      3300.28
 1181.57        2974.50           2491         750.00      3252.32
 1181.60        2974.75           2495         745.00      3230.52
 1181.63        2975.00           2498         710.00      3077.92
 1181.66        2975.25           2502         720.00      3121.52
 1181.69        2975.50           2505         686.00      2973.27
 1181.72        2975.75           2509         705.00      3056.12
 1181.75        2976.00           2512         679.00      2942.75
 1181.78        2976.25           2516         673.00      2916.59
 1181.81        2976.50           2520         650.00      2816.31
 1181.84        2976.75           2523         675.00      2925.31
 1181.87        2977.00           2527         630.00      2729.11
 1181.91        2977.25           2530         631.00      2733.47
 1181.94        2977.50           2534         660.00      2859.91
 1181.97        2977.75           2537         625.00      2707.31
 1182.00        2978.00           2541         648.00      2807.59
 1182.03        2978.25           2544         631.00      2733.47
 1182.06        2978.50           2548         613.00      2654.99
 1182.09        2978.75           2552         607.00      2628.83
 1182.12        2979.00           2555         588.00      2545.99
 1182.15        2979.25           2559         582.00      2519.83
 1182.18        2979.50           2562         583.00      2524.19
 1182.21        2979.75           2566         585.00      2532.91
 1182.24        2980.00           2569         573.00      2480.59
 1182.27        2980.25           2573         569.00      2463.15
 1182.30        2980.50           2577         553.00      2393.39
 1182.33        2980.75           2580         571.00      2471.87
 1182.36        2981.00           2584         580.00      2511.11
 1182.39        2981.25           2587         540.00      2336.72
 1182.43        2981.50           2591         554.00      2397.75
 1182.46        2981.75           2594         559.00      2419.55
 1182.49        2982.00           2598         536.00      2319.28
 1182.52        2982.25           2601         564.00      2441.35
 1182.55        2982.50           2605         530.00      2293.12
 1182.58        2982.75           2609         525.00      2271.32
 1182.61        2983.00           2612         543.00      2349.80
 1182.64        2983.25           2616         534.00      2310.56
 1182.67        2983.50           2619         539.00      2332.36
 1182.70        2983.75           2623         543.00      2349.80
 1182.73        2984.00           2626         513.00      2219.00
HS scan finished at 19:42:57
end
