************************************************************
  HS Scan of 
************************************************************
Integration time is 0.2294 seconds per sample
dh090417Reading 51.44 .94 3pr1000
************************************************************
Dead Time -------------------------  3.4E-08 
Number of Cycles Used -------------  4 
Starting Wavelength (Angstroms) ---  2950 
Final Wavelength (Angstoms) -------  2984 
Wavelength Increment (Angstroms) --  .25 
Filter Wheel #1 Position ---------- (1) Ground quartz diffuser (ND=2.32)
Filter Wheel #2 Position ---------- (1) Neutral Density 0.494



************************************************************
HS scan start time = 01:24:00
Dark Count =  .9 


Time (GMT)  Wavelength (Ang)  Step Number  Raw Counts  Counts/Second

   84.91        2950.00           2144         765.00      3331.24
   85.10        2950.25           2147         770.00      3353.04
   85.13        2950.50           2151         758.00      3300.72
   85.16        2950.75           2155         776.00      3379.20
   85.19        2951.00           2158         736.00      3204.80
   85.22        2951.25           2162         820.00      3571.05
   85.25        2951.50           2165         792.00      3448.97
   85.28        2951.75           2169         790.00      3440.25
   85.31        2952.00           2172         791.00      3444.61
   85.34        2952.25           2176         813.00      3540.53
   85.38        2952.50           2179         764.00      3326.88
   85.41        2952.75           2183         789.00      3435.89
   85.44        2953.00           2186         787.00      3427.16
   85.47        2953.25           2190         801.00      3488.21
   85.50        2953.50           2193         777.00      3383.56
   85.53        2953.75           2197         811.00      3531.81
   85.57        2954.00           2200         822.00      3579.77
   85.60        2954.25           2204         807.00      3514.37
   85.63        2954.50           2208         803.00      3496.93
   85.66        2954.75           2211         835.00      3636.46
   85.69        2955.00           2215         823.00      3584.13
   85.72        2955.25           2218         818.00      3562.33
   85.76        2955.50           2222         851.00      3706.22
   85.79        2955.75           2225         850.00      3701.86
   85.82        2956.00           2229         844.00      3675.70
   85.85        2956.25           2232         880.00      3832.67
   85.88        2956.50           2236         868.00      3780.35
   85.91        2956.75           2239         870.00      3789.07
   85.94        2957.00           2243         879.00      3828.31
   85.97        2957.25           2246         921.00      4011.44
   86.00        2957.50           2250         923.00      4020.17
   86.03        2957.75           2254         948.00      4129.18
   86.06        2958.00           2257         883.00      3845.75
   86.09        2958.25           2261         925.00      4028.89
   86.12        2958.50           2264         931.00      4055.05
   86.15        2958.75           2268         923.00      4020.17
   86.18        2959.00           2271         915.00      3985.28
   86.21        2959.25           2275         970.00      4225.11
   86.24        2959.50           2278         964.00      4198.94
   86.28        2959.75           2282         948.00      4129.18
   86.31        2960.00           2285         991.00      4316.68
   86.34        2960.25           2289        1045.00      4552.14
   86.37        2960.50           2293        1077.00      4691.68
   86.40        2960.75           2296        1074.00      4678.60
   86.43        2961.00           2300        1199.00      5223.68
   86.46        2961.25           2303        1535.00      6688.97
   86.49        2961.50           2307        5355.00     23358.13
   86.52        2961.75           2310       13274.00     57974.23
   86.55        2962.00           2314       27149.00    118823.00
   86.58        2962.25           2317       36811.00    161345.20
   86.61        2962.50           2321       49758.00    218518.60
   86.64        2962.75           2324       60449.00    265898.30
   86.67        2963.00           2328       74996.00    330614.10
   86.70        2963.25           2331       87291.00    385535.50
   86.73        2963.50           2335      103204.00    456926.50
   86.76        2963.75           2339      116413.00    516452.90
   86.80        2964.00           2342      127834.00    568118.30
   86.83        2964.25           2346      144222.00    642574.80
   86.86        2964.50           2349      154648.00    690142.90
   86.89        2964.75           2353      169238.00    756971.60
   86.92        2965.00           2356      180350.00    808076.80
   86.95        2965.25           2360      194142.00    871759.10
   86.98        2965.50           2363      204952.00    921868.90
   87.01        2965.75           2367      218980.00    987155.60
   87.04        2966.00           2370      228502.00   1031640.00
   87.07        2966.25           2374      239603.00   1083674.00
   87.10        2966.50           2378      247431.00   1120480.00
   87.13        2966.75           2381      249788.00   1131581.00
   87.16        2967.00           2385      250839.00   1136533.00
   87.19        2967.25           2388      250568.00   1135256.00
   87.22        2967.50           2392      250381.00   1134375.00
   87.25        2967.75           2395      250108.00   1133089.00
   87.28        2968.00           2399      244338.00   1105926.00
   87.32        2968.25           2402      235814.00   1065893.00
   87.35        2968.50           2406      222619.00   1004140.00
   87.38        2968.75           2409      213426.00    961271.80
   87.41        2969.00           2413      199846.00    898178.30
   87.44        2969.25           2417      185798.00    833198.60
   87.47        2969.50           2420      175566.00    786052.60
   87.51        2969.75           2424      161337.00    720743.40
   87.54        2970.00           2427      151142.00    674129.60
   87.57        2970.25           2431      135516.00    602972.80
   87.60        2970.50           2434      124135.00    551365.00
   87.63        2970.75           2438      108805.00    482137.70
   87.66        2971.00           2441       98240.00    434618.90
   87.69        2971.25           2445       84877.00    374736.00
   87.72        2971.50           2449       71716.00    315997.20
   87.75        2971.75           2452       60783.00    267381.00
   87.78        2972.00           2456       46005.00    201922.50
   87.81        2972.25           2459       34330.00    150414.60
   87.84        2972.50           2463       19739.00     86295.11
   87.87        2972.75           2466       11152.00     48690.39
   87.90        2973.00           2470        3738.00     16299.79
   87.93        2973.25           2473        1748.00      7617.93
   87.96        2973.50           2477        1183.00      5153.91
   87.99        2973.75           2481        1118.00      4870.47
   88.03        2974.00           2484        1063.00      4630.63
   88.06        2974.25           2488        1059.00      4613.19
   88.09        2974.50           2491        1057.00      4604.47
   88.12        2974.75           2495        1024.00      4460.57
   88.15        2975.00           2498         999.00      4351.56
   88.18        2975.25           2502         981.00      4273.07
   88.21        2975.50           2505         962.00      4190.22
   88.24        2975.75           2509         952.00      4146.62
   88.27        2976.00           2512         930.00      4050.69
   88.30        2976.25           2516         937.00      4081.21
   88.33        2976.50           2520         914.00      3980.92
   88.36        2976.75           2523         908.00      3954.76
   88.39        2977.00           2527         883.00      3845.75
   88.42        2977.25           2530         874.00      3806.51
   88.45        2977.50           2534         861.00      3749.82
   88.48        2977.75           2537         858.00      3736.74
   88.51        2978.00           2541         903.00      3932.96
   88.54        2978.25           2544         859.00      3741.10
   88.58        2978.50           2548         885.00      3854.47
   88.61        2978.75           2552         837.00      3645.18
   88.64        2979.00           2555         838.00      3649.54
   88.67        2979.25           2559         802.00      3492.57
   88.70        2979.50           2562         842.00      3666.98
   88.73        2979.75           2566         780.00      3396.64
   88.76        2980.00           2569         800.00      3483.85
   88.79        2980.25           2573         788.00      3431.53
   88.82        2980.50           2577         815.00      3549.25
   88.85        2980.75           2580         798.00      3475.13
   88.88        2981.00           2584         765.00      3331.24
   88.91        2981.25           2587         789.00      3435.89
   88.94        2981.50           2591         797.00      3470.77
   88.97        2981.75           2594         738.00      3213.52
   89.00        2982.00           2598         775.00      3374.84
   89.03        2982.25           2601         771.00      3357.40
   89.06        2982.50           2605         712.00      3100.15
   89.10        2982.75           2609         756.00      3292.00
   89.13        2983.00           2612         768.00      3344.32
   89.16        2983.25           2616         748.00      3257.12
   89.19        2983.50           2619         753.00      3278.92
   89.22        2983.75           2623         757.00      3296.36
   89.26        2984.00           2626         728.00      3169.91
HS scan finished at 01:29:29
end
************************************************************
  HS Scan of 
************************************************************
Integration time is 0.2294 seconds per sample
dh090417Reading 51.44 .94 3.56pr1000
************************************************************
Dead Time -------------------------  3.4E-08 
Number of Cycles Used -------------  4 
Starting Wavelength (Angstroms) ---  2950 
Final Wavelength (Angstoms) -------  2984 
Wavelength Increment (Angstroms) --  .25 
Filter Wheel #1 Position ---------- (1) Ground quartz diffuser (ND=2.32)
Filter Wheel #2 Position ---------- (1) Neutral Density 0.494



************************************************************
HS scan start time = 19:37:26
Dark Count =  4.2 


Time (GMT)  Wavelength (Ang)  Step Number  Raw Counts  Counts/Second

 1178.33        2950.00           2144         622.00      2693.36
 1178.52        2950.25           2147         660.00      2859.04
 1178.55        2950.50           2151         645.00      2793.64
 1178.58        2950.75           2155         627.00      2715.16
 1178.61        2951.00           2158         635.00      2750.04
 1178.65        2951.25           2162         623.00      2697.72
 1178.68        2951.50           2165         626.00      2710.80
 1178.71        2951.75           2169         637.00      2758.76
 1178.74        2952.00           2172         631.00      2732.60
 1178.77        2952.25           2176         633.00      2741.32
 1178.80        2952.50           2179         647.00      2802.36
 1178.83        2952.75           2183         655.00      2837.24
 1178.86        2953.00           2186         676.00      2928.80
 1178.89        2953.25           2190         662.00      2867.76
 1178.92        2953.50           2193         643.00      2784.92
 1178.95        2953.75           2197         667.00      2889.56
 1178.98        2954.00           2200         641.00      2776.20
 1179.01        2954.25           2204         649.00      2811.08
 1179.04        2954.50           2208         667.00      2889.56
 1179.07        2954.75           2211         680.00      2946.24
 1179.10        2955.00           2215         681.00      2950.60
 1179.13        2955.25           2218         696.00      3016.00
 1179.16        2955.50           2222         708.00      3068.32
 1179.20        2955.75           2225         705.00      3055.24
 1179.23        2956.00           2229         686.00      2972.40
 1179.26        2956.25           2232         700.00      3033.44
 1179.29        2956.50           2236         709.00      3072.68
 1179.32        2956.75           2239         702.00      3042.16
 1179.35        2957.00           2243         750.00      3251.45
 1179.38        2957.25           2246         741.00      3212.21
 1179.41        2957.50           2250         735.00      3186.05
 1179.44        2957.75           2254         758.00      3286.33
 1179.47        2958.00           2257         750.00      3251.45
 1179.50        2958.25           2261         761.00      3299.41
 1179.53        2958.50           2264         774.00      3356.09
 1179.56        2958.75           2268         780.00      3382.26
 1179.59        2959.00           2271         798.00      3460.74
 1179.62        2959.25           2275         806.00      3495.62
 1179.65        2959.50           2278         787.00      3412.78
 1179.69        2959.75           2282         859.00      3726.71
 1179.72        2960.00           2285         838.00      3635.15
 1179.75        2960.25           2289         881.00      3822.64
 1179.78        2960.50           2293         860.00      3731.07
 1179.81        2960.75           2296         902.00      3914.21
 1179.84        2961.00           2300         991.00      4302.29
 1179.87        2961.25           2303        1451.00      6308.24
 1179.90        2961.50           2307        4864.00     21200.11
 1179.93        2961.75           2310       10536.00     45982.03
 1179.96        2962.00           2314       20961.00     91639.93
 1179.99        2962.25           2317       31011.00    135790.30
 1180.02        2962.50           2321       44170.00    193800.30
 1180.05        2962.75           2324       54277.00    238512.30
 1180.08        2963.00           2328       67991.00    299400.20
 1180.11        2963.25           2331       77846.00    343311.90
 1180.14        2963.50           2335       89414.00    395025.00
 1180.17        2963.75           2339      102034.00    451650.80
 1180.21        2964.00           2342      112979.00    500939.20
 1180.24        2964.25           2346      127054.00    564569.00
 1180.27        2964.50           2349      137482.00    611891.40
 1180.30        2964.75           2353      149976.00    668792.80
 1180.33        2965.00           2356      158919.00    709659.10
 1180.36        2965.25           2360      171027.00    765172.10
 1180.39        2965.50           2363      179660.00    804883.00
 1180.42        2965.75           2367      190764.00    856120.60
 1180.45        2966.00           2370      200385.00    900662.10
 1180.48        2966.25           2374      211915.00    954222.60
 1180.51        2966.50           2378      218971.00    987098.10
 1180.54        2966.75           2381      220837.00    995804.90
 1180.57        2967.00           2385      221179.00    997401.20
 1180.60        2967.25           2388      222237.00   1002341.00
 1180.63        2967.50           2392      221833.00   1000454.00
 1180.66        2967.75           2395      221198.00    997489.90
 1180.69        2968.00           2399      217650.00    980937.80
 1180.73        2968.25           2402      211114.00    950495.40
 1180.76        2968.50           2406      200077.00    899234.10
 1180.79        2968.75           2409      191396.00    859042.30
 1180.82        2969.00           2413      179728.00    805196.30
 1180.85        2969.25           2417      167374.00    748401.30
 1180.88        2969.50           2420      158187.00    706309.80
 1180.91        2969.75           2424      144897.00    645634.60
 1180.94        2970.00           2427      135730.00    603930.00
 1180.97        2970.25           2431      122264.00    542883.30
 1181.00        2970.50           2434      112411.00    498377.30
 1181.03        2970.75           2438       99774.00    441494.00
 1181.06        2971.00           2441       90112.00    398151.30
 1181.09        2971.25           2445       76092.00    335486.80
 1181.12        2971.50           2449       61470.00    270416.50
 1181.15        2971.75           2452       51715.00    227165.40
 1181.18        2972.00           2456       38589.00    169169.00
 1181.21        2972.25           2459       29446.00    128906.40
 1181.25        2972.50           2463       17102.00     74722.30
 1181.28        2972.75           2466        9169.00     40005.56
 1181.31        2973.00           2470        2796.00     12175.05
 1181.34        2973.25           2473        1343.00      5837.25
 1181.37        2973.50           2477        1007.00      4372.05
 1181.40        2973.75           2481         921.00      3997.06
 1181.43        2974.00           2484         922.00      4001.42
 1181.46        2974.25           2488         893.00      3874.97
 1181.49        2974.50           2491         886.00      3844.44
 1181.53        2974.75           2495         850.00      3687.47
 1181.57        2975.00           2498         849.00      3683.11
 1181.60        2975.25           2502         803.00      3482.54
 1181.63        2975.50           2505         817.00      3543.58
 1181.66        2975.75           2509         803.00      3482.54
 1181.69        2976.00           2512         817.00      3543.58
 1181.72        2976.25           2516         807.00      3499.98
 1181.75        2976.50           2520         797.00      3456.38
 1181.78        2976.75           2523         806.00      3495.62
 1181.81        2977.00           2527         776.00      3364.81
 1181.84        2977.25           2530         764.00      3312.49
 1181.87        2977.50           2534         753.00      3264.53
 1181.90        2977.75           2537         708.00      3068.32
 1181.94        2978.00           2541         726.00      3146.81
 1181.97        2978.25           2544         711.00      3081.40
 1182.00        2978.50           2548         712.00      3085.76
 1182.03        2978.75           2552         708.00      3068.32
 1182.06        2979.00           2555         708.00      3068.32
 1182.09        2979.25           2559         728.00      3155.53
 1182.12        2979.50           2562         664.00      2876.48
 1182.15        2979.75           2566         694.00      3007.28
 1182.18        2980.00           2569         673.00      2915.72
 1182.21        2980.25           2573         687.00      2976.76
 1182.24        2980.50           2577         680.00      2946.24
 1182.27        2980.75           2580         684.00      2963.68
 1182.30        2981.00           2584         667.00      2889.56
 1182.33        2981.25           2587         649.00      2811.08
 1182.36        2981.50           2591         669.00      2898.28
 1182.39        2981.75           2594         639.00      2767.48
 1182.42        2982.00           2598         682.00      2954.96
 1182.46        2982.25           2601         626.00      2710.80
 1182.49        2982.50           2605         659.00      2854.68
 1182.52        2982.75           2609         644.00      2789.28
 1182.55        2983.00           2612         624.00      2702.08
 1182.58        2983.25           2616         629.00      2723.88
 1182.61        2983.50           2619         634.00      2745.68
 1182.64        2983.75           2623         622.00      2693.36
 1182.67        2984.00           2626         678.00      2937.52
HS scan finished at 19:42:54
end
