************************************************************
  HS Scan of (1) Internal mercury lamp
************************************************************
Integration time is 0.2294 seconds per sample
dh050418Reading 51.44 .94 2.9pr1000
************************************************************
Dead Time -------------------------  3.4E-08 
Number of Cycles Used -------------  4 
Starting Wavelength (Angstroms) ---  2950 
Final Wavelength (Angstoms) -------  2984 
Wavelength Increment (Angstroms) --  .25 
Filter Wheel #1 Position ---------- (1) Ground quartz diffuser (ND=2.32)
Filter Wheel #2 Position ---------- (1) Neutral Density 0.494



************************************************************
HS scan start time = 01:55:59
Dark Count =  .5 


Time (GMT)  Wavelength (Ang)  Step Number  Raw Counts  Counts/Second

  116.89        2950.00           2144         134.00       581.96
  117.08        2950.25           2147         121.00       525.29
  117.11        2950.50           2151         130.00       564.53
  117.14        2950.75           2155         148.00       643.00
  117.17        2951.00           2158         127.00       551.45
  117.20        2951.25           2162         128.00       555.81
  117.23        2951.50           2165         129.00       560.17
  117.26        2951.75           2169         121.00       525.29
  117.29        2952.00           2172         139.00       603.76
  117.32        2952.25           2176         156.00       677.87
  117.35        2952.50           2179         135.00       586.32
  117.38        2952.75           2183         172.00       747.62
  117.41        2953.00           2186         144.00       625.56
  117.45        2953.25           2190         124.00       538.37
  117.48        2953.50           2193         127.00       551.45
  117.51        2953.75           2197         127.00       551.45
  117.54        2954.00           2200         131.00       568.89
  117.57        2954.25           2204         140.00       608.12
  117.60        2954.50           2208         154.00       669.15
  117.63        2954.75           2211         138.00       599.40
  117.66        2955.00           2215         132.00       573.25
  117.69        2955.25           2218         135.00       586.32
  117.72        2955.50           2222         156.00       677.87
  117.75        2955.75           2225         147.00       638.64
  117.78        2956.00           2229         135.00       586.32
  117.81        2956.25           2232         149.00       647.36
  117.84        2956.50           2236         159.00       690.95
  117.87        2956.75           2239         160.00       695.31
  117.90        2957.00           2243         150.00       651.71
  117.93        2957.25           2246         143.00       621.20
  117.97        2957.50           2250         148.00       643.00
  118.00        2957.75           2254         148.00       643.00
  118.03        2958.00           2257         148.00       643.00
  118.06        2958.25           2261         145.00       629.92
  118.09        2958.50           2264         163.00       708.39
  118.12        2958.75           2268         158.00       686.59
  118.15        2959.00           2271         158.00       686.59
  118.18        2959.25           2275         167.00       725.82
  118.21        2959.50           2278         165.00       717.11
  118.24        2959.75           2282         170.00       738.90
  118.27        2960.00           2285         168.00       730.18
  118.30        2960.25           2289         168.00       730.18
  118.33        2960.50           2293         173.00       751.98
  118.36        2960.75           2296         181.00       786.86
  118.39        2961.00           2300         215.00       935.08
  118.42        2961.25           2303         391.00      1702.37
  118.45        2961.50           2307        1570.00      6843.35
  118.49        2961.75           2310        3292.00     14355.30
  118.52        2962.00           2314        5905.00     25761.44
  118.55        2962.25           2317        7986.00     34851.65
  118.58        2962.50           2321       10888.00     47537.54
  118.61        2962.75           2324       13227.00     57770.30
  118.64        2963.00           2328       16330.00     71356.43
  118.67        2963.25           2331       19000.00     83056.80
  118.70        2963.50           2335       21913.00     95832.68
  118.73        2963.75           2339       25014.00    109445.30
  118.76        2964.00           2342       27775.00    121576.10
  118.79        2964.25           2346       31198.00    136629.30
  118.82        2964.50           2349       33507.00    146792.30
  118.85        2964.75           2353       36690.00    160813.70
  118.88        2965.00           2356       38911.00    170605.30
  118.92        2965.25           2360       42002.00    184243.40
  118.95        2965.50           2363       44380.00    194744.20
  118.98        2965.75           2367       47511.00    208581.70
  119.01        2966.00           2370       49797.00    218692.90
  119.04        2966.25           2374       51967.00    228297.50
  119.07        2966.50           2378       53517.00    235161.80
  119.10        2966.75           2381       54018.00    237381.20
  119.13        2967.00           2385       54359.00    238892.00
  119.16        2967.25           2388       54300.00    238630.50
  119.19        2967.50           2392       54253.00    238422.30
  119.23        2967.75           2395       53577.00    235427.50
  119.26        2968.00           2399       52118.00    228966.10
  119.29        2968.25           2402       50118.00    220113.30
  119.32        2968.50           2406       47344.00    207843.30
  119.35        2968.75           2409       45326.00    198923.70
  119.38        2969.00           2413       42401.00    186004.80
  119.41        2969.25           2417       39320.00    172409.20
  119.44        2969.50           2420       36886.00    161677.50
  119.47        2969.75           2424       33949.00    148738.50
  119.50        2970.00           2427       31185.00    136572.10
  119.53        2970.25           2431       27850.00    121905.70
  119.56        2970.50           2434       25470.00    111448.10
  119.59        2970.75           2438       22467.00     98263.68
  119.62        2971.00           2441       20173.00     88200.02
  119.65        2971.25           2445       17358.00     75860.19
  119.68        2971.50           2449       14372.00     62782.08
  119.72        2971.75           2452       12033.00     52545.85
  119.75        2972.00           2456        8820.00     38496.30
  119.78        2972.25           2459        6455.00     28163.40
  119.81        2972.50           2463        3712.00     16188.07
  119.84        2972.75           2466        2064.00      8997.96
  119.87        2973.00           2470         657.00      2862.09
  119.90        2973.25           2473         297.00      1292.56
  119.93        2973.50           2477         210.00       913.28
  119.96        2973.75           2481         214.00       930.72
  119.99        2974.00           2484         198.00       860.97
  120.02        2974.25           2488         205.00       891.48
  120.05        2974.50           2491         189.00       821.73
  120.08        2974.75           2495         173.00       751.98
  120.11        2975.00           2498         178.00       773.78
  120.14        2975.25           2502         171.00       743.26
  120.17        2975.50           2505         172.00       747.62
  120.20        2975.75           2509         162.00       704.03
  120.24        2976.00           2512         169.00       734.54
  120.27        2976.25           2516         166.00       721.46
  120.30        2976.50           2520         160.00       695.31
  120.33        2976.75           2523         156.00       677.87
  120.36        2977.00           2527         158.00       686.59
  120.39        2977.25           2530         151.00       656.07
  120.42        2977.50           2534         139.00       603.76
  120.45        2977.75           2537         150.00       651.71
  120.48        2978.00           2541         158.00       686.59
  120.51        2978.25           2544         153.00       664.79
  120.54        2978.50           2548         141.00       612.48
  120.57        2978.75           2552         140.00       608.12
  120.60        2979.00           2555         134.00       581.96
  120.63        2979.25           2559         140.00       608.12
  120.66        2979.50           2562         151.00       656.07
  120.69        2979.75           2566         148.00       643.00
  120.72        2980.00           2569         146.00       634.28
  120.76        2980.25           2573         122.00       529.65
  120.79        2980.50           2577         142.00       616.84
  120.82        2980.75           2580         132.00       573.25
  120.85        2981.00           2584         129.00       560.17
  120.88        2981.25           2587         140.00       608.12
  120.91        2981.50           2591         122.00       529.65
  120.94        2981.75           2594         137.00       595.04
  120.97        2982.00           2598         148.00       643.00
  121.00        2982.25           2601         130.00       564.53
  121.03        2982.50           2605         142.00       616.84
  121.06        2982.75           2609         183.00       795.58
  121.09        2983.00           2612         120.00       520.93
  121.12        2983.25           2616         137.00       595.04
  121.15        2983.50           2619         111.00       481.70
  121.18        2983.75           2623         117.00       507.86
  121.21        2984.00           2626         138.00       599.40
HS scan finished at 02:01:26
end
************************************************************
  HS Scan of (1) Internal mercury lamp
************************************************************
Integration time is 0.2294 seconds per sample
dh050418Reading 51.44 .94 3.03pr1000
************************************************************
Dead Time -------------------------  3.4E-08 
Number of Cycles Used -------------  4 
Starting Wavelength (Angstroms) ---  2950 
Final Wavelength (Angstoms) -------  2984 
Wavelength Increment (Angstroms) --  .25 
Filter Wheel #1 Position ---------- (1) Ground quartz diffuser (ND=2.32)
Filter Wheel #2 Position ---------- (1) Neutral Density 0.494



************************************************************
HS scan start time = 19:37:27
Dark Count =  .9 


Time (GMT)  Wavelength (Ang)  Step Number  Raw Counts  Counts/Second

 1178.36        2950.00           2144         154.00       667.41
 1178.55        2950.25           2147         140.00       606.38
 1178.58        2950.50           2151         149.00       645.61
 1178.61        2950.75           2155         153.00       663.05
 1178.64        2951.00           2158         150.00       649.97
 1178.67        2951.25           2162         171.00       741.52
 1178.70        2951.50           2165         152.00       658.69
 1178.73        2951.75           2169         147.00       636.89
 1178.76        2952.00           2172         139.00       602.02
 1178.80        2952.25           2176         159.00       689.21
 1178.83        2952.50           2179         149.00       645.61
 1178.86        2952.75           2183         150.00       649.97
 1178.89        2953.00           2186         150.00       649.97
 1178.92        2953.25           2190         154.00       667.41
 1178.95        2953.50           2193         160.00       693.56
 1178.98        2953.75           2197         156.00       676.13
 1179.01        2954.00           2200         146.00       632.53
 1179.04        2954.25           2204         138.00       597.66
 1179.07        2954.50           2208         158.00       684.85
 1179.10        2954.75           2211         176.00       763.32
 1179.13        2955.00           2215         160.00       693.56
 1179.16        2955.25           2218         145.00       628.17
 1179.19        2955.50           2222         164.00       711.00
 1179.22        2955.75           2225         153.00       663.05
 1179.25        2956.00           2229         175.00       758.96
 1179.28        2956.25           2232         160.00       693.56
 1179.31        2956.50           2236         169.00       732.80
 1179.35        2956.75           2239         160.00       693.56
 1179.38        2957.00           2243         160.00       693.56
 1179.41        2957.25           2246         165.00       715.36
 1179.44        2957.50           2250         173.00       750.24
 1179.47        2957.75           2254         180.00       780.75
 1179.50        2958.00           2257         169.00       732.80
 1179.53        2958.25           2261         165.00       715.36
 1179.56        2958.50           2264         182.00       789.47
 1179.59        2958.75           2268         185.00       802.55
 1179.62        2959.00           2271         172.00       745.88
 1179.65        2959.25           2275         182.00       789.47
 1179.68        2959.50           2278         211.00       915.90
 1179.71        2959.75           2282         189.00       819.99
 1179.74        2960.00           2285         187.00       811.27
 1179.77        2960.25           2289         221.00       959.49
 1179.80        2960.50           2293         229.00       994.37
 1179.84        2960.75           2296         215.00       933.33
 1179.87        2961.00           2300         286.00      1242.86
 1179.90        2961.25           2303         563.00      2450.51
 1179.93        2961.50           2307        1959.00      8538.22
 1179.96        2961.75           2310        3791.00     16531.09
 1179.99        2962.00           2314        6894.00     30079.13
 1180.02        2962.25           2317        9546.00     41667.97
 1180.05        2962.50           2321       13247.00     57856.07
 1180.08        2962.75           2324       15940.00     69646.43
 1180.11        2963.00           2328       19522.00     85343.61
 1180.14        2963.25           2331       22142.00     96835.74
 1180.17        2963.50           2335       25307.00    110730.40
 1180.20        2963.75           2339       28766.00    125930.80
 1180.23        2964.00           2342       31755.00    139078.50
 1180.26        2964.25           2346       35831.00    157026.60
 1180.29        2964.50           2349       38468.00    168650.00
 1180.32        2964.75           2353       41653.00    182701.20
 1180.36        2965.00           2356       44159.00    193766.30
 1180.39        2965.25           2360       46997.00    206307.40
 1180.42        2965.50           2363       49179.00    215957.00
 1180.45        2965.75           2367       52482.00    230576.10
 1180.48        2966.00           2370       54848.00    241057.00
 1180.51        2966.25           2374       57617.00    253332.70
 1180.54        2966.50           2378       59132.00    260053.40
 1180.57        2966.75           2381       59227.00    260475.00
 1180.60        2967.00           2385       58961.00    259294.70
 1180.63        2967.25           2388       58661.00    257963.70
 1180.66        2967.50           2392       58118.00    255554.80
 1180.69        2967.75           2395       57412.00    252423.50
 1180.72        2968.00           2399       55388.00    243450.10
 1180.75        2968.25           2402       53590.00    235483.40
 1180.78        2968.50           2406       49963.00    219425.60
 1180.81        2968.75           2409       47756.00    209663.20
 1180.84        2969.00           2413       44290.00    194344.90
 1180.87        2969.25           2417       41126.00    180375.30
 1180.91        2969.50           2420       38215.00    167534.40
 1180.94        2969.75           2424       35022.00    153462.60
 1180.97        2970.00           2427       32366.00    141767.60
 1181.00        2970.25           2431       28792.00    126045.10
 1181.03        2970.50           2434       26583.00    116335.90
 1181.06        2970.75           2438       23470.00    102664.20
 1181.09        2971.00           2441       21001.00     91829.86
 1181.12        2971.25           2445       17439.00     76213.36
 1181.15        2971.50           2449       13841.00     60455.88
 1181.18        2971.75           2452       11504.00     50230.00
 1181.21        2972.00           2456        8448.00     36868.77
 1181.24        2972.25           2459        6228.00     27170.25
 1181.27        2972.50           2463        3307.00     14419.01
 1181.30        2972.75           2466        1648.00      7181.79
 1181.33        2973.00           2470         493.00      2145.32
 1181.36        2973.25           2473         290.00      1260.30
 1181.39        2973.50           2477         216.00       937.69
 1181.43        2973.75           2481         200.00       867.94
 1181.46        2974.00           2484         198.00       859.22
 1181.49        2974.25           2488         180.00       780.75
 1181.52        2974.50           2491         178.00       772.03
 1181.55        2974.75           2495         173.00       750.24
 1181.58        2975.00           2498         183.00       793.83
 1181.61        2975.25           2502         157.00       680.49
 1181.64        2975.50           2505         164.00       711.00
 1181.67        2975.75           2509         159.00       689.21
 1181.70        2976.00           2512         167.00       724.08
 1181.73        2976.25           2516         162.00       702.28
 1181.76        2976.50           2520         170.00       737.16
 1181.79        2976.75           2523         161.00       697.92
 1181.82        2977.00           2527         155.00       671.77
 1181.85        2977.25           2530         139.00       602.02
 1181.88        2977.50           2534         155.00       671.77
 1181.91        2977.75           2537         147.00       636.89
 1181.95        2978.00           2541         136.00       588.94
 1181.98        2978.25           2544         157.00       680.49
 1182.01        2978.50           2548         141.00       610.74
 1182.04        2978.75           2552         148.00       641.25
 1182.07        2979.00           2555         157.00       680.49
 1182.10        2979.25           2559         133.00       575.86
 1182.13        2979.50           2562         154.00       667.41
 1182.16        2979.75           2566         128.00       554.06
 1182.19        2980.00           2569         161.00       697.92
 1182.22        2980.25           2573         134.00       580.22
 1182.25        2980.50           2577         136.00       588.94
 1182.28        2980.75           2580         136.00       588.94
 1182.31        2981.00           2584         129.00       558.42
 1182.34        2981.25           2587         125.00       540.99
 1182.37        2981.50           2591         137.00       593.30
 1182.40        2981.75           2594         122.00       527.91
 1182.44        2982.00           2598         148.00       641.25
 1182.47        2982.25           2601         112.00       484.31
 1182.50        2982.50           2605         138.00       597.66
 1182.53        2982.75           2609         117.00       506.11
 1182.56        2983.00           2612         124.00       536.63
 1182.59        2983.25           2616         130.00       562.78
 1182.62        2983.50           2619         132.00       571.50
 1182.65        2983.75           2623         135.00       584.58
 1182.68        2984.00           2626         137.00       593.30
HS scan finished at 19:42:54
end
