************************************************************
  HS Scan of (1) Internal mercury lamp
************************************************************
Integration time is 0.2294 seconds per sample
dh080418Reading 51.44 .94 3.15pr1000
************************************************************
Dead Time -------------------------  3.4E-08 
Number of Cycles Used -------------  4 
Starting Wavelength (Angstroms) ---  2950 
Final Wavelength (Angstoms) -------  2984 
Wavelength Increment (Angstroms) --  .25 
Filter Wheel #1 Position ---------- (1) Ground quartz diffuser (ND=2.32)
Filter Wheel #2 Position ---------- (1) Neutral Density 0.494



************************************************************
HS scan start time = 01:34:57
Dark Count =  1.2 


Time (GMT)  Wavelength (Ang)  Step Number  Raw Counts  Counts/Second

   95.85        2950.00           2144          68.00       291.20
   96.04        2950.25           2147          66.00       282.48
   96.07        2950.50           2151          67.00       286.84
   96.10        2950.75           2155          64.00       273.76
   96.13        2951.00           2158          67.00       286.84
   96.17        2951.25           2162          69.00       295.56
   96.20        2951.50           2165          61.00       260.68
   96.23        2951.75           2169          70.00       299.92
   96.26        2952.00           2172          75.00       321.71
   96.29        2952.25           2176          74.00       317.35
   96.32        2952.50           2179          66.00       282.48
   96.35        2952.75           2183          71.00       304.28
   96.38        2953.00           2186          70.00       299.92
   96.41        2953.25           2190          69.00       295.56
   96.44        2953.50           2193          69.00       295.56
   96.47        2953.75           2197          70.00       299.92
   96.50        2954.00           2200          65.00       278.12
   96.53        2954.25           2204          75.00       321.71
   96.56        2954.50           2208          64.00       273.76
   96.59        2954.75           2211          71.00       304.28
   96.62        2955.00           2215          77.00       330.43
   96.66        2955.25           2218          73.00       312.99
   96.69        2955.50           2222          72.00       308.63
   96.72        2955.75           2225          79.00       339.15
   96.75        2956.00           2229          72.00       308.63
   96.78        2956.25           2232          73.00       312.99
   96.81        2956.50           2236          67.00       286.84
   96.84        2956.75           2239          74.00       317.35
   96.87        2957.00           2243          80.00       343.51
   96.90        2957.25           2246          76.00       326.07
   96.93        2957.50           2250          80.00       343.51
   96.96        2957.75           2254          82.00       352.23
   96.99        2958.00           2257          80.00       343.51
   97.02        2958.25           2261          83.00       356.59
   97.05        2958.50           2264          76.00       326.07
   97.08        2958.75           2268          88.00       378.38
   97.11        2959.00           2271          92.00       395.82
   97.14        2959.25           2275          84.00       360.95
   97.18        2959.50           2278          89.00       382.74
   97.21        2959.75           2282          85.00       365.31
   97.24        2960.00           2285          84.00       360.95
   97.27        2960.25           2289          87.00       374.02
   97.30        2960.50           2293          92.00       395.82
   97.33        2960.75           2296          95.00       408.90
   97.36        2961.00           2300         119.00       513.52
   97.39        2961.25           2303         220.00       953.82
   97.42        2961.50           2307         922.00      4014.50
   97.45        2961.75           2310        1822.00      7939.37
   97.48        2962.00           2314        3152.00     13741.38
   97.51        2962.25           2317        4096.00     17860.89
   97.54        2962.50           2321        5446.00     23754.14
   97.57        2962.75           2324        6580.00     28706.29
   97.60        2963.00           2328        8086.00     35285.55
   97.63        2963.25           2331        8782.00     38327.16
   97.66        2963.50           2335       10271.00     44836.39
   97.69        2963.75           2339       11695.00     51064.17
   97.73        2964.00           2342       12814.00     55959.90
   97.76        2964.25           2346       14440.00     63076.72
   97.79        2964.50           2349       15485.00     67652.40
   97.82        2964.75           2353       16966.00     74139.58
   97.85        2965.00           2356       17984.00     78600.36
   97.88        2965.25           2360       19310.00     84412.80
   97.91        2965.50           2363       20341.00     88933.72
   97.94        2965.75           2367       21535.00     94171.14
   97.97        2966.00           2370       22557.00     98655.56
   98.00        2966.25           2374       23502.00    102803.30
   98.03        2966.50           2378       24362.00    106579.10
   98.06        2966.75           2381       24557.00    107435.30
   98.09        2967.00           2385       24238.00    106034.60
   98.12        2967.25           2388       24327.00    106425.40
   98.15        2967.50           2392       24307.00    106337.60
   98.18        2967.75           2395       24085.00    105362.80
   98.22        2968.00           2399       23285.00    101850.80
   98.26        2968.25           2402       22454.00     98203.56
   98.29        2968.50           2406       21106.00     92289.14
   98.32        2968.75           2409       20108.00     87911.90
   98.35        2969.00           2413       18536.00     81019.75
   98.38        2969.25           2417       17218.00     75243.70
   98.41        2969.50           2420       16285.00     71156.25
   98.44        2969.75           2424       15055.00     65769.40
   98.47        2970.00           2427       13872.00     60590.26
   98.50        2970.25           2431       12338.00     53877.16
   98.53        2970.50           2434       11189.00     48850.90
   98.56        2970.75           2438        9655.00     42143.17
   98.59        2971.00           2441        8714.00     38029.97
   98.63        2971.25           2445        7360.00     32113.51
   98.66        2971.50           2449        6038.00     26339.18
   98.69        2971.75           2452        4949.00     21584.27
   98.72        2972.00           2456        3597.00     15683.17
   98.75        2972.25           2459        2632.00     11472.65
   98.78        2972.50           2463        1433.00      6242.83
   98.81        2972.75           2466         739.00      3216.57
   98.84        2973.00           2470         256.00      1110.77
   98.87        2973.25           2473         148.00       639.94
   98.90        2973.50           2477         161.00       696.62
   98.93        2973.75           2481         115.00       496.09
   98.96        2974.00           2484          93.00       400.18
   98.99        2974.25           2488          91.00       391.46
   99.02        2974.50           2491         103.00       443.77
   99.05        2974.75           2495          92.00       395.82
   99.08        2975.00           2498          87.00       374.02
   99.11        2975.25           2502          90.00       387.10
   99.15        2975.50           2505         108.00       465.57
   99.18        2975.75           2509          88.00       378.38
   99.21        2976.00           2512          83.00       356.59
   99.24        2976.25           2516          82.00       352.23
   99.27        2976.50           2520          88.00       378.38
   99.30        2976.75           2523          77.00       330.43
   99.33        2977.00           2527          77.00       330.43
   99.36        2977.25           2530          86.00       369.66
   99.39        2977.50           2534          77.00       330.43
   99.42        2977.75           2537          82.00       352.23
   99.45        2978.00           2541          80.00       343.51
   99.48        2978.25           2544          79.00       339.15
   99.51        2978.50           2548          74.00       317.35
   99.54        2978.75           2552          69.00       295.56
   99.57        2979.00           2555          71.00       304.28
   99.60        2979.25           2559          75.00       321.71
   99.63        2979.50           2562          80.00       343.51
   99.67        2979.75           2566          76.00       326.07
   99.70        2980.00           2569          76.00       326.07
   99.73        2980.25           2573          72.00       308.63
   99.76        2980.50           2577          74.00       317.35
   99.79        2980.75           2580          65.00       278.12
   99.82        2981.00           2584          76.00       326.07
   99.85        2981.25           2587          69.00       295.56
   99.88        2981.50           2591          70.00       299.92
   99.91        2981.75           2594          59.00       251.96
   99.94        2982.00           2598          70.00       299.92
   99.97        2982.25           2601          71.00       304.28
  100.00        2982.50           2605          71.00       304.28
  100.03        2982.75           2609          69.00       295.56
  100.06        2983.00           2612          69.00       295.56
  100.09        2983.25           2616          68.00       291.20
  100.12        2983.50           2619          70.00       299.92
  100.15        2983.75           2623          66.00       282.48
  100.18        2984.00           2626          74.00       317.35
HS scan finished at 01:40:24
end
************************************************************
  HS Scan of (1) Internal mercury lamp
************************************************************
Integration time is 0.2294 seconds per sample
dh080418Reading 51.44 .94 3.17pr1000
************************************************************
Dead Time -------------------------  3.4E-08 
Number of Cycles Used -------------  4 
Starting Wavelength (Angstroms) ---  2950 
Final Wavelength (Angstoms) -------  2984 
Wavelength Increment (Angstroms) --  .25 
Filter Wheel #1 Position ---------- (1) Ground quartz diffuser (ND=2.32)
Filter Wheel #2 Position ---------- (1) Neutral Density 0.494



************************************************************
HS scan start time = 19:37:23
Dark Count =  1.2 


Time (GMT)  Wavelength (Ang)  Step Number  Raw Counts  Counts/Second

 1178.29        2950.00           2144          58.00       247.60
 1178.48        2950.25           2147          60.00       256.32
 1178.51        2950.50           2151          59.00       251.96
 1178.54        2950.75           2155          60.00       256.32
 1178.57        2951.00           2158          59.00       251.96
 1178.60        2951.25           2162          58.00       247.60
 1178.64        2951.50           2165          64.00       273.76
 1178.67        2951.75           2169          65.00       278.12
 1178.70        2952.00           2172          54.00       230.17
 1178.73        2952.25           2176          60.00       256.32
 1178.76        2952.50           2179          61.00       260.68
 1178.79        2952.75           2183          68.00       291.20
 1178.82        2953.00           2186          62.00       265.04
 1178.85        2953.25           2190          70.00       299.92
 1178.88        2953.50           2193          68.00       291.20
 1178.91        2953.75           2197          66.00       282.48
 1178.94        2954.00           2200          62.00       265.04
 1178.97        2954.25           2204          58.00       247.60
 1179.00        2954.50           2208          59.00       251.96
 1179.03        2954.75           2211          65.00       278.12
 1179.06        2955.00           2215          62.00       265.04
 1179.09        2955.25           2218          69.00       295.56
 1179.12        2955.50           2222          69.00       295.56
 1179.16        2955.75           2225          68.00       291.20
 1179.19        2956.00           2229          76.00       326.07
 1179.22        2956.25           2232          71.00       304.28
 1179.25        2956.50           2236          78.00       334.79
 1179.28        2956.75           2239          63.00       269.40
 1179.31        2957.00           2243          65.00       278.12
 1179.34        2957.25           2246          80.00       343.51
 1179.37        2957.50           2250          78.00       334.79
 1179.40        2957.75           2254          79.00       339.15
 1179.43        2958.00           2257          76.00       326.07
 1179.46        2958.25           2261          78.00       334.79
 1179.49        2958.50           2264          76.00       326.07
 1179.52        2958.75           2268          77.00       330.43
 1179.55        2959.00           2271          76.00       326.07
 1179.58        2959.25           2275          80.00       343.51
 1179.61        2959.50           2278          76.00       326.07
 1179.64        2959.75           2282          84.00       360.95
 1179.68        2960.00           2285          85.00       365.31
 1179.71        2960.25           2289          89.00       382.74
 1179.74        2960.50           2293          93.00       400.18
 1179.77        2960.75           2296          85.00       365.31
 1179.80        2961.00           2300         131.00       565.83
 1179.83        2961.25           2303         230.00       997.42
 1179.86        2961.50           2307         813.00      3539.22
 1179.89        2961.75           2310        1559.00      6792.33
 1179.92        2962.00           2314        2621.00     11424.66
 1179.95        2962.25           2317        3408.00     14858.42
 1179.98        2962.50           2321        4717.00     20571.49
 1180.01        2962.75           2324        5747.00     25068.44
 1180.04        2963.00           2328        6815.00     29732.75
 1180.07        2963.25           2331        7528.00     32847.48
 1180.10        2963.50           2335        8798.00     38397.09
 1180.13        2963.75           2339       10016.00     43721.44
 1180.16        2964.00           2342       10996.00     48006.80
 1180.20        2964.25           2346       12193.00     53242.76
 1180.23        2964.50           2349       12932.00     56476.26
 1180.26        2964.75           2353       14090.00     61544.52
 1180.29        2965.00           2356       15453.00     67512.25
 1180.32        2965.25           2360       16762.00     73245.83
 1180.35        2965.50           2363       17652.00     77145.43
 1180.38        2965.75           2367       18778.00     82080.53
 1180.41        2966.00           2370       19696.00     86105.25
 1180.44        2966.25           2374       20774.00     90832.84
 1180.47        2966.50           2378       21010.00     91868.03
 1180.50        2966.75           2381       21069.00     92126.84
 1180.53        2967.00           2385       21018.00     91903.12
 1180.56        2967.25           2388       20938.00     91552.21
 1180.59        2967.50           2392       21030.00     91955.75
 1180.62        2967.75           2395       20831.00     91082.85
 1180.65        2968.00           2399       20034.00     87587.39
 1180.68        2968.25           2402       19619.00     85767.62
 1180.71        2968.50           2406       18435.00     80577.03
 1180.75        2968.75           2409       17431.00     76177.00
 1180.78        2969.00           2413       16084.00     70275.83
 1180.81        2969.25           2417       14971.00     65401.59
 1180.84        2969.50           2420       13935.00     60866.03
 1180.87        2969.75           2424       13026.00     56887.61
 1180.90        2970.00           2427       12163.00     53111.52
 1180.94        2970.25           2431       11055.00     48264.84
 1180.97        2970.50           2434       10160.00     44351.05
 1181.00        2970.75           2438        8816.00     38475.76
 1181.03        2971.00           2441        7740.00     33773.72
 1181.06        2971.25           2445        6587.00     28736.87
 1181.09        2971.50           2449        5352.00     23343.72
 1181.12        2971.75           2452        4518.00     19702.82
 1181.15        2972.00           2456        3186.00     13889.73
 1181.18        2972.25           2459        2454.00     10696.13
 1181.21        2972.50           2463        1379.00      6007.33
 1181.24        2972.75           2466         637.00      2771.84
 1181.27        2973.00           2470         175.00       757.65
 1181.30        2973.25           2473         129.00       557.12
 1181.33        2973.50           2477          93.00       400.18
 1181.36        2973.75           2481          92.00       395.82
 1181.39        2974.00           2484          94.00       404.54
 1181.43        2974.25           2488          87.00       374.02
 1181.46        2974.50           2491          76.00       326.07
 1181.49        2974.75           2495          85.00       365.31
 1181.52        2975.00           2498          76.00       326.07
 1181.55        2975.25           2502          83.00       356.59
 1181.58        2975.50           2505          76.00       326.07
 1181.61        2975.75           2509          78.00       334.79
 1181.64        2976.00           2512          80.00       343.51
 1181.67        2976.25           2516          85.00       365.31
 1181.70        2976.50           2520          76.00       326.07
 1181.73        2976.75           2523          76.00       326.07
 1181.76        2977.00           2527          79.00       339.15
 1181.79        2977.25           2530          72.00       308.63
 1181.82        2977.50           2534          79.00       339.15
 1181.85        2977.75           2537          70.00       299.92
 1181.88        2978.00           2541          72.00       308.63
 1181.91        2978.25           2544          77.00       330.43
 1181.95        2978.50           2548          66.00       282.48
 1181.98        2978.75           2552          62.00       265.04
 1182.01        2979.00           2555          69.00       295.56
 1182.04        2979.25           2559          73.00       312.99
 1182.07        2979.50           2562          68.00       291.20
 1182.10        2979.75           2566          68.00       291.20
 1182.13        2980.00           2569          62.00       265.04
 1182.16        2980.25           2573          63.00       269.40
 1182.19        2980.50           2577          73.00       312.99
 1182.22        2980.75           2580          67.00       286.84
 1182.25        2981.00           2584          62.00       265.04
 1182.28        2981.25           2587          65.00       278.12
 1182.31        2981.50           2591          61.00       260.68
 1182.34        2981.75           2594          57.00       243.25
 1182.37        2982.00           2598          65.00       278.12
 1182.40        2982.25           2601          63.00       269.40
 1182.43        2982.50           2605          63.00       269.40
 1182.47        2982.75           2609          66.00       282.48
 1182.50        2983.00           2612          61.00       260.68
 1182.53        2983.25           2616          58.00       247.60
 1182.56        2983.50           2619          67.00       286.84
 1182.59        2983.75           2623          61.00       260.68
 1182.62        2984.00           2626          58.00       247.60
HS scan finished at 19:42:50
end
