************************************************************
  HS Scan of (1) Internal mercury lamp
************************************************************
Integration time is 0.2294 seconds per sample
dh020419Reading 51.44 .94 2.7pr1000
************************************************************
Dead Time -------------------------  3.4E-08 
Number of Cycles Used -------------  4 
Starting Wavelength (Angstroms) ---  2950 
Final Wavelength (Angstoms) -------  2984 
Wavelength Increment (Angstroms) --  .25 
Filter Wheel #1 Position ---------- (1) Ground quartz diffuser (ND=2.32)
Filter Wheel #2 Position ---------- (1) Neutral Density 0.494



************************************************************
HS scan start time = 02:14:24
Dark Count =  .4 


Time (GMT)  Wavelength (Ang)  Step Number  Raw Counts  Counts/Second

  135.29        2950.00           2144        1745.00      7607.02
  135.49        2950.25           2147        1733.00      7554.69
  135.52        2950.50           2151        1744.00      7602.66
  135.55        2950.75           2155        1724.00      7515.43
  135.58        2951.00           2158        1691.00      7371.51
  135.61        2951.25           2162        1717.00      7484.90
  135.64        2951.50           2165        1762.00      7681.17
  135.67        2951.75           2169        1748.00      7620.11
  135.70        2952.00           2172        1777.00      7746.59
  135.73        2952.25           2176        1772.00      7724.78
  135.76        2952.50           2179        1743.00      7598.30
  135.79        2952.75           2183        1733.00      7554.69
  135.82        2953.00           2186        1757.00      7659.36
  135.85        2953.25           2190        1770.00      7716.06
  135.89        2953.50           2193        1785.00      7781.48
  135.92        2953.75           2197        1751.00      7633.19
  135.95        2954.00           2200        1763.00      7685.53
  135.98        2954.25           2204        1819.00      7929.78
  136.01        2954.50           2208        1823.00      7947.22
  136.04        2954.75           2211        1799.00      7842.54
  136.07        2955.00           2215        1817.00      7921.05
  136.10        2955.25           2218        1828.00      7969.03
  136.13        2955.50           2222        1801.00      7851.27
  136.16        2955.75           2225        1839.00      8017.01
  136.19        2956.00           2229        1899.00      8278.70
  136.22        2956.25           2232        1885.00      8217.64
  136.25        2956.50           2236        1852.00      8073.71
  136.28        2956.75           2239        1893.00      8252.53
  136.31        2957.00           2243        1932.00      8422.64
  136.34        2957.25           2246        1921.00      8374.66
  136.37        2957.50           2250        1973.00      8601.47
  136.41        2957.75           2254        1956.00      8527.32
  136.44        2958.00           2257        1955.00      8522.96
  136.47        2958.25           2261        1969.00      8584.02
  136.50        2958.50           2264        1984.00      8649.45
  136.53        2958.75           2268        2009.00      8758.49
  136.56        2959.00           2271        2014.00      8780.30
  136.59        2959.25           2275        2056.00      8963.50
  136.62        2959.50           2278        2069.00      9020.20
  136.65        2959.75           2282        2114.00      9216.49
  136.68        2960.00           2285        2081.00      9072.55
  136.71        2960.25           2289        2156.00      9399.69
  136.74        2960.50           2293        2218.00      9670.14
  136.77        2960.75           2296        2230.00      9722.48
  136.80        2961.00           2300        2362.00     10298.29
  136.83        2961.25           2303        3038.00     13247.47
  136.86        2961.50           2307        8416.00     36731.11
  136.89        2961.75           2310       18732.00     81882.40
  136.93        2962.00           2314       37702.00    165274.90
  136.96        2962.25           2317       54397.00    239060.80
  136.99        2962.50           2321       78616.00    346765.30
  137.02        2962.75           2324       99596.00    440711.40
  137.05        2963.00           2328      126453.00    561863.60
  137.08        2963.25           2331      146214.00    651653.40
  137.11        2963.50           2335      169485.00    758108.00
  137.14        2963.75           2339      193156.00    867199.40
  137.17        2964.00           2342      213129.00    959891.40
  137.20        2964.25           2346      241359.00   1091925.00
  137.23        2964.50           2349      260056.00   1180042.00
  137.26        2964.75           2353      283174.00   1289745.00
  137.29        2965.00           2356      301338.00   1376530.00
  137.32        2965.25           2360      322967.00   1480561.00
  137.35        2965.50           2363      338113.00   1553862.00
  137.38        2965.75           2367      362541.00   1672881.00
  137.41        2966.00           2370      381151.00   1764224.00
  137.45        2966.25           2374      402276.00   1868626.00
  137.48        2966.50           2378      416266.00   1938190.00
  137.51        2966.75           2381      421219.00   1962901.00
  137.54        2967.00           2385      423146.00   1972526.00
  137.57        2967.25           2388      422908.00   1971337.00
  137.60        2967.50           2392      422835.00   1970972.00
  137.63        2967.75           2395      422326.00   1968429.00
  137.66        2968.00           2399      417298.00   1943336.00
  137.69        2968.25           2402      406073.00   1887473.00
  137.72        2968.50           2406      384273.00   1779605.00
  137.75        2968.75           2409      370024.00   1709539.00
  137.78        2969.00           2413      348884.00   1606218.00
  137.81        2969.25           2417      326320.00   1496755.00
  137.84        2969.50           2420      307951.00   1408257.00
  137.87        2969.75           2424      282042.00   1284353.00
  137.90        2970.00           2427      263111.00   1194491.00
  137.93        2970.25           2431      237799.00   1075208.00
  137.97        2970.50           2434      219053.00    987498.40
  138.00        2970.75           2438      194693.00    874311.40
  138.03        2971.00           2441      176750.00    791502.70
  138.06        2971.25           2445      149636.00    667258.80
  138.09        2971.50           2449      120943.00    536925.60
  138.12        2971.75           2452      100691.00    445631.30
  138.15        2972.00           2456       75336.00    332132.30
  138.18        2972.25           2459       58132.00    255619.20
  138.21        2972.50           2463       34695.00    152024.40
  138.24        2972.75           2466       19207.00     83964.72
  138.27        2973.00           2470        6451.00     28146.37
  138.30        2973.25           2473        3306.00     14416.83
  138.33        2973.50           2477        2372.00     10341.91
  138.36        2973.75           2481        2261.00      9857.71
  138.39        2974.00           2484        2206.00      9617.79
  138.42        2974.25           2488        2137.00      9316.81
  138.45        2974.50           2491        2137.00      9316.81
  138.49        2974.75           2495        2088.00      9103.08
  138.52        2975.00           2498        2081.00      9072.55
  138.55        2975.25           2502        2068.00      9015.84
  138.58        2975.50           2505        2015.00      8784.66
  138.61        2975.75           2509        1964.00      8562.21
  138.64        2976.00           2512        1978.00      8623.28
  138.67        2976.25           2516        1949.00      8496.79
  138.70        2976.50           2520        1944.00      8474.98
  138.73        2976.75           2523        1919.00      8365.94
  138.76        2977.00           2527        1879.00      8191.47
  138.79        2977.25           2530        1849.00      8060.62
  138.82        2977.50           2534        1867.00      8139.13
  138.85        2977.75           2537        1823.00      7947.22
  138.88        2978.00           2541        1797.00      7833.82
  138.91        2978.25           2544        1779.00      7755.31
  138.94        2978.50           2548        1829.00      7973.39
  138.97        2978.75           2552        1771.00      7720.42
  139.01        2979.00           2555        1741.00      7589.58
  139.04        2979.25           2559        1714.00      7471.82
  139.07        2979.50           2562        1745.00      7607.02
  139.10        2979.75           2566        1725.00      7519.80
  139.13        2980.00           2569        1693.00      7380.23
  139.16        2980.25           2573        1713.00      7467.46
  139.19        2980.50           2577        1680.00      7323.53
  139.22        2980.75           2580        1668.00      7271.20
  139.25        2981.00           2584        1690.00      7367.15
  139.28        2981.25           2587        1676.00      7306.09
  139.31        2981.50           2591        1710.00      7454.37
  139.34        2981.75           2594        1666.00      7262.47
  139.37        2982.00           2598        1637.00      7135.99
  139.40        2982.25           2601        1659.00      7231.94
  139.43        2982.50           2605        1639.00      7144.72
  139.46        2982.75           2609        1709.00      7450.01
  139.49        2983.00           2612        1594.00      6948.46
  139.52        2983.25           2616        1634.00      7122.91
  139.56        2983.50           2619        1661.00      7240.67
  139.59        2983.75           2623        1632.00      7114.19
  139.62        2984.00           2626        1606.00      7000.79
HS scan finished at 02:19:50
end
************************************************************
  HS Scan of (1) Internal mercury lamp
************************************************************
Integration time is 0.2294 seconds per sample
dh020419Reading 51.44 .94 2.84pr1000
************************************************************
Dead Time -------------------------  3.4E-08 
Number of Cycles Used -------------  4 
Starting Wavelength (Angstroms) ---  2950 
Final Wavelength (Angstoms) -------  2984 
Wavelength Increment (Angstroms) --  .25 
Filter Wheel #1 Position ---------- (1) Ground quartz diffuser (ND=2.32)
Filter Wheel #2 Position ---------- (1) Neutral Density 0.494



************************************************************
HS scan start time = 19:37:29
Dark Count =  .8 


Time (GMT)  Wavelength (Ang)  Step Number  Raw Counts  Counts/Second

 1178.38        2950.00           2144        1403.00      6113.74
 1178.58        2950.25           2147        1403.00      6113.74
 1178.61        2950.50           2151        1389.00      6052.68
 1178.64        2950.75           2155        1399.00      6096.29
 1178.67        2951.00           2158        1394.00      6074.49
 1178.70        2951.25           2162        1374.00      5987.27
 1178.73        2951.50           2165        1418.00      6179.15
 1178.76        2951.75           2169        1407.00      6131.18
 1178.79        2952.00           2172        1398.00      6091.93
 1178.82        2952.25           2176        1398.00      6091.93
 1178.85        2952.50           2179        1397.00      6087.57
 1178.88        2952.75           2183        1391.00      6061.41
 1178.91        2953.00           2186        1455.00      6340.51
 1178.94        2953.25           2190        1419.00      6183.51
 1178.97        2953.50           2193        1404.00      6118.10
 1179.00        2953.75           2197        1415.00      6166.07
 1179.04        2954.00           2200        1460.00      6362.32
 1179.07        2954.25           2204        1454.00      6336.15
 1179.10        2954.50           2208        1445.00      6296.90
 1179.13        2954.75           2211        1459.00      6357.96
 1179.16        2955.00           2215        1452.00      6327.43
 1179.19        2955.25           2218        1485.00      6471.35
 1179.22        2955.50           2222        1456.00      6344.87
 1179.25        2955.75           2225        1527.00      6654.51
 1179.28        2956.00           2229        1512.00      6589.10
 1179.31        2956.25           2232        1503.00      6549.85
 1179.34        2956.50           2236        1500.00      6536.76
 1179.37        2956.75           2239        1512.00      6589.10
 1179.40        2957.00           2243        1543.00      6724.29
 1179.43        2957.25           2246        1539.00      6706.85
 1179.46        2957.50           2250        1550.00      6754.82
 1179.49        2957.75           2254        1547.00      6741.74
 1179.52        2958.00           2257        1556.00      6780.99
 1179.56        2958.25           2261        1615.00      7038.30
 1179.59        2958.50           2264        1638.00      7138.61
 1179.62        2958.75           2268        1609.00      7012.13
 1179.65        2959.00           2271        1593.00      6942.35
 1179.68        2959.25           2275        1639.00      7142.97
 1179.71        2959.50           2278        1674.00      7295.62
 1179.74        2959.75           2282        1688.00      7356.68
 1179.77        2960.00           2285        1739.00      7579.11
 1179.80        2960.25           2289        1717.00      7483.16
 1179.83        2960.50           2293        1747.00      7614.00
 1179.86        2960.75           2296        1809.00      7884.42
 1179.89        2961.00           2300        1830.00      7976.01
 1179.92        2961.25           2303        2211.00      9637.86
 1179.95        2961.50           2307        5147.00     22450.44
 1179.98        2961.75           2310       12609.00     55064.64
 1180.01        2962.00           2314       27871.00    121996.70
 1180.04        2962.25           2317       40658.00    178310.50
 1180.08        2962.50           2321       60417.00    265756.70
 1180.11        2962.75           2324       76632.00    337910.60
 1180.14        2963.00           2328       98842.00    437322.80
 1180.17        2963.25           2331      113474.00    503187.70
 1180.20        2963.50           2335      135389.00    602396.50
 1180.23        2963.75           2339      156516.00    698682.50
 1180.26        2964.00           2342      172757.00    773136.90
 1180.29        2964.25           2346      195196.00    876637.80
 1180.33        2964.50           2349      210216.00    946333.60
 1180.36        2964.75           2353      229122.00   1034542.00
 1180.39        2965.00           2356      246055.00   1114004.00
 1180.42        2965.25           2360      266608.00   1211046.00
 1180.45        2965.50           2363      281954.00   1283932.00
 1180.48        2965.75           2367      301023.00   1375019.00
 1180.51        2966.00           2370      315990.00   1446919.00
 1180.54        2966.25           2374      332199.00   1525193.00
 1180.57        2966.50           2378      344972.00   1587178.00
 1180.60        2966.75           2381      350433.00   1613762.00
 1180.63        2967.00           2385      352323.00   1622973.00
 1180.66        2967.25           2388      352053.00   1621657.00
 1180.69        2967.50           2392      352396.00   1623330.00
 1180.72        2967.75           2395      351639.00   1619639.00
 1180.75        2968.00           2399      347785.00   1600865.00
 1180.79        2968.25           2402      340002.00   1563028.00
 1180.82        2968.50           2406      324284.00   1486917.00
 1180.85        2968.75           2409      311729.00   1426412.00
 1180.88        2969.00           2413      293229.00   1337720.00
 1180.91        2969.25           2417      271929.00   1236277.00
 1180.94        2969.50           2420      255995.00   1160855.00
 1180.97        2969.75           2424      237447.00   1073554.00
 1181.00        2970.00           2427      223228.00   1006985.00
 1181.03        2970.25           2431      201322.00    905023.10
 1181.06        2970.50           2434      185667.00    832594.60
 1181.09        2970.75           2438      166130.00    742710.30
 1181.12        2971.00           2441      150970.00    673344.90
 1181.15        2971.25           2445      127842.00    568155.00
 1181.18        2971.50           2449      105714.00    468219.60
 1181.21        2971.75           2452       88733.00    391990.90
 1181.24        2972.00           2456       68365.00    301079.50
 1181.27        2972.25           2459       53716.00    236042.00
 1181.31        2972.50           2463       33758.00    147896.10
 1181.34        2972.75           2466       19552.00     85475.59
 1181.37        2973.00           2470        6115.00     26677.20
 1181.40        2973.25           2473        2889.00     12595.63
 1181.43        2973.50           2477        1940.00      8455.79
 1181.46        2973.75           2481        1851.00      8067.60
 1181.49        2974.00           2484        1822.00      7941.11
 1181.52        2974.25           2488        1734.00      7557.30
 1181.55        2974.50           2491        1688.00      7356.68
 1181.58        2974.75           2495        1665.00      7256.37
 1181.61        2975.00           2498        1667.00      7265.09
 1181.64        2975.25           2502        1653.00      7204.03
 1181.67        2975.50           2505        1609.00      7012.13
 1181.70        2975.75           2509        1580.00      6885.66
 1181.73        2976.00           2512        1604.00      6990.33
 1181.76        2976.25           2516        1589.00      6924.91
 1181.79        2976.50           2520        1539.00      6706.85
 1181.82        2976.75           2523        1534.00      6685.04
 1181.86        2977.00           2527        1551.00      6759.18
 1181.89        2977.25           2530        1515.00      6602.18
 1181.92        2977.50           2534        1486.00      6475.71
 1181.95        2977.75           2537        1476.00      6432.10
 1181.98        2978.00           2541        1493.00      6506.23
 1182.01        2978.25           2544        1457.00      6349.23
 1182.04        2978.50           2548        1419.00      6183.51
 1182.07        2978.75           2552        1451.00      6323.07
 1182.10        2979.00           2555        1434.00      6248.93
 1182.13        2979.25           2559        1458.00      6353.60
 1182.16        2979.50           2562        1413.00      6157.35
 1182.19        2979.75           2566        1387.00      6043.96
 1182.22        2980.00           2569        1369.00      5965.46
 1182.25        2980.25           2573        1384.00      6030.88
 1182.28        2980.50           2577        1388.00      6048.32
 1182.31        2980.75           2580        1390.00      6057.05
 1182.35        2981.00           2584        1381.00      6017.80
 1182.38        2981.25           2587        1393.00      6070.13
 1182.41        2981.50           2591        1352.00      5891.33
 1182.44        2981.75           2594        1332.00      5804.11
 1182.47        2982.00           2598        1347.00      5869.52
 1182.50        2982.25           2601        1367.00      5956.74
 1182.53        2982.50           2605        1316.00      5734.34
 1182.56        2982.75           2609        1322.00      5760.50
 1182.59        2983.00           2612        1331.00      5799.75
 1182.62        2983.25           2616        1319.00      5747.42
 1182.65        2983.50           2619        1283.00      5590.43
 1182.68        2983.75           2623        1322.00      5760.50
 1182.71        2984.00           2626        1321.00      5756.14
HS scan finished at 19:42:56
end
