************************************************************
  HS Scan of (1) Internal mercury lamp
************************************************************
Integration time is 0.2294 seconds per sample
dh190418Reading 51.44 .94 3.41pr1000
************************************************************
Dead Time -------------------------  3.4E-08 
Number of Cycles Used -------------  4 
Starting Wavelength (Angstroms) ---  2950 
Final Wavelength (Angstoms) -------  2984 
Wavelength Increment (Angstroms) --  .25 
Filter Wheel #1 Position ---------- (1) Ground quartz diffuser (ND=2.32)
Filter Wheel #2 Position ---------- (1) Neutral Density 0.494



************************************************************
HS scan start time = 01:29:08
Dark Count =  1.9 


Time (GMT)  Wavelength (Ang)  Step Number  Raw Counts  Counts/Second

   90.03        2950.00           2144          65.00       275.07
   90.23        2950.25           2147          61.00       257.63
   90.26        2950.50           2151          67.00       283.79
   90.29        2950.75           2155          69.00       292.51
   90.32        2951.00           2158          71.00       301.22
   90.35        2951.25           2162          59.00       248.91
   90.38        2951.50           2165          74.00       314.30
   90.41        2951.75           2169          69.00       292.51
   90.44        2952.00           2172          66.00       279.43
   90.47        2952.25           2176          69.00       292.51
   90.50        2952.50           2179          80.00       340.46
   90.53        2952.75           2183          75.00       318.66
   90.56        2953.00           2186          67.00       283.79
   90.59        2953.25           2190          69.00       292.51
   90.62        2953.50           2193          69.00       292.51
   90.65        2953.75           2197          72.00       305.58
   90.68        2954.00           2200          69.00       292.51
   90.71        2954.25           2204          72.00       305.58
   90.75        2954.50           2208          70.00       296.86
   90.78        2954.75           2211          74.00       314.30
   90.81        2955.00           2215          80.00       340.46
   90.84        2955.25           2218          75.00       318.66
   90.87        2955.50           2222          76.00       323.02
   90.90        2955.75           2225          83.00       353.54
   90.93        2956.00           2229          65.00       275.07
   90.96        2956.25           2232          72.00       305.58
   90.99        2956.50           2236          81.00       344.82
   91.02        2956.75           2239          74.00       314.30
   91.05        2957.00           2243          74.00       314.30
   91.08        2957.25           2246          83.00       353.54
   91.11        2957.50           2250          77.00       327.38
   91.14        2957.75           2254          87.00       370.97
   91.17        2958.00           2257          90.00       384.05
   91.20        2958.25           2261          75.00       318.66
   91.23        2958.50           2264          79.00       336.10
   91.27        2958.75           2268          95.00       405.85
   91.30        2959.00           2271          91.00       388.41
   91.33        2959.25           2275          96.00       410.21
   91.36        2959.50           2278          96.00       410.21
   91.39        2959.75           2282          96.00       410.21
   91.42        2960.00           2285          94.00       401.49
   91.45        2960.25           2289         103.00       440.72
   91.48        2960.50           2293         102.00       436.36
   91.51        2960.75           2296         120.00       514.83
   91.54        2961.00           2300         156.00       671.77
   91.57        2961.25           2303         299.00      1295.17
   91.60        2961.50           2307        1114.00      4848.66
   91.63        2961.75           2310        2086.00      9087.81
   91.66        2962.00           2314        3475.00     15147.73
   91.69        2962.25           2317        4617.00     20131.91
   91.72        2962.50           2321        6154.00     26842.71
   91.75        2962.75           2324        7317.00     31922.60
   91.79        2963.00           2328        8708.00     38000.68
   91.82        2963.25           2331        9999.00     43644.05
   91.85        2963.50           2335       11689.00     51034.86
   91.88        2963.75           2339       13429.00     58648.22
   91.91        2964.00           2342       14769.00     64514.07
   91.94        2964.25           2346       16348.00     71429.15
   91.97        2964.50           2349       17436.00     76195.84
   92.00        2964.75           2353       19179.00     83835.40
   92.03        2965.00           2356       20575.00     89956.93
   92.06        2965.25           2360       22322.00     97621.21
   92.09        2965.50           2363       23508.00    102826.60
   92.12        2965.75           2367       25146.00    110018.90
   92.15        2966.00           2370       25945.00    113528.50
   92.18        2966.25           2374       27208.00    119077.90
   92.21        2966.50           2378       28157.00    123249.10
   92.24        2966.75           2381       28396.00    124299.70
   92.27        2967.00           2385       28426.00    124431.60
   92.31        2967.25           2388       28652.00    125425.20
   92.34        2967.50           2392       28636.00    125354.90
   92.37        2967.75           2395       28370.00    124185.40
   92.40        2968.00           2399       27703.00    121253.40
   92.43        2968.25           2402       26747.00    117052.10
   92.46        2968.50           2406       25340.00    110871.00
   92.49        2968.75           2409       24198.00    105855.90
   92.52        2969.00           2413       22571.00     98713.93
   92.55        2969.25           2417       20810.00     90987.66
   92.58        2969.50           2420       19349.00     84580.72
   92.61        2969.75           2424       17632.00     77054.71
   92.64        2970.00           2427       16454.00     71893.49
   92.67        2970.25           2431       14833.00     64794.29
   92.70        2970.50           2434       13325.00     58193.06
   92.73        2970.75           2438       11609.00     50684.91
   92.76        2971.00           2441       10244.00     44715.27
   92.79        2971.25           2445        8595.00     37506.82
   92.83        2971.50           2449        6915.00     30166.50
   92.86        2971.75           2452        5635.00     24576.33
   92.89        2972.00           2456        4086.00     17814.19
   92.92        2972.25           2459        2927.00     12756.62
   92.95        2972.50           2463        1416.00      6165.63
   92.98        2972.75           2466         633.00      2751.35
   93.01        2973.00           2470         198.00       854.86
   93.04        2973.25           2473         135.00       580.22
   93.07        2973.50           2477         141.00       606.38
   93.10        2973.75           2481         127.00       545.35
   93.13        2974.00           2484         130.00       558.42
   93.16        2974.25           2488          98.00       418.92
   93.19        2974.50           2491         117.00       501.75
   93.22        2974.75           2495          95.00       405.85
   93.25        2975.00           2498         100.00       427.64
   93.28        2975.25           2502          99.00       423.28
   93.32        2975.50           2505         111.00       475.60
   93.35        2975.75           2509          98.00       418.92
   93.38        2976.00           2512          94.00       401.49
   93.41        2976.25           2516          94.00       401.49
   93.44        2976.50           2520          93.00       397.13
   93.47        2976.75           2523          91.00       388.41
   93.50        2977.00           2527          79.00       336.10
   93.53        2977.25           2530          86.00       366.61
   93.56        2977.50           2534          88.00       375.33
   93.59        2977.75           2537          85.00       362.25
   93.62        2978.00           2541          83.00       353.54
   93.65        2978.25           2544          84.00       357.89
   93.68        2978.50           2548          77.00       327.38
   93.71        2978.75           2552          77.00       327.38
   93.74        2979.00           2555          81.00       344.82
   93.77        2979.25           2559          80.00       340.46
   93.80        2979.50           2562          75.00       318.66
   93.83        2979.75           2566          80.00       340.46
   93.87        2980.00           2569          76.00       323.02
   93.90        2980.25           2573          80.00       340.46
   93.93        2980.50           2577          81.00       344.82
   93.96        2980.75           2580          74.00       314.30
   93.99        2981.00           2584          76.00       323.02
   94.02        2981.25           2587          74.00       314.30
   94.05        2981.50           2591          78.00       331.74
   94.08        2981.75           2594          68.00       288.15
   94.11        2982.00           2598          74.00       314.30
   94.14        2982.25           2601          72.00       305.58
   94.17        2982.50           2605          67.00       283.79
   94.20        2982.75           2609          71.00       301.22
   94.23        2983.00           2612          70.00       296.86
   94.26        2983.25           2616          71.00       301.22
   94.29        2983.50           2619          66.00       279.43
   94.32        2983.75           2623          75.00       318.66
   94.35        2984.00           2626          69.00       292.51
HS scan finished at 01:34:35
end
************************************************************
  HS Scan of (1) Internal mercury lamp
************************************************************
Integration time is 0.2294 seconds per sample
dh190418Reading 51.44 .94 3.98pr1000
************************************************************
Dead Time -------------------------  3.4E-08 
Number of Cycles Used -------------  4 
Starting Wavelength (Angstroms) ---  2950 
Final Wavelength (Angstoms) -------  2984 
Wavelength Increment (Angstroms) --  .25 
Filter Wheel #1 Position ---------- (1) Ground quartz diffuser (ND=2.32)
Filter Wheel #2 Position ---------- (1) Neutral Density 0.494



************************************************************
HS scan start time = 20:08:42
Dark Count =  9.7 


Time (GMT)  Wavelength (Ang)  Step Number  Raw Counts  Counts/Second

 1209.60        2950.00           2144          54.00       193.11
 1209.79        2950.25           2147          62.00       227.99
 1209.82        2950.50           2151          57.00       206.19
 1209.85        2950.75           2155          51.00       180.04
 1209.88        2951.00           2158          48.00       166.96
 1209.91        2951.25           2162          59.00       214.91
 1209.94        2951.50           2165          56.00       201.83
 1209.98        2951.75           2169          59.00       214.91
 1210.01        2952.00           2172          53.00       188.75
 1210.04        2952.25           2176          57.00       206.19
 1210.07        2952.50           2179          63.00       232.35
 1210.10        2952.75           2183          53.00       188.75
 1210.13        2953.00           2186          51.00       180.04
 1210.16        2953.25           2190          60.00       219.27
 1210.19        2953.50           2193          55.00       197.47
 1210.22        2953.75           2197          55.00       197.47
 1210.25        2954.00           2200          58.00       210.55
 1210.28        2954.25           2204          53.00       188.75
 1210.31        2954.50           2208          57.00       206.19
 1210.34        2954.75           2211          58.00       210.55
 1210.37        2955.00           2215          60.00       219.27
 1210.40        2955.25           2218          58.00       210.55
 1210.43        2955.50           2222          55.00       197.47
 1210.46        2955.75           2225          61.00       223.63
 1210.50        2956.00           2229          55.00       197.47
 1210.53        2956.25           2232          62.00       227.99
 1210.56        2956.50           2236          55.00       197.47
 1210.59        2956.75           2239          65.00       241.07
 1210.62        2957.00           2243          59.00       214.91
 1210.65        2957.25           2246          62.00       227.99
 1210.68        2957.50           2250          69.00       258.50
 1210.71        2957.75           2254          64.00       236.71
 1210.74        2958.00           2257          69.00       258.50
 1210.77        2958.25           2261          71.00       267.22
 1210.80        2958.50           2264          71.00       267.22
 1210.83        2958.75           2268          73.00       275.94
 1210.86        2959.00           2271          61.00       223.63
 1210.89        2959.25           2275          59.00       214.91
 1210.92        2959.50           2278          67.00       249.78
 1210.96        2959.75           2282          64.00       236.71
 1210.99        2960.00           2285          72.00       271.58
 1211.02        2960.25           2289          83.00       319.53
 1211.05        2960.50           2293          73.00       275.94
 1211.08        2960.75           2296          85.00       328.25
 1211.11        2961.00           2300         103.00       406.72
 1211.14        2961.25           2303         252.00      1056.27
 1211.17        2961.50           2307         877.00      3781.22
 1211.21        2961.75           2310        1649.00      7147.77
 1211.24        2962.00           2314        2644.00     11487.92
 1211.27        2962.25           2317        3514.00     15283.88
 1211.30        2962.50           2321        4734.00     20608.59
 1211.33        2962.75           2324        5483.00     23878.58
 1211.36        2963.00           2328        6545.00     28516.30
 1211.39        2963.25           2331        7426.00     32364.72
 1211.42        2963.50           2335        8733.00     38075.85
 1211.45        2963.75           2339        9865.00     43024.10
 1211.48        2964.00           2342       10827.00     47230.54
 1211.51        2964.25           2346       12014.00     52422.48
 1211.54        2964.50           2349       12791.00     55822.07
 1211.57        2964.75           2353       14015.00     61179.00
 1211.60        2965.00           2356       14948.00     65263.67
 1211.63        2965.25           2360       16056.00     70115.96
 1211.66        2965.50           2363       16766.00     73226.12
 1211.69        2965.75           2367       18000.00     78633.23
 1211.73        2966.00           2370       18667.00     81556.71
 1211.76        2966.25           2374       19502.00     85217.34
 1211.79        2966.50           2378       19737.00     86247.75
 1211.82        2966.75           2381       19676.00     85980.28
 1211.85        2967.00           2385       19714.00     86146.90
 1211.88        2967.25           2388       19693.00     86054.83
 1211.91        2967.50           2392       19647.00     85853.12
 1211.94        2967.75           2395       19260.00     84156.33
 1211.97        2968.00           2399       18371.00     80259.26
 1212.00        2968.25           2402       17697.00     77305.36
 1212.03        2968.50           2406       16677.00     72836.22
 1212.06        2968.75           2409       16585.00     72433.18
 1212.09        2969.00           2413       15622.00     68215.13
 1212.12        2969.25           2417       14460.00     63127.07
 1212.15        2969.50           2420       13623.00     59463.17
 1212.18        2969.75           2424       12319.00     53756.84
 1212.21        2970.00           2427       11510.00     50217.76
 1212.25        2970.25           2431       10171.00     44361.98
 1212.28        2970.50           2434        9226.00     40230.67
 1212.31        2970.75           2438        7915.00     34501.22
 1212.34        2971.00           2441        6942.00     30250.36
 1212.37        2971.25           2445        5895.00     25677.60
 1212.40        2971.50           2449        4960.00     21595.19
 1212.43        2971.75           2452        3996.00     17387.35
 1212.46        2972.00           2456        2937.00     12766.22
 1212.49        2972.25           2459        2149.00      9328.59
 1212.52        2972.50           2463        1043.00      4505.05
 1212.55        2972.75           2466         463.00      1976.16
 1212.58        2973.00           2470         138.00       559.30
 1212.61        2973.25           2473          89.00       345.69
 1212.64        2973.50           2477          85.00       328.25
 1212.67        2973.75           2481          94.00       367.49
 1212.70        2974.00           2484          74.00       280.30
 1212.73        2974.25           2488          69.00       258.50
 1212.76        2974.50           2491          67.00       249.78
 1212.80        2974.75           2495          72.00       271.58
 1212.83        2975.00           2498          76.00       289.02
 1212.86        2975.25           2502          72.00       271.58
 1212.89        2975.50           2505          66.00       245.42
 1212.92        2975.75           2509          73.00       275.94
 1212.95        2976.00           2512          66.00       245.42
 1212.98        2976.25           2516          65.00       241.07
 1213.01        2976.50           2520          63.00       232.35
 1213.04        2976.75           2523          66.00       245.42
 1213.07        2977.00           2527          60.00       219.27
 1213.10        2977.25           2530          65.00       241.07
 1213.13        2977.50           2534          65.00       241.07
 1213.16        2977.75           2537          57.00       206.19
 1213.19        2978.00           2541          56.00       201.83
 1213.22        2978.25           2544          67.00       249.78
 1213.25        2978.50           2548          54.00       193.11
 1213.28        2978.75           2552          62.00       227.99
 1213.32        2979.00           2555          59.00       214.91
 1213.35        2979.25           2559          58.00       210.55
 1213.38        2979.50           2562          62.00       227.99
 1213.41        2979.75           2566          61.00       223.63
 1213.44        2980.00           2569          63.00       232.35
 1213.47        2980.25           2573          61.00       223.63
 1213.50        2980.50           2577          55.00       197.47
 1213.53        2980.75           2580          57.00       206.19
 1213.56        2981.00           2584          52.00       184.40
 1213.59        2981.25           2587          52.00       184.40
 1213.62        2981.50           2591          56.00       201.83
 1213.65        2981.75           2594          58.00       210.55
 1213.68        2982.00           2598          55.00       197.47
 1213.71        2982.25           2601          53.00       188.75
 1213.74        2982.50           2605          55.00       197.47
 1213.77        2982.75           2609          53.00       188.75
 1213.80        2983.00           2612          49.00       171.32
 1213.84        2983.25           2616          53.00       188.75
 1213.87        2983.50           2619          56.00       201.83
 1213.90        2983.75           2623          49.00       171.32
 1213.93        2984.00           2626          51.00       180.04
HS scan finished at 20:14:09
end
