************************************************************
  HS Scan of (1) Internal mercury lamp
************************************************************
Integration time is 0.2294 seconds per sample
dh170419Reading 51.44 .94 3.19pr1000
************************************************************
Dead Time -------------------------  3.4E-08 
Number of Cycles Used -------------  4 
Starting Wavelength (Angstroms) ---  2950 
Final Wavelength (Angstoms) -------  2984 
Wavelength Increment (Angstroms) --  .25 
Filter Wheel #1 Position ---------- (1) Ground quartz diffuser (ND=2.32)
Filter Wheel #2 Position ---------- (1) Neutral Density 0.494



************************************************************
HS scan start time = 01:15:46
Dark Count =  1.4 


Time (GMT)  Wavelength (Ang)  Step Number  Raw Counts  Counts/Second

   76.66        2950.00           2144        1637.00      7131.63
   76.86        2950.25           2147        1617.00      7044.41
   76.89        2950.50           2151        1599.00      6965.90
   76.92        2950.75           2155        1602.00      6978.99
   76.95        2951.00           2158        1615.00      7035.68
   76.98        2951.25           2162        1588.00      6917.93
   77.01        2951.50           2165        1639.00      7140.36
   77.04        2951.75           2169        1600.00      6970.27
   77.07        2952.00           2172        1657.00      7218.86
   77.10        2952.25           2176        1653.00      7201.41
   77.13        2952.50           2179        1637.00      7131.63
   77.16        2952.75           2183        1636.00      7127.27
   77.19        2953.00           2186        1676.00      7301.73
   77.23        2953.25           2190        1631.00      7105.47
   77.26        2953.50           2193        1626.00      7083.66
   77.29        2953.75           2197        1670.00      7275.56
   77.32        2954.00           2200        1674.00      7293.00
   77.35        2954.25           2204        1712.00      7458.74
   77.38        2954.50           2208        1706.00      7432.57
   77.41        2954.75           2211        1769.00      7707.34
   77.44        2955.00           2215        1745.00      7602.66
   77.47        2955.25           2218        1769.00      7707.34
   77.50        2955.50           2222        1737.00      7567.77
   77.53        2955.75           2225        1764.00      7685.53
   77.56        2956.00           2229        1765.00      7689.89
   77.59        2956.25           2232        1799.00      7838.18
   77.62        2956.50           2236        1783.00      7768.40
   77.65        2956.75           2239        1788.00      7790.21
   77.68        2957.00           2243        1799.00      7838.18
   77.71        2957.25           2246        1808.00      7877.44
   77.75        2957.50           2250        1861.00      8108.60
   77.78        2957.75           2254        1892.00      8243.81
   77.81        2958.00           2257        1895.00      8256.89
   77.84        2958.25           2261        1903.00      8291.79
   77.87        2958.50           2264        1904.00      8296.15
   77.90        2958.75           2268        1923.00      8379.02
   77.93        2959.00           2271        1952.00      8505.51
   77.96        2959.25           2275        1961.00      8544.77
   77.99        2959.50           2278        2032.00      8854.45
   78.02        2959.75           2282        2066.00      9002.76
   78.05        2960.00           2285        2100.00      9151.06
   78.08        2960.25           2289        2153.00      9382.24
   78.11        2960.50           2293        2187.00      9530.55
   78.14        2960.75           2296        2236.00      9744.29
   78.17        2961.00           2300        2646.00     11532.86
   78.20        2961.25           2303        4505.00     19645.20
   78.23        2961.50           2307       15338.00     67007.76
   78.27        2961.75           2310       29623.00    129697.10
   78.30        2962.00           2314       54098.00    237731.60
   78.33        2962.25           2317       73640.00    324567.30
   78.36        2962.50           2321      100184.00    443348.70
   78.39        2962.75           2324      120688.00    535768.10
   78.42        2963.00           2328      149596.00    667071.60
   78.45        2963.25           2331      172222.00    770675.40
   78.48        2963.50           2335      202421.00    910118.50
   78.51        2963.75           2339      231537.00   1045845.00
   78.54        2964.00           2342      252982.00   1146635.00
   78.57        2964.25           2346      280331.00   1276204.00
   78.60        2964.50           2349      301910.00   1379267.00
   78.63        2964.75           2353      331134.00   1520034.00
   78.66        2965.00           2356      351094.00   1616980.00
   78.69        2965.25           2360      376494.00   1741306.00
   78.72        2965.50           2363      394894.00   1832051.00
   78.75        2965.75           2367      416602.00   1939860.00
   78.79        2966.00           2370      436642.00   2040117.00
   78.82        2966.25           2374      462142.00   2168723.00
   78.85        2966.50           2378      476239.00   2240325.00
   78.88        2966.75           2381      480115.00   2260075.00
   78.91        2967.00           2385      481113.00   2265165.00
   78.94        2967.25           2388      481697.00   2268145.00
   78.97        2967.50           2392      481190.00   2265558.00
   79.00        2967.75           2395      480257.00   2260799.00
   79.03        2968.00           2399      472301.00   2220286.00
   79.06        2968.25           2402      458564.00   2150607.00
   79.09        2968.50           2406      434742.00   2030581.00
   79.12        2968.75           2409      414554.00   1929654.00
   79.15        2969.00           2413      386969.00   1792896.00
   79.18        2969.25           2417      360887.00   1664786.00
   79.21        2969.50           2420      342840.00   1576811.00
   79.24        2969.75           2424      315490.00   1444508.00
   79.27        2970.00           2427      291644.00   1330144.00
   79.31        2970.25           2431      259567.00   1177725.00
   79.34        2970.50           2434      237009.00   1071496.00
   79.37        2970.75           2438      208640.00    939002.10
   79.40        2971.00           2441      187400.00    840591.70
   79.43        2971.25           2445      159432.00    712019.60
   79.46        2971.50           2449      128184.00    569702.20
   79.49        2971.75           2452      105176.00    465795.60
   79.52        2972.00           2456       76626.00    337881.20
   79.55        2972.25           2459       55946.00    245921.30
   79.58        2972.50           2463       29024.00    127063.00
   79.61        2972.75           2466       14217.00     62099.59
   79.64        2973.00           2470        4786.00     20871.83
   79.67        2973.25           2473        2912.00     12693.36
   79.70        2973.50           2477        2337.00     10184.87
   79.73        2973.75           2481        2292.00      9988.57
   79.76        2974.00           2484        2174.00      9473.85
   79.79        2974.25           2488        2089.00      9103.08
   79.83        2974.50           2491        2090.00      9107.44
   79.86        2974.75           2495        2058.00      8967.86
   79.89        2975.00           2498        2014.00      8775.94
   79.92        2975.25           2502        2000.00      8714.88
   79.95        2975.50           2505        2021.00      8806.47
   79.98        2975.75           2509        1982.00      8636.36
   80.01        2976.00           2512        1942.00      8461.89
   80.04        2976.25           2516        1889.00      8230.72
   80.07        2976.50           2520        1874.00      8165.30
   80.10        2976.75           2523        1839.00      8012.65
   80.13        2977.00           2527        1792.00      7807.65
   80.16        2977.25           2530        1785.00      7777.12
   80.19        2977.50           2534        1758.00      7659.36
   80.22        2977.75           2537        1781.00      7759.68
   80.25        2978.00           2541        1771.00      7716.06
   80.28        2978.25           2544        1717.00      7480.54
   80.31        2978.50           2548        1734.00      7554.69
   80.35        2978.75           2552        1732.00      7545.96
   80.38        2979.00           2555        1727.00      7524.16
   80.41        2979.25           2559        1688.00      7354.06
   80.44        2979.50           2562        1676.00      7301.73
   80.47        2979.75           2566        1673.00      7288.64
   80.50        2980.00           2569        1690.00      7362.78
   80.53        2980.25           2573        1663.00      7245.03
   80.56        2980.50           2577        1606.00      6996.43
   80.59        2980.75           2580        1608.00      7005.16
   80.62        2981.00           2584        1637.00      7131.63
   80.65        2981.25           2587        1599.00      6965.90
   80.68        2981.50           2591        1570.00      6839.43
   80.71        2981.75           2594        1592.00      6935.38
   80.74        2982.00           2598        1578.00      6874.32
   80.77        2982.25           2601        1601.00      6974.63
   80.80        2982.50           2605        1561.00      6800.18
   80.83        2982.75           2609        1546.00      6734.76
   80.87        2983.00           2612        1546.00      6734.76
   80.90        2983.25           2616        1548.00      6743.48
   80.93        2983.50           2619        1551.00      6756.57
   80.96        2983.75           2623        1559.00      6791.45
   80.99        2984.00           2626        1543.00      6721.68
HS scan finished at 01:21:12
end
************************************************************
  HS Scan of (1) Internal mercury lamp
************************************************************
Integration time is 0.2294 seconds per sample
dh170419Reading 51.44 .94 3.41pr1000
************************************************************
Dead Time -------------------------  3.4E-08 
Number of Cycles Used -------------  4 
Starting Wavelength (Angstroms) ---  2950 
Final Wavelength (Angstoms) -------  2984 
Wavelength Increment (Angstroms) --  .25 
Filter Wheel #1 Position ---------- (1) Ground quartz diffuser (ND=2.32)
Filter Wheel #2 Position ---------- (1) Neutral Density 0.494



************************************************************
HS scan start time = 20:07:24
Dark Count =  2.2 


Time (GMT)  Wavelength (Ang)  Step Number  Raw Counts  Counts/Second

 1208.31        2950.00           2144        1365.00      5941.92
 1208.50        2950.25           2147        1367.00      5950.64
 1208.53        2950.50           2151        1373.00      5976.80
 1208.56        2950.75           2155        1381.00      6011.69
 1208.59        2951.00           2158        1365.00      5941.92
 1208.62        2951.25           2162        1395.00      6072.74
 1208.65        2951.50           2165        1394.00      6068.38
 1208.68        2951.75           2169        1374.00      5981.16
 1208.71        2952.00           2172        1391.00      6055.30
 1208.74        2952.25           2176        1430.00      6225.38
 1208.77        2952.50           2179        1361.00      5924.47
 1208.80        2952.75           2183        1426.00      6207.94
 1208.83        2953.00           2186        1435.00      6247.19
 1208.87        2953.25           2190        1419.00      6177.41
 1208.90        2953.50           2193        1440.00      6268.99
 1208.93        2953.75           2197        1473.00      6412.91
 1208.96        2954.00           2200        1452.00      6321.32
 1208.99        2954.25           2204        1458.00      6347.49
 1209.02        2954.50           2208        1420.00      6181.77
 1209.05        2954.75           2211        1499.00      6526.30
 1209.08        2955.00           2215        1442.00      6277.71
 1209.11        2955.25           2218        1495.00      6508.85
 1209.14        2955.50           2222        1503.00      6543.74
 1209.17        2955.75           2225        1476.00      6425.99
 1209.20        2956.00           2229        1553.00      6761.80
 1209.23        2956.25           2232        1531.00      6665.85
 1209.26        2956.50           2236        1526.00      6644.05
 1209.29        2956.75           2239        1525.00      6639.69
 1209.32        2957.00           2243        1538.00      6696.38
 1209.35        2957.25           2246        1548.00      6739.99
 1209.39        2957.50           2250        1581.00      6883.91
 1209.42        2957.75           2254        1597.00      6953.69
 1209.45        2958.00           2257        1608.00      7001.67
 1209.48        2958.25           2261        1628.00      7088.89
 1209.51        2958.50           2264        1641.00      7145.59
 1209.54        2958.75           2268        1681.00      7320.04
 1209.57        2959.00           2271        1685.00      7337.49
 1209.60        2959.25           2275        1700.00      7402.91
 1209.63        2959.50           2278        1765.00      7686.40
 1209.66        2959.75           2282        1722.00      7498.86
 1209.69        2960.00           2285        1809.00      7878.31
 1209.72        2960.25           2289        1834.00      7987.35
 1209.75        2960.50           2293        1860.00      8100.75
 1209.78        2960.75           2296        1909.00      8314.47
 1209.81        2961.00           2300        2000.00      8711.39
 1209.84        2961.25           2303        2325.00     10129.03
 1209.87        2961.50           2307        5547.00     24190.77
 1209.91        2961.75           2310       14997.00     65511.06
 1209.94        2962.00           2314       34736.00    152197.10
 1209.97        2962.25           2317       51433.00    225925.90
 1210.00        2962.50           2321       74324.00    327612.50
 1210.03        2962.75           2324       91776.00    405615.60
 1210.06        2963.00           2328      116463.00    516672.80
 1210.10        2963.25           2331      134532.00    598497.80
 1210.13        2963.50           2335      158731.00    708808.00
 1210.16        2963.75           2339      183622.00    823153.50
 1210.19        2964.00           2342      203310.00    914240.20
 1210.22        2964.25           2346      230357.00   1040316.00
 1210.25        2964.50           2349      249284.00   1129200.00
 1210.28        2964.75           2353      272439.00   1238691.00
 1210.31        2965.00           2356      290398.00   1324189.00
 1210.34        2965.25           2360      313290.00   1433915.00
 1210.37        2965.50           2363      330649.00   1517683.00
 1210.40        2965.75           2367      353587.00   1629131.00
 1210.43        2966.00           2370      370796.00   1713318.00
 1210.46        2966.25           2374      392291.00   1819175.00
 1210.49        2966.50           2378      411331.00   1913604.00
 1210.52        2966.75           2381      419559.00   1954606.00
 1210.55        2967.00           2385      424012.00   1976845.00
 1210.58        2967.25           2388      424604.00   1979804.00
 1210.62        2967.50           2392      424703.00   1980299.00
 1210.65        2967.75           2395      423274.00   1973157.00
 1210.68        2968.00           2399      419975.00   1956682.00
 1210.71        2968.25           2402      410344.00   1908693.00
 1210.74        2968.50           2406      390579.00   1810715.00
 1210.77        2968.75           2409      375275.00   1735311.00
 1210.80        2969.00           2413      353010.00   1626317.00
 1210.83        2969.25           2417      327835.00   1504070.00
 1210.86        2969.50           2420      309513.00   1415753.00
 1210.89        2969.75           2424      284068.00   1293995.00
 1210.92        2970.00           2427      265138.00   1204078.00
 1210.95        2970.25           2431      242238.00   1096047.00
 1210.98        2970.50           2434      224708.00   1013893.00
 1211.01        2970.75           2438      197558.00    887569.10
 1211.04        2971.00           2441      175351.00    785057.60
 1211.07        2971.25           2445      150212.00    669878.90
 1211.10        2971.50           2449      124907.00    554854.00
 1211.14        2971.75           2452      106987.00    473943.90
 1211.17        2972.00           2456       83640.00    369199.20
 1211.20        2972.25           2459       65352.00    287672.70
 1211.23        2972.50           2463       39108.00    171466.60
 1211.26        2972.75           2466       22119.00     96729.12
 1211.29        2973.00           2470        7239.00     31580.53
 1211.32        2973.25           2473        3386.00     14758.06
 1211.35        2973.50           2477        2135.00      9300.24
 1211.38        2973.75           2481        1940.00      8449.68
 1211.41        2974.00           2484        1887.00      8218.51
 1211.44        2974.25           2488        1885.00      8209.79
 1211.47        2974.50           2491        1818.00      7917.56
 1211.50        2974.75           2495        1815.00      7904.48
 1211.53        2975.00           2498        1786.00      7777.99
 1211.56        2975.25           2502        1716.00      7472.69
 1211.59        2975.50           2505        1715.00      7468.33
 1211.62        2975.75           2509        1694.00      7376.74
 1211.66        2976.00           2512        1670.00      7272.07
 1211.69        2976.25           2516        1631.00      7101.98
 1211.72        2976.50           2520        1624.00      7071.45
 1211.75        2976.75           2523        1605.00      6988.58
 1211.78        2977.00           2527        1566.00      6818.49
 1211.81        2977.25           2530        1556.00      6774.88
 1211.84        2977.50           2534        1524.00      6635.32
 1211.87        2977.75           2537        1537.00      6692.02
 1211.90        2978.00           2541        1550.00      6748.72
 1211.93        2978.25           2544        1546.00      6731.27
 1211.96        2978.50           2548        1492.00      6495.77
 1211.99        2978.75           2552        1475.00      6421.63
 1212.02        2979.00           2555        1478.00      6434.71
 1212.05        2979.25           2559        1441.00      6273.35
 1212.08        2979.50           2562        1467.00      6386.74
 1212.11        2979.75           2566        1474.00      6417.27
 1212.14        2980.00           2569        1466.00      6382.38
 1212.17        2980.25           2573        1451.00      6316.96
 1212.21        2980.50           2577        1404.00      6111.99
 1212.24        2980.75           2580        1414.00      6155.60
 1212.27        2981.00           2584        1387.00      6037.86
 1212.30        2981.25           2587        1396.00      6077.11
 1212.33        2981.50           2591        1390.00      6050.94
 1212.36        2981.75           2594        1371.00      5968.08
 1212.39        2982.00           2598        1374.00      5981.16
 1212.42        2982.25           2601        1392.00      6059.66
 1212.45        2982.50           2605        1313.00      5715.15
 1212.48        2982.75           2609        1364.00      5937.55
 1212.51        2983.00           2612        1329.00      5784.92
 1212.54        2983.25           2616        1368.00      5955.00
 1212.57        2983.50           2619        1324.00      5763.12
 1212.60        2983.75           2623        1314.00      5719.51
 1212.63        2984.00           2626        1348.00      5867.78
HS scan finished at 20:12:51
end
