************************************************************
  HS Scan of (1) Internal mercury lamp
************************************************************
Integration time is 0.2294 seconds per sample
dh140419Reading 51.44 .94 2.54pr1000
************************************************************
Dead Time -------------------------  3.4E-08 
Number of Cycles Used -------------  4 
Starting Wavelength (Angstroms) ---  2950 
Final Wavelength (Angstoms) -------  2984 
Wavelength Increment (Angstroms) --  .25 
Filter Wheel #1 Position ---------- (1) Ground quartz diffuser (ND=2.32)
Filter Wheel #2 Position ---------- (1) Neutral Density 0.494



************************************************************
HS scan start time = 01:15:31
Dark Count =  .3 


Time (GMT)  Wavelength (Ang)  Step Number  Raw Counts  Counts/Second

   76.42        2950.00           2144        1745.00      7607.46
   76.61        2950.25           2147        1776.00      7742.67
   76.64        2950.50           2151        1774.00      7733.94
   76.67        2950.75           2155        1801.00      7851.70
   76.71        2951.00           2158        1817.00      7921.49
   76.74        2951.25           2162        1751.00      7633.63
   76.77        2951.50           2165        1801.00      7851.70
   76.80        2951.75           2169        1811.00      7895.32
   76.83        2952.00           2172        1783.00      7773.20
   76.86        2952.25           2176        1809.00      7886.60
   76.89        2952.50           2179        1817.00      7921.49
   76.92        2952.75           2183        1757.00      7659.80
   76.95        2953.00           2186        1832.00      7986.91
   76.98        2953.25           2190        1795.00      7825.53
   77.01        2953.50           2193        1813.00      7904.04
   77.04        2953.75           2197        1827.00      7965.10
   77.07        2954.00           2200        1829.00      7973.83
   77.10        2954.25           2204        1833.00      7991.27
   77.13        2954.50           2208        1871.00      8157.01
   77.16        2954.75           2211        1851.00      8069.78
   77.19        2955.00           2215        1855.00      8087.23
   77.23        2955.25           2218        1876.00      8178.82
   77.26        2955.50           2222        1840.00      8021.80
   77.29        2955.75           2225        1884.00      8213.72
   77.32        2956.00           2229        1912.00      8335.84
   77.35        2956.25           2232        1956.00      8527.76
   77.38        2956.50           2236        1898.00      8274.78
   77.41        2956.75           2239        1934.00      8431.80
   77.44        2957.00           2243        1908.00      8318.39
   77.47        2957.25           2246        1980.00      8632.44
   77.50        2957.50           2250        1991.00      8680.42
   77.53        2957.75           2254        2035.00      8872.34
   77.56        2958.00           2257        1997.00      8706.59
   77.59        2958.25           2261        1977.00      8619.35
   77.62        2958.50           2264        2025.00      8828.72
   77.65        2958.75           2268        2066.00      9007.55
   77.68        2959.00           2271        2080.00      9068.62
   77.71        2959.25           2275        2081.00      9072.98
   77.75        2959.50           2278        2087.00      9099.15
   77.78        2959.75           2282        2164.00      9435.02
   77.81        2960.00           2285        2186.00      9530.99
   77.84        2960.25           2289        2209.00      9631.31
   77.87        2960.50           2293        2249.00      9805.80
   77.90        2960.75           2296        2285.00      9962.83
   77.93        2961.00           2300        2392.00     10429.59
   77.96        2961.25           2303        2774.00     12096.08
   77.99        2961.50           2307        5599.00     24426.12
   78.02        2961.75           2310       12762.00     55736.30
   78.05        2962.00           2314       31477.00    137857.80
   78.08        2962.25           2317       48487.00    212898.70
   78.11        2962.50           2321       74051.00    326404.00
   78.14        2962.75           2324       92533.00    409017.00
   78.17        2963.00           2328      117067.00    519409.20
   78.20        2963.25           2331      134921.00    600273.00
   78.23        2963.50           2335      161055.00    719454.80
   78.27        2963.75           2339      184602.00    827682.80
   78.30        2964.00           2342      203645.00    915803.90
   78.33        2964.25           2346      229083.00   1034361.00
   78.36        2964.50           2349      250026.00   1132705.00
   78.39        2964.75           2353      276697.00   1258925.00
   78.42        2965.00           2356      295693.00   1349503.00
   78.45        2965.25           2360      316921.00   1451405.00
   78.48        2965.50           2363      332941.00   1528789.00
   78.51        2965.75           2367      358449.00   1652875.00
   78.54        2966.00           2370      376712.00   1742384.00
   78.57        2966.25           2374      400598.00   1860306.00
   78.60        2966.50           2378      417514.00   1944413.00
   78.63        2966.75           2381      423658.00   1975085.00
   78.66        2967.00           2385      426754.00   1990566.00
   78.69        2967.25           2388      426274.00   1988165.00
   78.72        2967.50           2392      427157.00   1992583.00
   78.75        2967.75           2395      425229.00   1982939.00
   78.79        2968.00           2399      419797.00   1955803.00
   78.82        2968.25           2402      407825.00   1896178.00
   78.85        2968.50           2406      388253.00   1799238.00
   78.88        2968.75           2409      372171.00   1720075.00
   78.91        2969.00           2413      350055.00   1611923.00
   78.94        2969.25           2417      328118.00   1505448.00
   78.97        2969.50           2420      310087.00   1418520.00
   79.00        2969.75           2424      283060.00   1289202.00
   79.03        2970.00           2427      262956.00   1193758.00
   79.06        2970.25           2431      236772.00   1070389.00
   79.09        2970.50           2434      218058.00    982858.30
   79.12        2970.75           2438      192862.00    865839.90
   79.15        2971.00           2441      174430.00    780830.50
   79.18        2971.25           2445      147632.00    658118.30
   79.22        2971.50           2449      120693.00    535795.60
   79.26        2971.75           2452      101846.00    450823.20
   79.29        2972.00           2456       77223.00    340549.40
   79.32        2972.25           2459       58488.00    257198.80
   79.35        2972.50           2463       35374.00    155015.80
   79.38        2972.75           2466       20808.00     90985.92
   79.42        2973.00           2470        6942.00     30291.43
   79.45        2973.25           2473        3459.00     15084.89
   79.48        2973.50           2477        2436.00     10621.53
   79.51        2973.75           2481        2311.00     10076.25
   79.54        2974.00           2484        2292.00      9993.37
   79.57        2974.25           2488        2229.00      9718.56
   79.60        2974.50           2491        2133.00      9299.80
   79.63        2974.75           2495        2116.00      9225.65
   79.66        2975.00           2498        2074.00      9042.45
   79.69        2975.25           2502        2087.00      9099.15
   79.72        2975.50           2505        2047.00      8924.68
   79.75        2975.75           2509        2019.00      8802.55
   79.79        2976.00           2512        1954.00      8519.03
   79.82        2976.25           2516        2001.00      8724.04
   79.85        2976.50           2520        1981.00      8636.80
   79.88        2976.75           2523        1935.00      8436.16
   79.91        2977.00           2527        1914.00      8344.56
   79.94        2977.25           2530        1891.00      8244.25
   79.97        2977.50           2534        1873.00      8165.74
   80.00        2977.75           2537        1866.00      8135.21
   80.03        2978.00           2541        1900.00      8283.50
   80.06        2978.25           2544        1830.00      7978.19
   80.09        2978.50           2548        1849.00      8061.06
   80.12        2978.75           2552        1838.00      8013.08
   80.15        2979.00           2555        1815.00      7912.76
   80.18        2979.25           2559        1831.00      7982.55
   80.21        2979.50           2562        1799.00      7842.98
   80.24        2979.75           2566        1767.00      7703.41
   80.27        2980.00           2569        1791.00      7808.09
   80.31        2980.25           2573        1748.00      7620.55
   80.34        2980.50           2577        1732.00      7550.76
   80.37        2980.75           2580        1761.00      7677.24
   80.40        2981.00           2584        1718.00      7489.70
   80.43        2981.25           2587        1748.00      7620.55
   80.46        2981.50           2591        1688.00      7358.86
   80.49        2981.75           2594        1669.00      7275.99
   80.52        2982.00           2598        1674.00      7297.80
   80.55        2982.25           2601        1666.00      7262.91
   80.58        2982.50           2605        1677.00      7310.88
   80.61        2982.75           2609        1654.00      7210.57
   80.64        2983.00           2612        1657.00      7223.66
   80.67        2983.25           2616        1649.00      7188.77
   80.70        2983.50           2619        1618.00      7053.57
   80.73        2983.75           2623        1619.00      7057.93
   80.76        2984.00           2626        1638.00      7140.79
HS scan finished at 01:20:59
end
************************************************************
  HS Scan of (1) Internal mercury lamp
************************************************************
Integration time is 0.2294 seconds per sample
dh140419Reading 51.44 .94 2.8pr1000
************************************************************
Dead Time -------------------------  3.4E-08 
Number of Cycles Used -------------  4 
Starting Wavelength (Angstroms) ---  2950 
Final Wavelength (Angstoms) -------  2984 
Wavelength Increment (Angstroms) --  .25 
Filter Wheel #1 Position ---------- (1) Ground quartz diffuser (ND=2.32)
Filter Wheel #2 Position ---------- (1) Neutral Density 0.494



************************************************************
HS scan start time = 20:07:18
Dark Count =  .4 


Time (GMT)  Wavelength (Ang)  Step Number  Raw Counts  Counts/Second

 1208.21        2950.00           2144        1578.00      6878.68
 1208.40        2950.25           2147        1573.00      6856.87
 1208.43        2950.50           2151        1543.00      6726.04
 1208.46        2950.75           2155        1569.00      6839.43
 1208.49        2951.00           2158        1574.00      6861.23
 1208.52        2951.25           2162        1622.00      7070.58
 1208.55        2951.50           2165        1535.00      6691.15
 1208.58        2951.75           2169        1555.00      6778.37
 1208.61        2952.00           2172        1595.00      6952.82
 1208.64        2952.25           2176        1637.00      7135.99
 1208.67        2952.50           2179        1594.00      6948.46
 1208.70        2952.75           2183        1603.00      6987.71
 1208.73        2953.00           2186        1624.00      7079.30
 1208.77        2953.25           2190        1623.00      7074.94
 1208.80        2953.50           2193        1602.00      6983.35
 1208.83        2953.75           2197        1620.00      7061.85
 1208.86        2954.00           2200        1642.00      7157.80
 1208.89        2954.25           2204        1650.00      7192.69
 1208.92        2954.50           2208        1684.00      7340.98
 1208.95        2954.75           2211        1644.00      7166.52
 1208.98        2955.00           2215        1675.00      7301.73
 1209.01        2955.25           2218        1689.00      7362.78
 1209.04        2955.50           2222        1657.00      7223.22
 1209.07        2955.75           2225        1677.00      7310.45
 1209.10        2956.00           2229        1704.00      7428.21
 1209.13        2956.25           2232        1723.00      7511.07
 1209.16        2956.50           2236        1706.00      7436.93
 1209.19        2956.75           2239        1718.00      7489.26
 1209.22        2957.00           2243        1727.00      7528.52
 1209.25        2957.25           2246        1707.00      7441.29
 1209.29        2957.50           2250        1758.00      7663.72
 1209.32        2957.75           2254        1781.00      7764.04
 1209.35        2958.00           2257        1789.00      7798.93
 1209.38        2958.25           2261        1854.00      8082.43
 1209.41        2958.50           2264        1785.00      7781.48
 1209.44        2958.75           2268        1843.00      8034.45
 1209.47        2959.00           2271        1891.00      8243.81
 1209.50        2959.25           2275        1895.00      8261.26
 1209.53        2959.50           2278        1941.00      8461.89
 1209.56        2959.75           2282        1940.00      8457.53
 1209.59        2960.00           2285        1945.00      8479.34
 1209.62        2960.25           2289        1941.00      8461.89
 1209.65        2960.50           2293        2024.00      8823.92
 1209.68        2960.75           2296        2025.00      8828.28
 1209.71        2961.00           2300        2106.00      9181.59
 1209.74        2961.25           2303        2571.00     11210.03
 1209.77        2961.50           2307        6412.00     27976.03
 1209.81        2961.75           2310       14857.00     64905.94
 1209.84        2962.00           2314       30660.00    134262.80
 1209.87        2962.25           2317       45915.00    201527.00
 1209.90        2962.50           2321       68580.00    302037.90
 1209.93        2962.75           2324       84838.00    374563.80
 1209.96        2963.00           2328      106453.00    471547.80
 1209.99        2963.25           2331      123940.00    550484.60
 1210.02        2963.50           2335      147667.00    658277.50
 1210.05        2963.75           2339      174126.00    779432.10
 1210.08        2964.00           2342      191690.00    860419.10
 1210.11        2964.25           2346      213881.00    963393.00
 1210.14        2964.50           2349      230302.00   1040067.00
 1210.17        2964.75           2353      252572.00   1144706.00
 1210.20        2965.00           2356      271142.00   1232544.00
 1210.23        2965.25           2360      293157.00   1337377.00
 1210.26        2965.50           2363      309527.00   1415829.00
 1210.29        2965.75           2367      330689.00   1517885.00
 1210.33        2966.00           2370      344912.00   1586888.00
 1210.36        2966.25           2374      363895.00   1679507.00
 1210.39        2966.50           2378      382646.00   1771588.00
 1210.42        2966.75           2381      389343.00   1804619.00
 1210.45        2967.00           2385      393803.00   1826660.00
 1210.48        2967.25           2388      393565.00   1825483.00
 1210.51        2967.50           2392      393656.00   1825933.00
 1210.54        2967.75           2395      393636.00   1825834.00
 1210.57        2968.00           2399      390435.00   1810012.00
 1210.60        2968.25           2402      384242.00   1779453.00
 1210.63        2968.50           2406      367220.00   1695792.00
 1210.66        2968.75           2409      352036.00   1621576.00
 1210.69        2969.00           2413      329924.00   1514183.00
 1210.72        2969.25           2417      306486.00   1401223.00
 1210.75        2969.50           2420      288452.00   1314908.00
 1210.78        2969.75           2424      266774.00   1211835.00
 1210.81        2970.00           2427      250465.00   1134773.00
 1210.85        2970.25           2431      225878.00   1019370.00
 1210.88        2970.50           2434      206537.00    929233.10
 1210.91        2970.75           2438      181600.00    813839.20
 1210.94        2971.00           2441      162959.00    728175.60
 1210.97        2971.25           2445      139558.00    621348.00
 1211.00        2971.50           2449      117281.00    520375.30
 1211.03        2971.75           2452       99886.00    442014.30
 1211.06        2972.00           2456       75828.00    334326.30
 1211.09        2972.25           2459       57531.00    252953.50
 1211.12        2972.50           2463       33779.00    147990.40
 1211.15        2972.75           2466       19174.00     83820.06
 1211.18        2973.00           2470        6822.00     29766.82
 1211.21        2973.25           2473        3407.00     14857.55
 1211.24        2973.50           2477        2355.00     10267.75
 1211.27        2973.75           2481        2125.00      9264.47
 1211.30        2974.00           2484        2104.00      9172.87
 1211.33        2974.25           2488        2015.00      8784.66
 1211.36        2974.50           2491        2013.00      8775.94
 1211.40        2974.75           2495        1898.00      8274.34
 1211.43        2975.00           2498        1895.00      8261.26
 1211.46        2975.25           2502        1905.00      8304.87
 1211.49        2975.50           2505        1835.00      7999.56
 1211.52        2975.75           2509        1843.00      8034.45
 1211.55        2976.00           2512        1844.00      8038.81
 1211.58        2976.25           2516        1795.00      7825.10
 1211.61        2976.50           2520        1743.00      7598.30
 1211.64        2976.75           2523        1751.00      7633.19
 1211.68        2977.00           2527        1729.00      7537.24
 1211.72        2977.25           2530        1725.00      7519.80
 1211.75        2977.50           2534        1711.00      7458.74
 1211.78        2977.75           2537        1651.00      7197.05
 1211.81        2978.00           2541        1652.00      7201.41
 1211.84        2978.25           2544        1656.00      7218.86
 1211.87        2978.50           2548        1640.00      7149.08
 1211.90        2978.75           2552        1660.00      7236.30
 1211.93        2979.00           2555        1596.00      6957.18
 1211.96        2979.25           2559        1629.00      7101.10
 1211.99        2979.50           2562        1622.00      7070.58
 1212.02        2979.75           2566        1586.00      6913.57
 1212.05        2980.00           2569        1574.00      6861.23
 1212.08        2980.25           2573        1565.00      6821.98
 1212.11        2980.50           2577        1560.00      6800.18
 1212.15        2980.75           2580        1576.00      6869.96
 1212.18        2981.00           2584        1532.00      6678.06
 1212.21        2981.25           2587        1546.00      6739.12
 1212.24        2981.50           2591        1571.00      6848.15
 1212.27        2981.75           2594        1544.00      6730.40
 1212.30        2982.00           2598        1532.00      6678.06
 1212.33        2982.25           2601        1577.00      6874.32
 1212.36        2982.50           2605        1491.00      6499.26
 1212.39        2982.75           2609        1517.00      6612.65
 1212.42        2983.00           2612        1506.00      6564.67
 1212.45        2983.25           2616        1522.00      6634.45
 1212.48        2983.50           2619        1474.00      6425.12
 1212.51        2983.75           2623        1517.00      6612.65
 1212.54        2984.00           2626        1481.00      6455.65
HS scan finished at 20:12:46
end
