************************************************************
  HS Scan of (1) Internal mercury lamp
************************************************************
Integration time is 0.2294 seconds per sample
dh100419Reading 51.44 .94 3.17pr1000
************************************************************
Dead Time -------------------------  3.4E-08 
Number of Cycles Used -------------  4 
Starting Wavelength (Angstroms) ---  2950 
Final Wavelength (Angstoms) -------  2984 
Wavelength Increment (Angstroms) --  .25 
Filter Wheel #1 Position ---------- (1) Ground quartz diffuser (ND=2.32)
Filter Wheel #2 Position ---------- (1) Neutral Density 0.494



************************************************************
HS scan start time = 19:37:24
Dark Count =  1.3 


Time (GMT)  Wavelength (Ang)  Step Number  Raw Counts  Counts/Second

 1178.29        2950.00           2144        1247.00      5431.26
 1178.49        2950.25           2147        1262.00      5496.67
 1178.52        2950.50           2151        1255.00      5466.14
 1178.55        2950.75           2155        1264.00      5505.39
 1178.58        2951.00           2158        1237.00      5387.65
 1178.61        2951.25           2162        1270.00      5531.55
 1178.64        2951.50           2165        1273.00      5544.64
 1178.67        2951.75           2169        1218.00      5304.79
 1178.70        2952.00           2172        1266.00      5514.11
 1178.73        2952.25           2176        1243.00      5413.81
 1178.76        2952.50           2179        1263.00      5501.03
 1178.79        2952.75           2183        1272.00      5540.28
 1178.82        2953.00           2186        1298.00      5653.66
 1178.85        2953.25           2190        1309.00      5701.63
 1178.89        2953.50           2193        1302.00      5671.10
 1178.92        2953.75           2197        1314.00      5723.43
 1178.95        2954.00           2200        1318.00      5740.88
 1178.98        2954.25           2204        1312.00      5714.71
 1179.01        2954.50           2208        1304.00      5679.82
 1179.04        2954.75           2211        1359.00      5919.68
 1179.07        2955.00           2215        1306.00      5688.55
 1179.10        2955.25           2218        1371.00      5972.01
 1179.13        2955.50           2222        1338.00      5828.09
 1179.16        2955.75           2225        1355.00      5902.23
 1179.19        2956.00           2229        1398.00      6089.75
 1179.22        2956.25           2232        1369.00      5963.28
 1179.25        2956.50           2236        1369.00      5963.28
 1179.28        2956.75           2239        1441.00      6277.28
 1179.31        2957.00           2243        1414.00      6159.53
 1179.34        2957.25           2246        1418.00      6176.97
 1179.37        2957.50           2250        1438.00      6264.19
 1179.40        2957.75           2254        1432.00      6238.03
 1179.44        2958.00           2257        1452.00      6325.25
 1179.47        2958.25           2261        1496.00      6517.14
 1179.50        2958.50           2264        1434.00      6246.75
 1179.53        2958.75           2268        1476.00      6429.91
 1179.56        2959.00           2271        1483.00      6460.44
 1179.59        2959.25           2275        1531.00      6669.78
 1179.62        2959.50           2278        1512.00      6586.92
 1179.65        2959.75           2282        1549.00      6748.28
 1179.68        2960.00           2285        1636.00      7127.71
 1179.71        2960.25           2289        1616.00      7040.48
 1179.74        2960.50           2293        1667.00      7262.91
 1179.77        2960.75           2296        1650.00      7188.77
 1179.80        2961.00           2300        1728.00      7528.95
 1179.83        2961.25           2303        1813.00      7899.68
 1179.86        2961.50           2307        3323.00     14487.08
 1179.89        2961.75           2310        9019.00     39362.59
 1179.92        2962.00           2314       22957.00    100410.70
 1179.96        2962.25           2317       36571.00    160285.70
 1179.99        2962.50           2321       54844.00    241037.50
 1180.02        2962.75           2324       68712.00    302621.30
 1180.05        2963.00           2328       92642.00    409501.20
 1180.08        2963.25           2331      112188.00    497384.70
 1180.11        2963.50           2335      137060.00    609986.50
 1180.14        2963.75           2339      160237.00    715705.00
 1180.17        2964.00           2342      175631.00    786349.80
 1180.20        2964.25           2346      197393.00    886809.10
 1180.23        2964.50           2349      215700.00    971862.10
 1180.26        2964.75           2353      237543.00   1074002.00
 1180.29        2965.00           2356      252823.00   1145885.00
 1180.32        2965.25           2360      273171.00   1242170.00
 1180.35        2965.50           2363      288662.00   1315906.00
 1180.38        2965.75           2367      310097.00   1418564.00
 1180.41        2966.00           2370      325212.00   1491398.00
 1180.44        2966.25           2374      343311.00   1579100.00
 1180.48        2966.50           2378      357516.00   1648312.00
 1180.51        2966.75           2381      362367.00   1672025.00
 1180.54        2967.00           2385      365677.00   1688228.00
 1180.57        2967.25           2388      365915.00   1689394.00
 1180.60        2967.50           2392      365483.00   1687278.00
 1180.63        2967.75           2395      365329.00   1686524.00
 1180.66        2968.00           2399      362154.00   1670983.00
 1180.69        2968.25           2402      354667.00   1634404.00
 1180.72        2968.50           2406      335433.00   1540859.00
 1180.75        2968.75           2409      320345.00   1467905.00
 1180.78        2969.00           2413      300174.00   1370949.00
 1180.81        2969.25           2417      279254.00   1271080.00
 1180.84        2969.50           2420      264505.00   1201085.00
 1180.87        2969.75           2424      244209.00   1105318.00
 1180.90        2970.00           2427      228250.00   1030459.00
 1180.93        2970.25           2431      207010.00    931426.70
 1180.96        2970.50           2434      191730.00    860600.00
 1181.00        2970.75           2438      169128.00    756464.90
 1181.03        2971.00           2441      151166.00    674237.30
 1181.06        2971.25           2445      127482.00    566521.40
 1181.09        2971.50           2449      105553.00    467492.70
 1181.12        2971.75           2452       90140.00    398289.70
 1181.15        2972.00           2456       69819.00    307548.40
 1181.18        2972.25           2459       54383.00    238994.80
 1181.21        2972.50           2463       32506.00    142382.00
 1181.24        2972.75           2466       18908.00     82649.98
 1181.27        2973.00           2470        6684.00     29160.11
 1181.30        2973.25           2473        3091.00     13474.79
 1181.33        2973.50           2477        1947.00      8484.14
 1181.36        2973.75           2481        1768.00      7703.41
 1181.39        2974.00           2484        1690.00      7363.22
 1181.42        2974.25           2488        1662.00      7241.10
 1181.45        2974.50           2491        1655.00      7210.57
 1181.48        2974.75           2495        1605.00      6992.51
 1181.52        2975.00           2498        1601.00      6975.06
 1181.55        2975.25           2502        1569.00      6835.50
 1181.58        2975.50           2505        1554.00      6770.08
 1181.61        2975.75           2509        1566.00      6822.42
 1181.64        2976.00           2512        1510.00      6578.19
 1181.67        2976.25           2516        1467.00      6390.67
 1181.70        2976.50           2520        1434.00      6246.75
 1181.73        2976.75           2523        1445.00      6294.72
 1181.76        2977.00           2527        1460.00      6360.14
 1181.79        2977.25           2530        1423.00      6198.78
 1181.82        2977.50           2534        1419.00      6181.33
 1181.85        2977.75           2537        1424.00      6203.14
 1181.88        2978.00           2541        1375.00      5989.45
 1181.91        2978.25           2544        1340.00      5836.82
 1181.94        2978.50           2548        1371.00      5972.01
 1181.97        2978.75           2552        1300.00      5662.38
 1182.00        2979.00           2555        1323.00      5762.68
 1182.03        2979.25           2559        1322.00      5758.32
 1182.07        2979.50           2562        1282.00      5583.89
 1182.10        2979.75           2566        1282.00      5583.89
 1182.13        2980.00           2569        1305.00      5684.18
 1182.16        2980.25           2573        1298.00      5653.66
 1182.19        2980.50           2577        1282.00      5583.89
 1182.22        2980.75           2580        1255.00      5466.14
 1182.25        2981.00           2584        1310.00      5705.99
 1182.28        2981.25           2587        1260.00      5487.95
 1182.31        2981.50           2591        1221.00      5317.88
 1182.34        2981.75           2594        1229.00      5352.76
 1182.37        2982.00           2598        1253.00      5457.42
 1182.40        2982.25           2601        1237.00      5387.65
 1182.43        2982.50           2605        1219.00      5309.15
 1182.46        2982.75           2609        1226.00      5339.68
 1182.49        2983.00           2612        1194.00      5200.13
 1182.52        2983.25           2616        1198.00      5217.58
 1182.55        2983.50           2619        1215.00      5291.71
 1182.59        2983.75           2623        1213.00      5282.99
 1182.62        2984.00           2626        1231.00      5361.48
HS scan finished at 19:42:50
end
