************************************************************
  HS Scan of 
************************************************************
Integration time is 0.2294 seconds per sample
dh160417Reading 51.44 .94 2.8pr1000
************************************************************
Dead Time -------------------------  3.4E-08 
Number of Cycles Used -------------  4 
Starting Wavelength (Angstroms) ---  2950 
Final Wavelength (Angstoms) -------  2984 
Wavelength Increment (Angstroms) --  .25 
Filter Wheel #1 Position ---------- (1) Ground quartz diffuser (ND=2.32)
Filter Wheel #2 Position ---------- (1) Neutral Density 0.494



************************************************************
HS scan start time = 01:15:49
Dark Count =  .6 


Time (GMT)  Wavelength (Ang)  Step Number  Raw Counts  Counts/Second

   76.72        2950.00           2144         662.00      2883.46
   76.91        2950.25           2147         679.00      2957.58
   76.94        2950.50           2151         688.00      2996.82
   76.97        2950.75           2155         687.00      2992.46
   77.00        2951.00           2158         683.00      2975.02
   77.03        2951.25           2162         689.00      3001.18
   77.06        2951.50           2165         687.00      2992.46
   77.09        2951.75           2169         710.00      3092.74
   77.12        2952.00           2172         694.00      3022.98
   77.16        2952.25           2176         703.00      3062.22
   77.19        2952.50           2179         714.00      3110.18
   77.22        2952.75           2183         697.00      3036.06
   77.25        2953.00           2186         706.00      3075.30
   77.28        2953.25           2190         708.00      3084.02
   77.31        2953.50           2193         709.00      3088.38
   77.34        2953.75           2197         718.00      3127.62
   77.37        2954.00           2200         731.00      3184.30
   77.40        2954.25           2204         732.00      3188.66
   77.43        2954.50           2208         741.00      3227.90
   77.46        2954.75           2211         783.00      3411.03
   77.49        2955.00           2215         732.00      3188.66
   77.52        2955.25           2218         767.00      3341.27
   77.55        2955.50           2222         773.00      3367.43
   77.58        2955.75           2225         756.00      3293.31
   77.61        2956.00           2229         795.00      3463.36
   77.64        2956.25           2232         782.00      3406.67
   77.68        2956.50           2236         812.00      3537.48
   77.71        2956.75           2239         810.00      3528.76
   77.74        2957.00           2243         789.00      3437.19
   77.77        2957.25           2246         802.00      3493.88
   77.80        2957.50           2250         803.00      3498.24
   77.83        2957.75           2254         816.00      3554.92
   77.86        2958.00           2257         820.00      3572.36
   77.89        2958.25           2261         827.00      3602.88
   77.92        2958.50           2264         839.00      3655.21
   77.95        2958.75           2268         844.00      3677.01
   77.98        2959.00           2271         845.00      3681.37
   78.01        2959.25           2275         857.00      3733.69
   78.04        2959.50           2278         880.00      3833.98
   78.07        2959.75           2282         916.00      3990.95
   78.10        2960.00           2285         896.00      3903.74
   78.13        2960.25           2289         931.00      4056.36
   78.16        2960.50           2293         937.00      4082.52
   78.20        2960.75           2296         976.00      4252.58
   78.23        2961.00           2300        1086.00      4732.24
   78.26        2961.25           2303        1654.00      7209.26
   78.29        2961.50           2307        6855.00     29910.09
   78.32        2961.75           2310       14370.00     62772.90
   78.35        2962.00           2314       25573.00    111900.10
   78.38        2962.25           2317       34182.00    149764.20
   78.41        2962.50           2321       45442.00    199435.80
   78.44        2962.75           2324       54813.00    240903.20
   78.47        2963.00           2328       67687.00    298063.80
   78.50        2963.25           2331       77306.00    340918.40
   78.53        2963.50           2335       90359.00    399273.80
   78.56        2963.75           2339      104829.00    464237.80
   78.59        2964.00           2342      114817.00    509248.90
   78.62        2964.25           2346      126845.00    563638.50
   78.65        2964.50           2349      136161.00    605904.60
   78.68        2964.75           2353      149173.00    665145.50
   78.72        2965.00           2356      158976.00    709936.40
   78.75        2965.25           2360      171676.00    768170.30
   78.78        2965.50           2363      180409.00    808350.00
   78.81        2965.75           2367      191459.00    859350.20
   78.84        2966.00           2370      200299.00    900280.10
   78.87        2966.25           2374      210184.00    946185.80
   78.90        2966.50           2378      216306.00    974689.40
   78.93        2966.75           2381      217119.00    978478.90
   78.96        2967.00           2385      217439.00    979970.80
   78.99        2967.25           2388      217156.00    978651.50
   79.02        2967.50           2392      217496.00    980236.50
   79.05        2967.75           2395      215897.00    972783.30
   79.08        2968.00           2399      210579.00    948023.20
   79.11        2968.25           2402      203558.00    915398.80
   79.14        2968.50           2406      192395.00    863678.50
   79.17        2968.75           2409      182713.00    818969.20
   79.20        2969.00           2413      170567.00    763075.80
   79.24        2969.25           2417      159379.00    711780.80
   79.27        2969.50           2420      150620.00    671748.30
   79.30        2969.75           2424      138818.00    617981.80
   79.33        2970.00           2427      128303.00    570245.20
   79.36        2970.25           2431      114472.00    507691.80
   79.39        2970.50           2434      105066.00    465304.20
   79.42        2970.75           2438       91481.00    404300.80
   79.45        2971.00           2441       82448.00    363878.60
   79.48        2971.25           2445       70347.00    309902.10
   79.51        2971.50           2449       57431.00    252509.10
   79.54        2971.75           2452       48538.00    213122.90
   79.57        2972.00           2456       36601.00    160421.00
   79.60        2972.25           2459       27236.00    119206.70
   79.63        2972.50           2463       15550.00     67939.68
   79.66        2972.75           2466        7270.00     31722.95
   79.69        2973.00           2470        2202.00      9599.47
   79.72        2973.25           2473        1323.00      5765.73
   79.76        2973.50           2477        1076.00      4688.63
   79.79        2973.75           2481         993.00      4326.70
   79.82        2974.00           2484         975.00      4248.22
   79.85        2974.25           2488         950.00      4139.21
   79.88        2974.50           2491         953.00      4152.29
   79.91        2974.75           2495         929.00      4047.64
   79.94        2975.00           2498         884.00      3851.42
   79.97        2975.25           2502         891.00      3881.94
   80.00        2975.50           2505         876.00      3816.54
   80.03        2975.75           2509         862.00      3755.49
   80.06        2976.00           2512         853.00      3716.25
   80.09        2976.25           2516         844.00      3677.01
   80.12        2976.50           2520         842.00      3668.29
   80.15        2976.75           2523         831.00      3620.32
   80.18        2977.00           2527         835.00      3637.77
   80.21        2977.25           2530         824.00      3589.80
   80.24        2977.50           2534         815.00      3550.56
   80.28        2977.75           2537         801.00      3489.52
   80.31        2978.00           2541         811.00      3533.12
   80.34        2978.25           2544         776.00      3380.51
   80.37        2978.50           2548         791.00      3445.91
   80.40        2978.75           2552         759.00      3306.39
   80.43        2979.00           2555         776.00      3380.51
   80.46        2979.25           2559         740.00      3223.54
   80.49        2979.50           2562         747.00      3254.07
   80.52        2979.75           2566         726.00      3162.50
   80.55        2980.00           2569         744.00      3240.98
   80.58        2980.25           2573         744.00      3240.98
   80.61        2980.50           2577         726.00      3162.50
   80.64        2980.75           2580         738.00      3214.82
   80.67        2981.00           2584         733.00      3193.02
   80.70        2981.25           2587         708.00      3084.02
   80.73        2981.50           2591         699.00      3044.78
   80.76        2981.75           2594         699.00      3044.78
   80.80        2982.00           2598         704.00      3066.58
   80.83        2982.25           2601         699.00      3044.78
   80.86        2982.50           2605         712.00      3101.46
   80.89        2982.75           2609         693.00      3018.62
   80.92        2983.00           2612         744.00      3240.98
   80.95        2983.25           2616         691.00      3009.90
   80.98        2983.50           2619         681.00      2966.30
   81.01        2983.75           2623         719.00      3131.98
   81.04        2984.00           2626         704.00      3066.58
HS scan finished at 01:21:16
end
************************************************************
  HS Scan of 
************************************************************
Integration time is 0.2294 seconds per sample
dh160417Reading 51.44 .94 3.15pr1000
************************************************************
Dead Time -------------------------  3.4E-08 
Number of Cycles Used -------------  4 
Starting Wavelength (Angstroms) ---  2950 
Final Wavelength (Angstoms) -------  2984 
Wavelength Increment (Angstroms) --  .25 
Filter Wheel #1 Position ---------- (1) Ground quartz diffuser (ND=2.32)
Filter Wheel #2 Position ---------- (1) Neutral Density 0.494



************************************************************
HS scan start time = 20:07:22
Dark Count =  1.2 


Time (GMT)  Wavelength (Ang)  Step Number  Raw Counts  Counts/Second

 1208.26        2950.00           2144         640.00      2784.92
 1208.45        2950.25           2147         633.00      2754.40
 1208.48        2950.50           2151         659.00      2867.76
 1208.51        2950.75           2155         681.00      2963.68
 1208.54        2951.00           2158         645.00      2806.72
 1208.57        2951.25           2162         652.00      2837.24
 1208.60        2951.50           2165         665.00      2893.92
 1208.63        2951.75           2169         663.00      2885.20
 1208.67        2952.00           2172         635.00      2763.12
 1208.70        2952.25           2176         666.00      2898.28
 1208.73        2952.50           2179         666.00      2898.28
 1208.76        2952.75           2183         682.00      2968.04
 1208.79        2953.00           2186         669.00      2911.36
 1208.82        2953.25           2190         687.00      2989.84
 1208.85        2953.50           2193         665.00      2893.92
 1208.88        2953.75           2197         685.00      2981.12
 1208.91        2954.00           2200         666.00      2898.28
 1208.94        2954.25           2204         711.00      3094.48
 1208.97        2954.50           2208         696.00      3029.08
 1209.00        2954.75           2211         705.00      3068.32
 1209.03        2955.00           2215         704.00      3063.96
 1209.06        2955.25           2218         710.00      3090.12
 1209.09        2955.50           2222         686.00      2985.48
 1209.12        2955.75           2225         713.00      3103.20
 1209.16        2956.00           2229         732.00      3186.05
 1209.19        2956.25           2232         713.00      3103.20
 1209.22        2956.50           2236         745.00      3242.73
 1209.25        2956.75           2239         752.00      3273.25
 1209.28        2957.00           2243         725.00      3155.53
 1209.31        2957.25           2246         769.00      3347.37
 1209.34        2957.50           2250         767.00      3338.65
 1209.37        2957.75           2254         776.00      3377.89
 1209.40        2958.00           2257         761.00      3312.49
 1209.43        2958.25           2261         797.00      3469.46
 1209.46        2958.50           2264         770.00      3351.73
 1209.49        2958.75           2268         787.00      3425.86
 1209.52        2959.00           2271         785.00      3417.14
 1209.55        2959.25           2275         837.00      3643.87
 1209.58        2959.50           2278         847.00      3687.47
 1209.61        2959.75           2282         852.00      3709.27
 1209.64        2960.00           2285         869.00      3783.40
 1209.67        2960.25           2289         861.00      3748.52
 1209.71        2960.50           2293         903.00      3931.65
 1209.74        2960.75           2296         908.00      3953.45
 1209.77        2961.00           2300         997.00      4341.53
 1209.80        2961.25           2303        1389.00      6050.94
 1209.83        2961.50           2307        4863.00     21208.84
 1209.86        2961.75           2310       10805.00     47171.50
 1209.89        2962.00           2314       20821.00     91038.99
 1209.92        2962.25           2317       29307.00    128308.30
 1209.95        2962.50           2321       41431.00    181720.00
 1209.98        2962.75           2324       50224.00    220579.20
 1210.01        2963.00           2328       62338.00    274284.50
 1210.04        2963.25           2331       71467.00    314886.80
 1210.07        2963.50           2335       84104.00    371278.10
 1210.10        2963.75           2339       96671.00    427573.70
 1210.13        2964.00           2342      106282.00    470774.40
 1210.16        2964.25           2346      117184.00    519933.50
 1210.19        2964.50           2349      125274.00    556520.30
 1210.23        2964.75           2353      138446.00    616287.50
 1210.26        2965.00           2356      147815.00    658948.80
 1210.29        2965.25           2360      160485.00    716840.70
 1210.32        2965.50           2363      169621.00    758728.80
 1210.35        2965.75           2367      180688.00    809632.70
 1210.38        2966.00           2370      188081.00    843737.60
 1210.41        2966.25           2374      199349.00    895873.10
 1210.44        2966.50           2378      208536.00    938519.60
 1210.47        2966.75           2381      210974.00    949858.00
 1210.50        2967.00           2385      212129.00    955232.60
 1210.53        2967.25           2388      212118.00    955181.40
 1210.56        2967.50           2392      212090.00    955051.10
 1210.59        2967.75           2395      211814.00    953766.60
 1210.62        2968.00           2399      209325.00    942187.90
 1210.65        2968.25           2402      203760.00    916333.50
 1210.68        2968.50           2406      194300.00    872488.90
 1210.71        2968.75           2409      184494.00    827180.30
 1210.75        2969.00           2413      171377.00    766793.80
 1210.78        2969.25           2417      158733.00    708821.70
 1210.81        2969.50           2420      150068.00    669226.30
 1210.84        2969.75           2424      138330.00    615760.10
 1210.87        2970.00           2427      128756.00    572295.80
 1210.90        2970.25           2431      115242.00    511164.60
 1210.93        2970.50           2434      104895.00    464532.10
 1210.96        2970.75           2438       92221.00    407614.50
 1210.99        2971.00           2441       82960.00    366164.10
 1211.02        2971.25           2445       70251.00    309472.00
 1211.05        2971.50           2449       58940.00    259200.20
 1211.08        2971.75           2452       50489.00    221752.00
 1211.11        2972.00           2456       37420.00    164028.20
 1211.14        2972.25           2459       27186.00    118984.30
 1211.17        2972.50           2463       15147.00     66172.25
 1211.20        2972.75           2466        7983.00     34835.48
 1211.23        2973.00           2470        2566.00     11184.73
 1211.27        2973.25           2473        1358.00      5915.75
 1211.30        2973.50           2477        1008.00      4389.50
 1211.33        2973.75           2481         959.00      4175.83
 1211.36        2974.00           2484         965.00      4202.00
 1211.39        2974.25           2488         931.00      4053.74
 1211.42        2974.50           2491         873.00      3800.84
 1211.45        2974.75           2495         915.00      3983.97
 1211.48        2975.00           2498         862.00      3752.88
 1211.51        2975.25           2502         888.00      3866.25
 1211.54        2975.50           2505         842.00      3665.67
 1211.57        2975.75           2509         790.00      3438.94
 1211.60        2976.00           2512         808.00      3517.42
 1211.63        2976.25           2516         812.00      3534.86
 1211.66        2976.50           2520         781.00      3399.70
 1211.69        2976.75           2523         769.00      3347.37
 1211.72        2977.00           2527         762.00      3316.85
 1211.75        2977.25           2530         796.00      3465.10
 1211.79        2977.50           2534         763.00      3321.21
 1211.82        2977.75           2537         749.00      3260.17
 1211.85        2978.00           2541         734.00      3194.77
 1211.88        2978.25           2544         770.00      3351.73
 1211.91        2978.50           2548         738.00      3212.21
 1211.94        2978.75           2552         733.00      3190.41
 1211.97        2979.00           2555         727.00      3164.25
 1212.00        2979.25           2559         712.00      3098.84
 1212.03        2979.50           2562         719.00      3129.37
 1212.06        2979.75           2566         686.00      2985.48
 1212.09        2980.00           2569         695.00      3024.72
 1212.12        2980.25           2573         694.00      3020.36
 1212.15        2980.50           2577         667.00      2902.64
 1212.18        2980.75           2580         696.00      3029.08
 1212.21        2981.00           2584         678.00      2950.60
 1212.24        2981.25           2587         692.00      3011.64
 1212.27        2981.50           2591         685.00      2981.12
 1212.31        2981.75           2594         663.00      2885.20
 1212.34        2982.00           2598         657.00      2859.04
 1212.37        2982.25           2601         652.00      2837.24
 1212.40        2982.50           2605         686.00      2985.48
 1212.43        2982.75           2609         683.00      2972.40
 1212.46        2983.00           2612         657.00      2859.04
 1212.49        2983.25           2616         672.00      2924.44
 1212.52        2983.50           2619         635.00      2763.12
 1212.55        2983.75           2623         642.00      2793.64
 1212.58        2984.00           2626         623.00      2710.80
HS scan finished at 20:12:48
end
