************************************************************
  HS Scan of (1) Internal mercury lamp
************************************************************
Integration time is 0.2294 seconds per sample
dh110418Reading 51.44 .94 3.29pr1000
************************************************************
Dead Time -------------------------  3.4E-08 
Number of Cycles Used -------------  4 
Starting Wavelength (Angstroms) ---  2950 
Final Wavelength (Angstoms) -------  2984 
Wavelength Increment (Angstroms) --  .25 
Filter Wheel #1 Position ---------- (1) Ground quartz diffuser (ND=2.32)
Filter Wheel #2 Position ---------- (1) Neutral Density 0.494



************************************************************
HS scan start time = 02:36:47
Dark Count =  1.4 


Time (GMT)  Wavelength (Ang)  Step Number  Raw Counts  Counts/Second

  157.68        2950.00           2144          62.00       264.17
  157.87        2950.25           2147          62.00       264.17
  157.90        2950.50           2151          66.00       281.61
  157.93        2950.75           2155          63.00       268.53
  157.96        2951.00           2158          61.00       259.81
  157.99        2951.25           2162          62.00       264.17
  158.02        2951.50           2165          70.00       299.04
  158.05        2951.75           2169          62.00       264.17
  158.09        2952.00           2172          65.00       277.25
  158.12        2952.25           2176          68.00       290.33
  158.15        2952.50           2179          69.00       294.68
  158.18        2952.75           2183          68.00       290.33
  158.21        2953.00           2186          71.00       303.40
  158.24        2953.25           2190          67.00       285.97
  158.27        2953.50           2193          71.00       303.40
  158.30        2953.75           2197          71.00       303.40
  158.33        2954.00           2200          69.00       294.68
  158.36        2954.25           2204          65.00       277.25
  158.39        2954.50           2208          62.00       264.17
  158.42        2954.75           2211          69.00       294.68
  158.45        2955.00           2215          73.00       312.12
  158.48        2955.25           2218          67.00       285.97
  158.51        2955.50           2222          77.00       329.56
  158.54        2955.75           2225          74.00       316.48
  158.57        2956.00           2229          76.00       325.20
  158.61        2956.25           2232          73.00       312.12
  158.64        2956.50           2236          66.00       281.61
  158.67        2956.75           2239          77.00       329.56
  158.70        2957.00           2243          78.00       333.92
  158.73        2957.25           2246          71.00       303.40
  158.76        2957.50           2250          88.00       377.51
  158.79        2957.75           2254          79.00       338.28
  158.82        2958.00           2257          81.00       347.00
  158.85        2958.25           2261          86.00       368.79
  158.88        2958.50           2264          78.00       333.92
  158.91        2958.75           2268          86.00       368.79
  158.94        2959.00           2271          81.00       347.00
  158.97        2959.25           2275          92.00       394.95
  159.00        2959.50           2278          86.00       368.79
  159.03        2959.75           2282          85.00       364.43
  159.06        2960.00           2285          93.00       399.31
  159.09        2960.25           2289          90.00       386.23
  159.13        2960.50           2293         114.00       490.85
  159.16        2960.75           2296         117.00       503.93
  159.19        2961.00           2300         145.00       625.99
  159.22        2961.25           2303         378.00      1641.77
  159.25        2961.50           2307        1094.00      4763.63
  159.28        2961.75           2310        1941.00      8457.53
  159.31        2962.00           2314        3215.00     14015.40
  159.34        2962.25           2317        4167.00     18169.90
  159.37        2962.50           2321        5365.00     23399.60
  159.40        2962.75           2324        6306.00     27508.72
  159.43        2963.00           2328        7808.00     34069.96
  159.46        2963.25           2331        8829.00     38531.70
  159.50        2963.50           2335       10305.00     44984.18
  159.54        2963.75           2339       11735.00     51238.28
  159.57        2964.00           2342       12587.00     54965.75
  159.60        2964.25           2346       14029.00     61276.62
  159.63        2964.50           2349       15055.00     65768.53
  159.66        2964.75           2353       17022.00     74384.05
  159.69        2965.00           2356       17886.00     78170.00
  159.72        2965.25           2360       18822.00     82272.53
  159.75        2965.50           2363       19954.00     87235.69
  159.78        2965.75           2367       21039.00     91994.35
  159.81        2966.00           2370       21895.00     95749.75
  159.84        2966.25           2374       23202.00    101485.60
  159.87        2966.50           2378       23893.00    104519.00
  159.91        2966.75           2381       24346.00    106507.90
  159.94        2967.00           2385       24244.00    106060.10
  159.97        2967.25           2388       24311.00    106354.20
  160.00        2967.50           2392       24295.00    106284.00
  160.03        2967.75           2395       23903.00    104562.90
  160.06        2968.00           2399       23487.00    102736.60
  160.09        2968.25           2402       22582.00     98764.40
  160.12        2968.50           2406       21155.00     92503.21
  160.15        2968.75           2409       19923.00     87099.75
  160.18        2969.00           2413       18454.00     80659.44
  160.21        2969.25           2417       16971.00     74160.60
  160.24        2969.50           2420       16099.00     70340.65
  160.27        2969.75           2424       14667.00     64069.67
  160.30        2970.00           2427       13697.00     59823.39
  160.33        2970.25           2431       12202.00     53281.26
  160.36        2970.50           2434       11189.00     48850.03
  160.39        2970.75           2438        9794.00     42749.98
  160.43        2971.00           2441        8492.00     37058.87
  160.46        2971.25           2445        7099.00     30972.44
  160.49        2971.50           2449        5661.00     24692.04
  160.52        2971.75           2452        4702.00     20505.14
  160.55        2972.00           2456        3274.00     14272.84
  160.58        2972.25           2459        2233.00      9731.21
  160.61        2972.50           2463        1067.00      4645.90
  160.64        2972.75           2466         468.00      2034.14
  160.67        2973.00           2470         172.00       743.70
  160.70        2973.25           2473         128.00       551.88
  160.73        2973.50           2477         106.00       455.98
  160.76        2973.75           2481          97.00       416.75
  160.79        2974.00           2484          99.00       425.46
  160.82        2974.25           2488         133.00       573.68
  160.85        2974.50           2491          84.00       360.07
  160.88        2974.75           2495          96.00       412.39
  160.91        2975.00           2498         103.00       442.90
  160.95        2975.25           2502          87.00       373.15
  160.98        2975.50           2505          95.00       408.03
  161.01        2975.75           2509          90.00       386.23
  161.04        2976.00           2512          83.00       355.71
  161.07        2976.25           2516         105.00       451.62
  161.10        2976.50           2520          73.00       312.12
  161.13        2976.75           2523          83.00       355.71
  161.16        2977.00           2527          75.00       320.84
  161.19        2977.25           2530          84.00       360.07
  161.22        2977.50           2534          74.00       316.48
  161.25        2977.75           2537          75.00       320.84
  161.28        2978.00           2541          83.00       355.71
  161.31        2978.25           2544          75.00       320.84
  161.34        2978.50           2548          75.00       320.84
  161.37        2978.75           2552          72.00       307.76
  161.40        2979.00           2555          71.00       303.40
  161.43        2979.25           2559          76.00       325.20
  161.47        2979.50           2562          75.00       320.84
  161.50        2979.75           2566          71.00       303.40
  161.53        2980.00           2569          67.00       285.97
  161.56        2980.25           2573          66.00       281.61
  161.59        2980.50           2577          78.00       333.92
  161.62        2980.75           2580          67.00       285.97
  161.65        2981.00           2584          64.00       272.89
  161.68        2981.25           2587          69.00       294.68
  161.71        2981.50           2591          72.00       307.76
  161.74        2981.75           2594          68.00       290.33
  161.77        2982.00           2598          65.00       277.25
  161.80        2982.25           2601          76.00       325.20
  161.83        2982.50           2605          68.00       290.33
  161.86        2982.75           2609          63.00       268.53
  161.89        2983.00           2612          69.00       294.68
  161.92        2983.25           2616          63.00       268.53
  161.95        2983.50           2619          75.00       320.84
  161.98        2983.75           2623          68.00       290.33
  162.02        2984.00           2626          64.00       272.89
HS scan finished at 02:42:14
end
************************************************************
  HS Scan of (1) Internal mercury lamp
************************************************************
Integration time is 0.2294 seconds per sample
dh110418Reading 51.44 .94 3.17pr1000
************************************************************
Dead Time -------------------------  3.4E-08 
Number of Cycles Used -------------  4 
Starting Wavelength (Angstroms) ---  2950 
Final Wavelength (Angstoms) -------  2984 
Wavelength Increment (Angstroms) --  .25 
Filter Wheel #1 Position ---------- (1) Ground quartz diffuser (ND=2.32)
Filter Wheel #2 Position ---------- (1) Neutral Density 0.494



************************************************************
HS scan start time = 19:37:25
Dark Count =  1 


Time (GMT)  Wavelength (Ang)  Step Number  Raw Counts  Counts/Second

 1178.31        2950.00           2144          69.00       296.43
 1178.51        2950.25           2147          64.00       274.63
 1178.54        2950.50           2151          63.00       270.27
 1178.57        2950.75           2155          64.00       274.63
 1178.60        2951.00           2158          65.00       278.99
 1178.63        2951.25           2162          62.00       265.91
 1178.66        2951.50           2165          70.00       300.79
 1178.69        2951.75           2169          66.00       283.35
 1178.72        2952.00           2172          67.00       287.71
 1178.75        2952.25           2176          63.00       270.27
 1178.78        2952.50           2179          64.00       274.63
 1178.81        2952.75           2183          62.00       265.91
 1178.84        2953.00           2186          66.00       283.35
 1178.87        2953.25           2190          64.00       274.63
 1178.90        2953.50           2193          71.00       305.15
 1178.93        2953.75           2197          69.00       296.43
 1178.96        2954.00           2200          66.00       283.35
 1178.99        2954.25           2204          62.00       265.91
 1179.03        2954.50           2208          71.00       305.15
 1179.06        2954.75           2211          66.00       283.35
 1179.09        2955.00           2215          63.00       270.27
 1179.12        2955.25           2218          68.00       292.07
 1179.15        2955.50           2222          71.00       305.15
 1179.18        2955.75           2225          67.00       287.71
 1179.21        2956.00           2229          67.00       287.71
 1179.24        2956.25           2232          66.00       283.35
 1179.27        2956.50           2236          71.00       305.15
 1179.30        2956.75           2239          75.00       322.58
 1179.33        2957.00           2243          73.00       313.87
 1179.36        2957.25           2246          72.00       309.51
 1179.39        2957.50           2250          75.00       322.58
 1179.42        2957.75           2254          81.00       348.74
 1179.45        2958.00           2257          74.00       318.22
 1179.48        2958.25           2261          83.00       357.46
 1179.51        2958.50           2264          73.00       313.87
 1179.55        2958.75           2268          72.00       309.51
 1179.58        2959.00           2271          76.00       326.94
 1179.61        2959.25           2275          84.00       361.82
 1179.64        2959.50           2278          78.00       335.66
 1179.67        2959.75           2282          84.00       361.82
 1179.70        2960.00           2285          89.00       383.61
 1179.73        2960.25           2289         108.00       466.44
 1179.76        2960.50           2293          92.00       396.69
 1179.79        2960.75           2296          94.00       405.41
 1179.82        2961.00           2300         134.00       579.78
 1179.85        2961.25           2303         246.00      1068.04
 1179.88        2961.50           2307         777.00      3383.13
 1179.91        2961.75           2310        1516.00      6605.67
 1179.94        2962.00           2314        2629.00     11460.44
 1179.97        2962.25           2317        3815.00     16635.39
 1180.00        2962.50           2321        4805.00     20956.51
 1180.03        2962.75           2324        5711.00     24912.11
 1180.07        2963.00           2328        6891.00     30065.59
 1180.10        2963.25           2331        7761.00     33866.35
 1180.13        2963.50           2335        8986.00     39219.66
 1180.16        2963.75           2339       10448.00     45611.23
 1180.19        2964.00           2342       11675.00     50977.56
 1180.22        2964.25           2346       12961.00     56604.04
 1180.25        2964.50           2349       13784.00     60205.94
 1180.28        2964.75           2353       14962.00     65363.06
 1180.31        2965.00           2356       15803.00     69045.95
 1180.34        2965.25           2360       16816.00     73483.28
 1180.38        2965.50           2363       18221.00     79639.94
 1180.41        2965.75           2367       19211.00     83979.64
 1180.44        2966.00           2370       19986.00     87377.77
 1180.47        2966.25           2374       20889.00     91338.14
 1180.50        2966.50           2378       21480.00     93930.71
 1180.53        2966.75           2381       21662.00     94729.21
 1180.56        2967.00           2385       21561.00     94286.09
 1180.59        2967.25           2388       21363.00     93417.42
 1180.62        2967.50           2392       22029.00     96339.46
 1180.65        2967.75           2395       21640.00     94632.68
 1180.68        2968.00           2399       20944.00     91579.39
 1180.71        2968.25           2402       19844.00     86755.08
 1180.74        2968.50           2406       18661.00     81568.54
 1180.77        2968.75           2409       17959.00     78491.68
 1180.81        2969.00           2413       16639.00     72707.85
 1180.84        2969.25           2417       15136.00     66124.96
 1180.87        2969.50           2420       14676.00     64110.83
 1180.90        2969.75           2424       13240.00     57825.00
 1180.93        2970.00           2427       12191.00     53234.89
 1180.96        2970.25           2431       10889.00     47539.73
 1180.99        2970.50           2434       10152.00     44316.94
 1181.02        2970.75           2438        8991.00     39241.52
 1181.05        2971.00           2441        7940.00     34648.47
 1181.08        2971.25           2445        6542.00     28541.20
 1181.11        2971.50           2449        5283.00     23043.33
 1181.14        2971.75           2452        4337.00     18913.64
 1181.17        2972.00           2456        3127.00     13633.17
 1181.20        2972.25           2459        2409.00     10500.70
 1181.23        2972.50           2463        1233.00      5371.51
 1181.26        2972.75           2466         585.00      2545.99
 1181.29        2973.00           2470         164.00       710.57
 1181.33        2973.25           2473         118.00       510.03
 1181.36        2973.50           2477          99.00       427.21
 1181.39        2973.75           2481          89.00       383.61
 1181.42        2974.00           2484          96.00       414.13
 1181.45        2974.25           2488          84.00       361.82
 1181.48        2974.50           2491          90.00       387.97
 1181.51        2974.75           2495          88.00       379.26
 1181.54        2975.00           2498          79.00       340.02
 1181.57        2975.25           2502          86.00       370.54
 1181.60        2975.50           2505          82.00       353.10
 1181.63        2975.75           2509          80.00       344.38
 1181.66        2976.00           2512          74.00       318.22
 1181.69        2976.25           2516          77.00       331.30
 1181.72        2976.50           2520          78.00       335.66
 1181.75        2976.75           2523          67.00       287.71
 1181.78        2977.00           2527          78.00       335.66
 1181.81        2977.25           2530          70.00       300.79
 1181.85        2977.50           2534          80.00       344.38
 1181.88        2977.75           2537          68.00       292.07
 1181.91        2978.00           2541          74.00       318.22
 1181.94        2978.25           2544          64.00       274.63
 1181.97        2978.50           2548          72.00       309.51
 1182.00        2978.75           2552          71.00       305.15
 1182.03        2979.00           2555          73.00       313.87
 1182.06        2979.25           2559          76.00       326.94
 1182.09        2979.50           2562          68.00       292.07
 1182.12        2979.75           2566          70.00       300.79
 1182.15        2980.00           2569          78.00       335.66
 1182.18        2980.25           2573          69.00       296.43
 1182.21        2980.50           2577          68.00       292.07
 1182.24        2980.75           2580          61.00       261.55
 1182.27        2981.00           2584          66.00       283.35
 1182.30        2981.25           2587          63.00       270.27
 1182.33        2981.50           2591          57.00       244.12
 1182.37        2981.75           2594          70.00       300.79
 1182.40        2982.00           2598          62.00       265.91
 1182.43        2982.25           2601          62.00       265.91
 1182.46        2982.50           2605          66.00       283.35
 1182.49        2982.75           2609          61.00       261.55
 1182.52        2983.00           2612          58.00       248.48
 1182.55        2983.25           2616          58.00       248.48
 1182.58        2983.50           2619          63.00       270.27
 1182.61        2983.75           2623          66.00       283.35
 1182.64        2984.00           2626          65.00       278.99
HS scan finished at 19:42:52
end
