************************************************************
  HS Scan of (1) Internal mercury lamp
************************************************************
Integration time is 0.2294 seconds per sample
dh120418Reading 51.44 .94 3.15pr1000
************************************************************
Dead Time -------------------------  3.4E-08 
Number of Cycles Used -------------  4 
Starting Wavelength (Angstroms) ---  2950 
Final Wavelength (Angstoms) -------  2984 
Wavelength Increment (Angstroms) --  .25 
Filter Wheel #1 Position ---------- (1) Ground quartz diffuser (ND=2.32)
Filter Wheel #2 Position ---------- (1) Neutral Density 0.494



************************************************************
HS scan start time = 01:30:46
Dark Count =  1.2 


Time (GMT)  Wavelength (Ang)  Step Number  Raw Counts  Counts/Second

   91.67        2950.00           2144          59.00       251.96
   91.86        2950.25           2147          69.00       295.56
   91.89        2950.50           2151          59.00       251.96
   91.92        2950.75           2155          63.00       269.40
   91.95        2951.00           2158          66.00       282.48
   91.99        2951.25           2162          62.00       265.04
   92.02        2951.50           2165          60.00       256.32
   92.05        2951.75           2169          68.00       291.20
   92.08        2952.00           2172          67.00       286.84
   92.11        2952.25           2176          61.00       260.68
   92.14        2952.50           2179          74.00       317.35
   92.17        2952.75           2183          72.00       308.63
   92.20        2953.00           2186          65.00       278.12
   92.23        2953.25           2190          67.00       286.84
   92.26        2953.50           2193          67.00       286.84
   92.29        2953.75           2197          77.00       330.43
   92.32        2954.00           2200          68.00       291.20
   92.35        2954.25           2204          70.00       299.92
   92.38        2954.50           2208          68.00       291.20
   92.41        2954.75           2211          60.00       256.32
   92.44        2955.00           2215          69.00       295.56
   92.47        2955.25           2218          80.00       343.51
   92.51        2955.50           2222          71.00       304.28
   92.54        2955.75           2225          70.00       299.92
   92.57        2956.00           2229          65.00       278.12
   92.60        2956.25           2232          66.00       282.48
   92.63        2956.50           2236          78.00       334.79
   92.66        2956.75           2239          83.00       356.59
   92.69        2957.00           2243          76.00       326.07
   92.72        2957.25           2246          75.00       321.71
   92.75        2957.50           2250          81.00       347.87
   92.78        2957.75           2254          82.00       352.23
   92.81        2958.00           2257          73.00       312.99
   92.84        2958.25           2261          78.00       334.79
   92.87        2958.50           2264          79.00       339.15
   92.90        2958.75           2268          74.00       317.35
   92.93        2959.00           2271          83.00       356.59
   92.96        2959.25           2275          90.00       387.10
   92.99        2959.50           2278          89.00       382.74
   93.02        2959.75           2282          89.00       382.74
   93.06        2960.00           2285          86.00       369.66
   93.09        2960.25           2289          85.00       365.31
   93.12        2960.50           2293          85.00       365.31
   93.15        2960.75           2296          95.00       408.90
   93.18        2961.00           2300         139.00       600.71
   93.21        2961.25           2303         296.00      1285.15
   93.24        2961.50           2307         958.00      4171.47
   93.27        2961.75           2310        1643.00      7158.67
   93.30        2962.00           2314        2872.00     12519.72
   93.33        2962.25           2317        3879.00     16913.82
   93.36        2962.50           2321        5071.00     22116.89
   93.39        2962.75           2324        6083.00     26535.70
   93.42        2963.00           2328        7423.00     32388.75
   93.45        2963.25           2331        8591.00     37492.40
   93.48        2963.50           2335        9980.00     43564.04
   93.51        2963.75           2339       11671.00     50959.19
   93.54        2964.00           2342       12795.00     55876.76
   93.58        2964.25           2346       14010.00     61194.33
   93.61        2964.50           2349       15066.00     65817.56
   93.64        2964.75           2353       16463.00     71935.98
   93.67        2965.00           2356       17494.00     76453.06
   93.70        2965.25           2360       18774.00     82063.01
   93.73        2965.50           2363       19885.00     86933.99
   93.76        2965.75           2367       21149.00     92477.77
   93.79        2966.00           2370       21963.00     96048.99
   93.82        2966.25           2374       23004.00    100617.40
   93.85        2966.50           2378       23480.00    102706.80
   93.88        2966.75           2381       23684.00    103602.30
   93.91        2967.00           2385       23493.00    102763.80
   93.94        2967.25           2388       23316.00    101986.90
   93.97        2967.50           2392       23311.00    101964.90
   94.00        2967.75           2395       23119.00    101122.20
   94.03        2968.00           2399       22354.00     97764.71
   94.06        2968.25           2402       21689.00     94846.79
   94.10        2968.50           2406       20225.00     88425.00
   94.13        2968.75           2409       19464.00     85088.00
   94.16        2969.00           2413       17990.00     78626.65
   94.19        2969.25           2417       16637.00     72698.22
   94.22        2969.50           2420       15765.00     68878.65
   94.25        2969.75           2424       14243.00     62214.29
   94.28        2970.00           2427       13316.00     58156.73
   94.31        2970.25           2431       11944.00     52153.43
   94.35        2970.50           2434       10891.00     47547.60
   94.38        2970.75           2438        9449.00     41242.63
   94.41        2971.00           2441        8335.00     36373.64
   94.44        2971.25           2445        6838.00     29833.21
   94.47        2971.50           2449        5499.00     23985.55
   94.50        2971.75           2452        4539.00     19794.49
   94.53        2972.00           2456        3256.00     14195.17
   94.56        2972.25           2459        2249.00      9801.87
   94.59        2972.50           2463        1178.00      5130.80
   94.62        2972.75           2466         562.00      2444.84
   94.65        2973.00           2470         170.00       735.85
   94.68        2973.25           2473         127.00       548.40
   94.71        2973.50           2477         123.00       530.96
   94.74        2973.75           2481         103.00       443.77
   94.77        2974.00           2484         108.00       465.57
   94.81        2974.25           2488          94.00       404.54
   94.84        2974.50           2491          89.00       382.74
   94.87        2974.75           2495          85.00       365.31
   94.90        2975.00           2498          95.00       408.90
   94.93        2975.25           2502          91.00       391.46
   94.96        2975.50           2505          86.00       369.66
   94.99        2975.75           2509          86.00       369.66
   95.02        2976.00           2512          79.00       339.15
   95.05        2976.25           2516          75.00       321.71
   95.08        2976.50           2520          85.00       365.31
   95.11        2976.75           2523          69.00       295.56
   95.14        2977.00           2527          86.00       369.66
   95.17        2977.25           2530          75.00       321.71
   95.20        2977.50           2534          73.00       312.99
   95.23        2977.75           2537          74.00       317.35
   95.26        2978.00           2541          81.00       347.87
   95.29        2978.25           2544          72.00       308.63
   95.33        2978.50           2548          79.00       339.15
   95.36        2978.75           2552          76.00       326.07
   95.39        2979.00           2555          66.00       282.48
   95.42        2979.25           2559          70.00       299.92
   95.45        2979.50           2562          81.00       347.87
   95.48        2979.75           2566          72.00       308.63
   95.51        2980.00           2569          72.00       308.63
   95.54        2980.25           2573          64.00       273.76
   95.57        2980.50           2577          67.00       286.84
   95.60        2980.75           2580          70.00       299.92
   95.63        2981.00           2584          68.00       291.20
   95.66        2981.25           2587          70.00       299.92
   95.69        2981.50           2591          71.00       304.28
   95.72        2981.75           2594          66.00       282.48
   95.75        2982.00           2598          66.00       282.48
   95.78        2982.25           2601          68.00       291.20
   95.81        2982.50           2605          59.00       251.96
   95.85        2982.75           2609          69.00       295.56
   95.88        2983.00           2612          67.00       286.84
   95.91        2983.25           2616          70.00       299.92
   95.94        2983.50           2619          70.00       299.92
   95.97        2983.75           2623          62.00       265.04
   96.00        2984.00           2626          60.00       256.32
HS scan finished at 01:36:13
end
************************************************************
  HS Scan of (1) Internal mercury lamp
************************************************************
Integration time is 0.2294 seconds per sample
dh120418Reading 51.44 .94 3.03pr1000
************************************************************
Dead Time -------------------------  3.4E-08 
Number of Cycles Used -------------  4 
Starting Wavelength (Angstroms) ---  2950 
Final Wavelength (Angstoms) -------  2984 
Wavelength Increment (Angstroms) --  .25 
Filter Wheel #1 Position ---------- (1) Ground quartz diffuser (ND=2.32)
Filter Wheel #2 Position ---------- (1) Neutral Density 0.494



************************************************************
HS scan start time = 19:37:25
Dark Count =  1 


Time (GMT)  Wavelength (Ang)  Step Number  Raw Counts  Counts/Second

 1178.32        2950.00           2144          75.00       322.58
 1178.52        2950.25           2147          69.00       296.43
 1178.55        2950.50           2151          73.00       313.87
 1178.58        2950.75           2155          74.00       318.22
 1178.61        2951.00           2158          75.00       322.58
 1178.64        2951.25           2162          69.00       296.43
 1178.67        2951.50           2165          75.00       322.58
 1178.70        2951.75           2169          70.00       300.79
 1178.73        2952.00           2172          61.00       261.55
 1178.76        2952.25           2176          74.00       318.22
 1178.79        2952.50           2179          69.00       296.43
 1178.82        2952.75           2183          64.00       274.63
 1178.85        2953.00           2186          76.00       326.94
 1178.88        2953.25           2190          62.00       265.91
 1178.91        2953.50           2193          76.00       326.94
 1178.94        2953.75           2197          72.00       309.51
 1178.98        2954.00           2200          70.00       300.79
 1179.01        2954.25           2204          69.00       296.43
 1179.04        2954.50           2208          68.00       292.07
 1179.07        2954.75           2211          75.00       322.58
 1179.10        2955.00           2215          72.00       309.51
 1179.13        2955.25           2218          78.00       335.66
 1179.16        2955.50           2222          70.00       300.79
 1179.19        2955.75           2225          76.00       326.94
 1179.22        2956.00           2229          80.00       344.38
 1179.25        2956.25           2232          74.00       318.22
 1179.28        2956.50           2236          75.00       322.58
 1179.31        2956.75           2239          86.00       370.54
 1179.34        2957.00           2243          81.00       348.74
 1179.37        2957.25           2246          81.00       348.74
 1179.40        2957.50           2250          82.00       353.10
 1179.44        2957.75           2254          81.00       348.74
 1179.47        2958.00           2257          81.00       348.74
 1179.50        2958.25           2261          76.00       326.94
 1179.53        2958.50           2264          92.00       396.69
 1179.56        2958.75           2268          88.00       379.26
 1179.59        2959.00           2271          92.00       396.69
 1179.62        2959.25           2275          79.00       340.02
 1179.65        2959.50           2278          84.00       361.82
 1179.69        2959.75           2282          87.00       374.90
 1179.72        2960.00           2285          97.00       418.49
 1179.75        2960.25           2289          95.00       409.77
 1179.78        2960.50           2293          94.00       405.41
 1179.81        2960.75           2296          98.00       422.85
 1179.84        2961.00           2300         165.00       714.93
 1179.87        2961.25           2303         226.00       980.85
 1179.90        2961.50           2307         764.00      3326.44
 1179.93        2961.75           2310        1498.00      6527.17
 1179.96        2962.00           2314        2697.00     11757.10
 1179.99        2962.25           2317        3644.00     15889.14
 1180.02        2962.50           2321        4909.00     21410.52
 1180.05        2962.75           2324        5822.00     25396.82
 1180.08        2963.00           2328        7019.00     30624.72
 1180.11        2963.25           2331        8195.00     35762.73
 1180.14        2963.50           2335        9372.00     40906.90
 1180.17        2963.75           2339       10669.00     46577.63
 1180.21        2964.00           2342       11466.00     50063.35
 1180.24        2964.25           2346       13252.00     57877.52
 1180.27        2964.50           2349       13836.00     60433.55
 1180.30        2964.75           2353       14873.00     64973.37
 1180.33        2965.00           2356       16343.00     71411.19
 1180.36        2965.25           2360       17501.00     76484.61
 1180.39        2965.50           2363       18167.00     79403.26
 1180.42        2965.75           2367       20044.00     87632.12
 1180.45        2966.00           2370       20295.00     88732.86
 1180.48        2966.25           2374       21242.00     92886.61
 1180.51        2966.50           2378       22375.00     97857.74
 1180.54        2966.75           2381       21997.00     96199.05
 1180.57        2967.00           2385       22675.00     99174.31
 1180.60        2967.25           2388       22198.00     97081.02
 1180.63        2967.50           2392       22046.00     96414.06
 1180.66        2967.75           2395       21817.00     95409.27
 1180.69        2968.00           2399       21762.00     95167.94
 1180.73        2968.25           2402       20687.00     90452.12
 1180.76        2968.50           2406       19557.00     85496.64
 1180.79        2968.75           2409       18677.00     81638.68
 1180.82        2969.00           2413       17279.00     75511.85
 1180.85        2969.25           2417       16410.00     71704.68
 1180.88        2969.50           2420       15143.00     66155.62
 1180.91        2969.75           2424       13873.00     60595.51
 1180.94        2970.00           2427       12823.00     56000.16
 1180.97        2970.25           2431       11410.00     49818.40
 1181.00        2970.50           2434       10906.00     47614.08
 1181.03        2970.75           2438        9321.00     40683.97
 1181.06        2971.00           2441        8265.00     36068.62
 1181.09        2971.25           2445        6965.00     30388.84
 1181.12        2971.50           2449        5587.00     24370.67
 1181.15        2971.75           2452        4766.00     20786.26
 1181.18        2972.00           2456        3485.00     15195.30
 1181.22        2972.25           2459        2562.00     11168.15
 1181.25        2972.50           2463        1550.00      6753.95
 1181.28        2972.75           2466         772.00      3361.33
 1181.31        2973.00           2470         196.00       850.07
 1181.34        2973.25           2473         123.00       531.83
 1181.37        2973.50           2477         117.00       505.68
 1181.40        2973.75           2481          91.00       392.33
 1181.43        2974.00           2484          89.00       383.61
 1181.46        2974.25           2488          89.00       383.61
 1181.49        2974.50           2491          85.00       366.18
 1181.52        2974.75           2495          90.00       387.97
 1181.55        2975.00           2498          90.00       387.97
 1181.58        2975.25           2502          88.00       379.26
 1181.61        2975.50           2505          87.00       374.90
 1181.65        2975.75           2509          79.00       340.02
 1181.68        2976.00           2512          92.00       396.69
 1181.71        2976.25           2516          88.00       379.26
 1181.74        2976.50           2520          78.00       335.66
 1181.77        2976.75           2523          73.00       313.87
 1181.80        2977.00           2527          85.00       366.18
 1181.83        2977.25           2530          91.00       392.33
 1181.86        2977.50           2534          76.00       326.94
 1181.89        2977.75           2537          82.00       353.10
 1181.92        2978.00           2541          79.00       340.02
 1181.95        2978.25           2544          76.00       326.94
 1181.98        2978.50           2548          76.00       326.94
 1182.01        2978.75           2552          71.00       305.15
 1182.04        2979.00           2555          74.00       318.22
 1182.07        2979.25           2559          75.00       322.58
 1182.10        2979.50           2562          78.00       335.66
 1182.13        2979.75           2566          81.00       348.74
 1182.16        2980.00           2569          75.00       322.58
 1182.20        2980.25           2573          69.00       296.43
 1182.23        2980.50           2577          68.00       292.07
 1182.26        2980.75           2580          73.00       313.87
 1182.29        2981.00           2584          68.00       292.07
 1182.32        2981.25           2587          75.00       322.58
 1182.35        2981.50           2591          70.00       300.79
 1182.38        2981.75           2594          68.00       292.07
 1182.41        2982.00           2598          71.00       305.15
 1182.44        2982.25           2601          65.00       278.99
 1182.47        2982.50           2605          66.00       283.35
 1182.50        2982.75           2609          67.00       287.71
 1182.53        2983.00           2612          69.00       296.43
 1182.56        2983.25           2616          66.00       283.35
 1182.59        2983.50           2619          71.00       305.15
 1182.62        2983.75           2623          67.00       287.71
 1182.65        2984.00           2626          58.00       248.48
HS scan finished at 19:42:53
end
