************************************************************
  HS Scan of 
************************************************************
Integration time is 0.2294 seconds per sample
dh130417Reading 51.44 .94 3.03pr1000
************************************************************
Dead Time -------------------------  3.4E-08 
Number of Cycles Used -------------  4 
Starting Wavelength (Angstroms) ---  2950 
Final Wavelength (Angstoms) -------  2984 
Wavelength Increment (Angstroms) --  .25 
Filter Wheel #1 Position ---------- (1) Ground quartz diffuser (ND=2.32)
Filter Wheel #2 Position ---------- (1) Neutral Density 0.494



************************************************************
HS scan start time = 01:08:23
Dark Count =  .9 


Time (GMT)  Wavelength (Ang)  Step Number  Raw Counts  Counts/Second

   69.29        2950.00           2144         728.00      3169.91
   69.48        2950.25           2147         725.00      3156.83
   69.51        2950.50           2151         761.00      3313.80
   69.54        2950.75           2155         741.00      3226.60
   69.57        2951.00           2158         746.00      3248.40
   69.60        2951.25           2162         761.00      3313.80
   69.63        2951.50           2165         781.00      3401.00
   69.66        2951.75           2169         767.00      3339.96
   69.70        2952.00           2172         786.00      3422.80
   69.73        2952.25           2176         750.00      3265.84
   69.76        2952.50           2179         777.00      3383.56
   69.79        2952.75           2183         750.00      3265.84
   69.82        2953.00           2186         760.00      3309.44
   69.85        2953.25           2190         763.00      3322.52
   69.88        2953.50           2193         777.00      3383.56
   69.91        2953.75           2197         812.00      3536.17
   69.94        2954.00           2200         791.00      3444.61
   69.97        2954.25           2204         793.00      3453.33
   70.00        2954.50           2208         819.00      3566.69
   70.03        2954.75           2211         805.00      3505.65
   70.06        2955.00           2215         803.00      3496.93
   70.09        2955.25           2218         800.00      3483.85
   70.12        2955.50           2222         838.00      3649.54
   70.15        2955.75           2225         846.00      3684.42
   70.18        2956.00           2229         802.00      3492.57
   70.22        2956.25           2232         817.00      3557.97
   70.25        2956.50           2236         851.00      3706.22
   70.28        2956.75           2239         839.00      3653.90
   70.31        2957.00           2243         851.00      3706.22
   70.34        2957.25           2246         827.00      3601.57
   70.37        2957.50           2250         860.00      3745.46
   70.40        2957.75           2254         875.00      3810.87
   70.43        2958.00           2257         884.00      3850.11
   70.46        2958.25           2261         891.00      3880.63
   70.49        2958.50           2264         899.00      3915.52
   70.52        2958.75           2268         885.00      3854.47
   70.55        2959.00           2271         955.00      4159.70
   70.58        2959.25           2275         934.00      4068.13
   70.61        2959.50           2278         965.00      4203.30
   70.64        2959.75           2282         976.00      4251.27
   70.67        2960.00           2285        1029.00      4482.37
   70.70        2960.25           2289        1025.00      4464.93
   70.73        2960.50           2293        1026.00      4469.29
   70.77        2960.75           2296        1084.00      4722.21
   70.80        2961.00           2300        1200.00      5228.04
   70.83        2961.25           2303        1614.00      7033.50
   70.86        2961.50           2307        6177.00     26947.52
   70.89        2961.75           2310       13363.00     58363.74
   70.92        2962.00           2314       24458.00    107001.90
   70.95        2962.25           2317       33863.00    148358.10
   70.98        2962.50           2321       48605.00    213417.90
   71.01        2962.75           2324       60220.00    264881.80
   71.04        2963.00           2328       74838.00    329909.60
   71.07        2963.25           2331       85789.00    378815.10
   71.10        2963.50           2335      101804.00    450631.60
   71.13        2963.75           2339      117304.00    520476.90
   71.16        2964.00           2342      129012.00    573457.60
   71.19        2964.25           2346      143402.00    638840.10
   71.22        2964.50           2349      153230.00    683664.20
   71.26        2964.75           2353      168108.00    751784.70
   71.29        2965.00           2356      179880.00    805911.50
   71.32        2965.25           2360      194034.00    871259.20
   71.35        2965.50           2363      204360.00    919120.20
   71.38        2965.75           2367      216264.00    974492.10
   71.41        2966.00           2370      226562.00   1022566.00
   71.44        2966.25           2374      239038.00   1081021.00
   71.47        2966.50           2378      247058.00   1118724.00
   71.50        2966.75           2381      248517.00   1125594.00
   71.53        2967.00           2385      249024.00   1127982.00
   71.56        2967.25           2388      249018.00   1127953.00
   71.59        2967.50           2392      248411.00   1125095.00
   71.62        2967.75           2395      248207.00   1124134.00
   71.65        2968.00           2399      241317.00   1091725.00
   71.68        2968.25           2402      232902.00   1052242.00
   71.71        2968.50           2406      221586.00    999316.50
   71.74        2968.75           2409      210546.00    947868.10
   71.78        2969.00           2413      196327.00    881873.60
   71.81        2969.25           2417      182082.00    816058.60
   71.84        2969.50           2420      172664.00    772709.00
   71.87        2969.75           2424      158091.00    705885.60
   71.90        2970.00           2427      147307.00    656633.70
   71.93        2970.25           2431      131961.00    586832.80
   71.96        2970.50           2434      120548.00    535137.30
   71.99        2970.75           2438      105954.00    469299.40
   72.02        2971.00           2441       95950.00    424339.40
   72.05        2971.25           2445       82489.00    364060.60
   72.08        2971.50           2449       66914.00    294624.10
   72.11        2971.75           2452       54694.00    240374.60
   72.14        2972.00           2456       40276.00    176624.60
   72.17        2972.25           2459       31589.00    138348.00
   72.20        2972.50           2463       18912.00     82669.26
   72.23        2972.75           2466        9901.00     43219.96
   72.26        2973.00           2470        3041.00     13258.37
   72.29        2973.25           2473        1587.00      6915.75
   72.33        2973.50           2477        1186.00      5166.99
   72.36        2973.75           2481        1121.00      4883.55
   72.39        2974.00           2484        1067.00      4648.08
   72.42        2974.25           2488        1070.00      4661.16
   72.45        2974.50           2491        1013.00      4412.61
   72.48        2974.75           2495        1021.00      4447.49
   72.51        2975.00           2498         997.00      4342.84
   72.54        2975.25           2502         968.00      4216.39
   72.57        2975.50           2505         982.00      4277.43
   72.60        2975.75           2509         964.00      4198.94
   72.63        2976.00           2512         941.00      4098.65
   72.66        2976.25           2516         928.00      4041.97
   72.69        2976.50           2520         911.00      3967.84
   72.72        2976.75           2523         866.00      3771.63
   72.75        2977.00           2527         888.00      3867.55
   72.78        2977.25           2530         889.00      3871.91
   72.82        2977.50           2534         875.00      3810.87
   72.85        2977.75           2537         857.00      3732.38
   72.88        2978.00           2541         839.00      3653.90
   72.91        2978.25           2544         822.00      3579.77
   72.94        2978.50           2548         860.00      3745.46
   72.97        2978.75           2552         834.00      3632.10
   73.00        2979.00           2555         827.00      3601.57
   73.03        2979.25           2559         823.00      3584.13
   73.06        2979.50           2562         795.00      3462.05
   73.09        2979.75           2566         795.00      3462.05
   73.12        2980.00           2569         814.00      3544.89
   73.15        2980.25           2573         800.00      3483.85
   73.18        2980.50           2577         795.00      3462.05
   73.21        2980.75           2580         773.00      3366.12
   73.24        2981.00           2584         776.00      3379.20
   73.27        2981.25           2587         776.00      3379.20
   73.30        2981.50           2591         783.00      3409.72
   73.34        2981.75           2594         785.00      3418.44
   73.37        2982.00           2598         765.00      3331.24
   73.40        2982.25           2601         753.00      3278.92
   73.43        2982.50           2605         736.00      3204.80
   73.46        2982.75           2609         768.00      3344.32
   73.49        2983.00           2612         736.00      3204.80
   73.52        2983.25           2616         738.00      3213.52
   73.55        2983.50           2619         739.00      3217.88
   73.58        2983.75           2623         729.00      3174.27
   73.61        2984.00           2626         770.00      3353.04
HS scan finished at 01:13:50
end
************************************************************
  HS Scan of 
************************************************************
Integration time is 0.2294 seconds per sample
dh130417Reading 51.44 .94 3.17pr1000
************************************************************
Dead Time -------------------------  3.4E-08 
Number of Cycles Used -------------  4 
Starting Wavelength (Angstroms) ---  2950 
Final Wavelength (Angstoms) -------  2984 
Wavelength Increment (Angstroms) --  .25 
Filter Wheel #1 Position ---------- (1) Ground quartz diffuser (ND=2.32)
Filter Wheel #2 Position ---------- (1) Neutral Density 0.494



************************************************************
HS scan start time = 20:07:21
Dark Count =  1.1 


Time (GMT)  Wavelength (Ang)  Step Number  Raw Counts  Counts/Second

 1208.24        2950.00           2144         655.00      2850.76
 1208.44        2950.25           2147         655.00      2850.76
 1208.47        2950.50           2151         633.00      2754.84
 1208.50        2950.75           2155         664.00      2890.00
 1208.53        2951.00           2158         667.00      2903.08
 1208.56        2951.25           2162         681.00      2964.12
 1208.59        2951.50           2165         678.00      2951.04
 1208.62        2951.75           2169         658.00      2863.84
 1208.65        2952.00           2172         674.00      2933.60
 1208.68        2952.25           2176         654.00      2846.40
 1208.71        2952.50           2179         664.00      2890.00
 1208.74        2952.75           2183         689.00      2999.00
 1208.77        2953.00           2186         687.00      2990.28
 1208.80        2953.25           2190         662.00      2881.28
 1208.83        2953.50           2193         662.00      2881.28
 1208.87        2953.75           2197         679.00      2955.40
 1208.90        2954.00           2200         701.00      3051.32
 1208.93        2954.25           2204         698.00      3038.24
 1208.96        2954.50           2208         717.00      3121.08
 1208.99        2954.75           2211         704.00      3064.40
 1209.02        2955.00           2215         713.00      3103.64
 1209.05        2955.25           2218         713.00      3103.64
 1209.08        2955.50           2222         703.00      3060.04
 1209.11        2955.75           2225         715.00      3112.36
 1209.14        2956.00           2229         703.00      3060.04
 1209.17        2956.25           2232         724.00      3151.60
 1209.20        2956.50           2236         717.00      3121.08
 1209.23        2956.75           2239         731.00      3182.12
 1209.26        2957.00           2243         756.00      3291.13
 1209.29        2957.25           2246         750.00      3264.97
 1209.32        2957.50           2250         788.00      3430.65
 1209.35        2957.75           2254         783.00      3408.85
 1209.39        2958.00           2257         780.00      3395.77
 1209.42        2958.25           2261         799.00      3478.62
 1209.45        2958.50           2264         787.00      3426.29
 1209.48        2958.75           2268         800.00      3482.98
 1209.51        2959.00           2271         797.00      3469.90
 1209.54        2959.25           2275         804.00      3500.42
 1209.57        2959.50           2278         836.00      3639.95
 1209.60        2959.75           2282         834.00      3631.22
 1209.63        2960.00           2285         850.00      3700.99
 1209.66        2960.25           2289         873.00      3801.28
 1209.69        2960.50           2293         913.00      3975.69
 1209.72        2960.75           2296         919.00      4001.85
 1209.75        2961.00           2300         998.00      4346.33
 1209.78        2961.25           2303        1365.00      5946.71
 1209.81        2961.50           2307        4377.00     19087.80
 1209.84        2961.75           2310       10621.00     46367.29
 1209.87        2962.00           2314       21912.00     95825.65
 1209.91        2962.25           2317       30161.00    132064.60
 1209.94        2962.50           2321       41135.00    180414.10
 1209.97        2962.75           2324       49921.00    219238.90
 1210.00        2963.00           2328       62791.00    276297.00
 1210.03        2963.25           2331       73359.00    323316.30
 1210.06        2963.50           2335       86620.00    382532.00
 1210.09        2963.75           2339       98548.00    436001.10
 1210.12        2964.00           2342      107805.00    477632.40
 1210.15        2964.25           2346      120666.00    535670.00
 1210.18        2964.50           2349      129737.00    576743.90
 1210.21        2964.75           2353      142812.00    636152.70
 1210.24        2965.00           2356      151748.00    676895.30
 1210.27        2965.25           2360      164133.00    733552.60
 1210.30        2965.50           2363      172906.00    773820.40
 1210.33        2965.75           2367      183550.00    822826.50
 1210.36        2966.00           2370      191980.00    861757.00
 1210.39        2966.25           2374      202610.00    910996.90
 1210.43        2966.50           2378      210551.00    947890.60
 1210.46        2966.75           2381      212926.00    958943.00
 1210.49        2967.00           2385      214538.00    966449.60
 1210.52        2967.25           2388      214276.00    965229.30
 1210.55        2967.50           2392      214520.00    966365.80
 1210.58        2967.75           2395      214000.00    963943.90
 1210.61        2968.00           2399      211538.00    952482.80
 1210.64        2968.25           2402      206015.00    926804.90
 1210.67        2968.50           2406      194468.00    873266.80
 1210.70        2968.75           2409      185420.00    831453.40
 1210.73        2969.00           2413      174674.00    781949.00
 1210.76        2969.25           2417      163268.00    729588.30
 1210.79        2969.50           2420      153902.00    686733.30
 1210.82        2969.75           2424      140204.00    624283.50
 1210.85        2970.00           2427      130140.00    578571.40
 1210.88        2970.25           2431      116998.00    519093.90
 1210.91        2970.50           2434      107576.00    476601.10
 1210.95        2970.75           2438       93583.00    413720.90
 1210.98        2971.00           2441       84436.00    372763.00
 1211.01        2971.25           2445       71316.00    314214.70
 1211.04        2971.50           2449       58685.00    258069.20
 1211.07        2971.75           2452       49300.00    216491.40
 1211.10        2972.00           2456       36233.00    158797.10
 1211.13        2972.25           2459       27007.00    118198.10
 1211.16        2972.50           2463       15612.00     68209.01
 1211.19        2972.75           2466        8851.00     38629.17
 1211.22        2973.00           2470        3219.00     14034.16
 1211.25        2973.25           2473        1466.00      6387.18
 1211.28        2973.50           2477        1039.00      4525.11
 1211.31        2973.75           2481         974.00      4241.68
 1211.34        2974.00           2484         942.00      4102.14
 1211.37        2974.25           2488         897.00      3905.92
 1211.40        2974.50           2491         874.00      3805.64
 1211.43        2974.75           2495         856.00      3727.15
 1211.46        2975.00           2498         882.00      3840.52
 1211.50        2975.25           2502         852.00      3709.71
 1211.53        2975.50           2505         867.00      3775.11
 1211.56        2975.75           2509         849.00      3696.63
 1211.59        2976.00           2512         817.00      3557.10
 1211.62        2976.25           2516         821.00      3574.54
 1211.65        2976.50           2520         799.00      3478.62
 1211.68        2976.75           2523         795.00      3461.17
 1211.71        2977.00           2527         802.00      3491.70
 1211.74        2977.25           2530         772.00      3360.89
 1211.77        2977.50           2534         782.00      3404.49
 1211.80        2977.75           2537         797.00      3469.90
 1211.83        2978.00           2541         725.00      3155.96
 1211.86        2978.25           2544         751.00      3269.33
 1211.89        2978.50           2548         738.00      3212.64
 1211.92        2978.75           2552         732.00      3186.48
 1211.95        2979.00           2555         693.00      3016.44
 1211.98        2979.25           2559         713.00      3103.64
 1212.02        2979.50           2562         724.00      3151.60
 1212.05        2979.75           2566         704.00      3064.40
 1212.08        2980.00           2569         695.00      3025.16
 1212.11        2980.25           2573         679.00      2955.40
 1212.14        2980.50           2577         702.00      3055.68
 1212.17        2980.75           2580         672.00      2924.88
 1212.20        2981.00           2584         692.00      3012.08
 1212.23        2981.25           2587         656.00      2855.12
 1212.26        2981.50           2591         644.00      2802.80
 1212.29        2981.75           2594         663.00      2885.64
 1212.32        2982.00           2598         685.00      2981.56
 1212.35        2982.25           2601         656.00      2855.12
 1212.38        2982.50           2605         680.00      2959.76
 1212.41        2982.75           2609         650.00      2828.96
 1212.44        2983.00           2612         629.00      2737.40
 1212.47        2983.25           2616         661.00      2876.92
 1212.50        2983.50           2619         633.00      2754.84
 1212.54        2983.75           2623         703.00      3060.04
 1212.57        2984.00           2626         665.00      2894.36
HS scan finished at 20:12:47
end
