************************************************************
  HS Scan of (1) Internal mercury lamp
************************************************************
Integration time is 0.2294 seconds per sample
dh100418Reading 51.44 .94 3.01pr1000
************************************************************
Dead Time -------------------------  3.4E-08 
Number of Cycles Used -------------  4 
Starting Wavelength (Angstroms) ---  2950 
Final Wavelength (Angstoms) -------  2984 
Wavelength Increment (Angstroms) --  .25 
Filter Wheel #1 Position ---------- (1) Ground quartz diffuser (ND=2.32)
Filter Wheel #2 Position ---------- (1) Neutral Density 0.494



************************************************************
HS scan start time = 01:17:20
Dark Count =  1 


Time (GMT)  Wavelength (Ang)  Step Number  Raw Counts  Counts/Second

   78.23        2950.00           2144          59.00       252.84
   78.42        2950.25           2147          68.00       292.07
   78.45        2950.50           2151          59.00       252.84
   78.48        2950.75           2155          67.00       287.71
   78.51        2951.00           2158          67.00       287.71
   78.54        2951.25           2162          73.00       313.87
   78.58        2951.50           2165          64.00       274.63
   78.61        2951.75           2169          69.00       296.43
   78.64        2952.00           2172          67.00       287.71
   78.67        2952.25           2176          69.00       296.43
   78.70        2952.50           2179          72.00       309.51
   78.73        2952.75           2183          63.00       270.27
   78.76        2953.00           2186          71.00       305.15
   78.79        2953.25           2190          69.00       296.43
   78.82        2953.50           2193          81.00       348.74
   78.85        2953.75           2197          78.00       335.66
   78.88        2954.00           2200          68.00       292.07
   78.91        2954.25           2204          69.00       296.43
   78.94        2954.50           2208          71.00       305.15
   78.97        2954.75           2211          78.00       335.66
   79.00        2955.00           2215          78.00       335.66
   79.03        2955.25           2218          71.00       305.15
   79.06        2955.50           2222          71.00       305.15
   79.09        2955.75           2225          85.00       366.18
   79.13        2956.00           2229          82.00       353.10
   79.16        2956.25           2232          73.00       313.87
   79.19        2956.50           2236          71.00       305.15
   79.22        2956.75           2239          73.00       313.87
   79.25        2957.00           2243          72.00       309.51
   79.28        2957.25           2246          72.00       309.51
   79.31        2957.50           2250          83.00       357.46
   79.34        2957.75           2254          84.00       361.82
   79.37        2958.00           2257          79.00       340.02
   79.40        2958.25           2261          74.00       318.22
   79.43        2958.50           2264          76.00       326.94
   79.46        2958.75           2268          81.00       348.74
   79.49        2959.00           2271          89.00       383.61
   79.52        2959.25           2275          84.00       361.82
   79.55        2959.50           2278          92.00       396.69
   79.58        2959.75           2282          87.00       374.90
   79.61        2960.00           2285          88.00       379.26
   79.65        2960.25           2289          88.00       379.26
   79.68        2960.50           2293         107.00       462.08
   79.71        2960.75           2296         115.00       496.96
   79.74        2961.00           2300         124.00       536.19
   79.77        2961.25           2303         268.00      1163.95
   79.80        2961.50           2307         970.00      4224.67
   79.83        2961.75           2310        1736.00      7565.15
   79.86        2962.00           2314        2830.00     12337.35
   79.89        2962.25           2317        3851.00     16792.50
   79.92        2962.50           2321        4863.00     21209.71
   79.95        2962.75           2324        5912.00     25789.83
   79.98        2963.00           2328        6937.00     30266.53
   80.01        2963.25           2331        8027.00     35028.62
   80.04        2963.50           2335        9168.00     40015.18
   80.07        2963.75           2339       10712.00     46765.67
   80.10        2964.00           2342       11387.00     49717.80
   80.13        2964.25           2346       13202.00     57658.70
   80.17        2964.50           2349       13966.00     61002.60
   80.20        2964.75           2353       15494.00     67692.68
   80.23        2965.00           2356       16082.00     70267.94
   80.26        2965.25           2360       17618.00     76997.30
   80.29        2965.50           2363       18392.00     80389.43
   80.32        2965.75           2367       19898.00     86991.88
   80.35        2966.00           2370       20230.00     88447.80
   80.38        2966.25           2374       21768.00     95194.28
   80.41        2966.50           2378       21772.00     95211.83
   80.44        2966.75           2381       22294.00     97502.30
   80.47        2967.00           2385       22076.00     96545.69
   80.50        2967.25           2388       22473.00     98287.81
   80.53        2967.50           2392       22228.00     97212.68
   80.56        2967.75           2395       21974.00     96098.12
   80.59        2968.00           2399       21259.00     92961.19
   80.62        2968.25           2402       20596.00     90052.99
   80.65        2968.50           2406       19243.00     84119.93
   80.69        2968.75           2409       18558.00     81117.06
   80.72        2969.00           2413       16834.00     73562.15
   80.75        2969.25           2417       15727.00     68713.10
   80.78        2969.50           2420       14494.00     63314.00
   80.81        2969.75           2424       13270.00     57956.29
   80.84        2970.00           2427       12363.00     53987.42
   80.87        2970.25           2431       11075.00     48353.19
   80.90        2970.50           2434        9956.00     43459.99
   80.93        2970.75           2438        8753.00     38201.29
   80.96        2971.00           2441        7863.00     34312.02
   80.99        2971.25           2445        6541.00     28536.83
   81.02        2971.50           2449        5032.00     21947.50
   81.05        2971.75           2452        4185.00     18250.21
   81.08        2972.00           2456        3107.00     13545.91
   81.11        2972.25           2459        2212.00      9641.35
   81.14        2972.50           2463        1116.00      4861.31
   81.17        2972.75           2466         494.00      2149.24
   81.21        2973.00           2470         155.00       671.33
   81.24        2973.25           2473         121.00       523.11
   81.27        2973.50           2477         121.00       523.11
   81.30        2973.75           2481          92.00       396.69
   81.33        2974.00           2484          92.00       396.69
   81.36        2974.25           2488          95.00       409.77
   81.39        2974.50           2491          92.00       396.69
   81.42        2974.75           2495          86.00       370.54
   81.45        2975.00           2498          86.00       370.54
   81.48        2975.25           2502          86.00       370.54
   81.51        2975.50           2505          93.00       401.05
   81.54        2975.75           2509          84.00       361.82
   81.57        2976.00           2512          76.00       326.94
   81.60        2976.25           2516          86.00       370.54
   81.63        2976.50           2520          79.00       340.02
   81.66        2976.75           2523          73.00       313.87
   81.69        2977.00           2527          83.00       357.46
   81.72        2977.25           2530          78.00       335.66
   81.76        2977.50           2534          76.00       326.94
   81.79        2977.75           2537          73.00       313.87
   81.82        2978.00           2541          74.00       318.22
   81.85        2978.25           2544          72.00       309.51
   81.88        2978.50           2548          77.00       331.30
   81.91        2978.75           2552          69.00       296.43
   81.94        2979.00           2555          76.00       326.94
   81.97        2979.25           2559          77.00       331.30
   82.00        2979.50           2562          76.00       326.94
   82.03        2979.75           2566          76.00       326.94
   82.06        2980.00           2569          70.00       300.79
   82.09        2980.25           2573          73.00       313.87
   82.12        2980.50           2577          66.00       283.35
   82.15        2980.75           2580          60.00       257.19
   82.18        2981.00           2584          74.00       318.22
   82.21        2981.25           2587          65.00       278.99
   82.24        2981.50           2591          67.00       287.71
   82.28        2981.75           2594          70.00       300.79
   82.31        2982.00           2598          61.00       261.55
   82.34        2982.25           2601          64.00       274.63
   82.37        2982.50           2605          64.00       274.63
   82.40        2982.75           2609          70.00       300.79
   82.43        2983.00           2612          70.00       300.79
   82.46        2983.25           2616          59.00       252.84
   82.49        2983.50           2619          61.00       261.55
   82.52        2983.75           2623          62.00       265.91
   82.55        2984.00           2626          63.00       270.27
HS scan finished at 01:22:46
end
************************************************************
  HS Scan of (1) Internal mercury lamp
************************************************************
Integration time is 0.2294 seconds per sample
dh100418Reading 51.44 .94 3.33pr1000
************************************************************
Dead Time -------------------------  3.4E-08 
Number of Cycles Used -------------  4 
Starting Wavelength (Angstroms) ---  2950 
Final Wavelength (Angstoms) -------  2984 
Wavelength Increment (Angstroms) --  .25 
Filter Wheel #1 Position ---------- (1) Ground quartz diffuser (ND=2.32)
Filter Wheel #2 Position ---------- (1) Neutral Density 0.494



************************************************************
HS scan start time = 19:37:25
Dark Count =  1.6 


Time (GMT)  Wavelength (Ang)  Step Number  Raw Counts  Counts/Second

 1178.32        2950.00           2144          61.00       258.94
 1178.51        2950.25           2147          64.00       272.02
 1178.54        2950.50           2151          62.00       263.30
 1178.57        2950.75           2155          70.00       298.17
 1178.60        2951.00           2158          76.00       324.33
 1178.63        2951.25           2162          58.00       245.86
 1178.66        2951.50           2165          59.00       250.22
 1178.69        2951.75           2169          59.00       250.22
 1178.72        2952.00           2172          68.00       289.45
 1178.75        2952.25           2176          63.00       267.66
 1178.78        2952.50           2179          65.00       276.38
 1178.81        2952.75           2183          73.00       311.25
 1178.85        2953.00           2186          69.00       293.81
 1178.88        2953.25           2190          69.00       293.81
 1178.91        2953.50           2193          59.00       250.22
 1178.94        2953.75           2197          66.00       280.74
 1178.97        2954.00           2200          63.00       267.66
 1179.00        2954.25           2204          69.00       293.81
 1179.03        2954.50           2208          76.00       324.33
 1179.06        2954.75           2211          69.00       293.81
 1179.09        2955.00           2215          70.00       298.17
 1179.12        2955.25           2218          70.00       298.17
 1179.15        2955.50           2222          71.00       302.53
 1179.18        2955.75           2225          69.00       293.81
 1179.21        2956.00           2229          72.00       306.89
 1179.24        2956.25           2232          76.00       324.33
 1179.27        2956.50           2236          79.00       337.41
 1179.30        2956.75           2239          73.00       311.25
 1179.33        2957.00           2243          74.00       315.61
 1179.37        2957.25           2246          69.00       293.81
 1179.40        2957.50           2250          73.00       311.25
 1179.43        2957.75           2254          79.00       337.41
 1179.46        2958.00           2257          79.00       337.41
 1179.49        2958.25           2261          76.00       324.33
 1179.52        2958.50           2264          72.00       306.89
 1179.55        2958.75           2268          74.00       315.61
 1179.58        2959.00           2271          83.00       354.84
 1179.61        2959.25           2275          68.00       289.45
 1179.64        2959.50           2278          72.00       306.89
 1179.67        2959.75           2282          90.00       385.36
 1179.70        2960.00           2285          86.00       367.92
 1179.73        2960.25           2289          92.00       394.08
 1179.76        2960.50           2293          85.00       363.56
 1179.79        2960.75           2296         113.00       485.62
 1179.82        2961.00           2300         154.00       664.36
 1179.85        2961.25           2303         255.00      1104.66
 1179.89        2961.50           2307         865.00      3764.21
 1179.92        2961.75           2310        1653.00      7200.54
 1179.95        2962.00           2314        2774.00     12090.41
 1179.98        2962.25           2317        3571.00     15567.96
 1180.01        2962.50           2321        4889.00     21320.60
 1180.04        2962.75           2324        6168.00     26905.16
 1180.07        2963.00           2328        7390.00     32242.83
 1180.10        2963.25           2331        8414.00     36717.13
 1180.13        2963.50           2335        9652.00     42128.31
 1180.16        2963.75           2339       10929.00     47712.04
 1180.19        2964.00           2342       12059.00     52654.78
 1180.22        2964.25           2346       13509.00     58999.67
 1180.25        2964.50           2349       14266.00     62313.23
 1180.28        2964.75           2353       15616.00     68224.34
 1180.31        2965.00           2356       16621.00     72626.38
 1180.34        2965.25           2360       17877.00     78129.68
 1180.37        2965.50           2363       18936.00     82771.41
 1180.41        2965.75           2367       20267.00     88607.43
 1180.44        2966.00           2370       21014.00     91883.81
 1180.47        2966.25           2374       22121.00     96740.52
 1180.50        2966.50           2378       22809.00     99759.78
 1180.53        2966.75           2381       22888.00    100106.50
 1180.56        2967.00           2385       22771.00     99592.99
 1180.59        2967.25           2388       22698.00     99272.61
 1180.62        2967.50           2392       22578.00     98745.97
 1180.65        2967.75           2395       22400.00     97964.81
 1180.68        2968.00           2399       21419.00     93660.48
 1180.71        2968.25           2402       20496.00     89611.76
 1180.74        2968.50           2406       20372.00     89067.93
 1180.77        2968.75           2409       19615.00     85748.32
 1180.80        2969.00           2413       18358.00     80237.78
 1180.83        2969.25           2417       17017.00     74361.28
 1180.86        2969.50           2420       15973.00     69787.90
 1180.89        2969.75           2424       14600.00     63775.46
 1180.93        2970.00           2427       13409.00     58562.00
 1180.96        2970.25           2431       11948.00     52169.19
 1180.99        2970.50           2434       10992.00     47987.57
 1181.02        2970.75           2438        9461.00     41293.34
 1181.05        2971.00           2441        8444.00     36848.23
 1181.08        2971.25           2445        7000.00     30539.11
 1181.11        2971.50           2449        5618.00     24503.41
 1181.14        2971.75           2452        4467.00     19478.46
 1181.17        2972.00           2456        3139.00     13682.91
 1181.20        2972.25           2459        2200.00      9586.39
 1181.23        2972.50           2463        1139.00      4958.99
 1181.26        2972.75           2466         584.00      2539.02
 1181.29        2973.00           2470         182.00       786.42
 1181.32        2973.25           2473         124.00       533.58
 1181.35        2973.50           2477          96.00       411.51
 1181.38        2973.75           2481          99.00       424.59
 1181.41        2974.00           2484          98.00       420.23
 1181.45        2974.25           2488          87.00       372.28
 1181.48        2974.50           2491          94.00       402.80
 1181.51        2974.75           2495          91.00       389.72
 1181.54        2975.00           2498          85.00       363.56
 1181.57        2975.25           2502          80.00       341.77
 1181.60        2975.50           2505          92.00       394.08
 1181.63        2975.75           2509          83.00       354.84
 1181.66        2976.00           2512          77.00       328.69
 1181.69        2976.25           2516          72.00       306.89
 1181.72        2976.50           2520          84.00       359.20
 1181.75        2976.75           2523          78.00       333.05
 1181.78        2977.00           2527          75.00       319.97
 1181.81        2977.25           2530          76.00       324.33
 1181.84        2977.50           2534          69.00       293.81
 1181.87        2977.75           2537          79.00       337.41
 1181.90        2978.00           2541          82.00       350.48
 1181.93        2978.25           2544          71.00       302.53
 1181.97        2978.50           2548          75.00       319.97
 1182.00        2978.75           2552          68.00       289.45
 1182.03        2979.00           2555          74.00       315.61
 1182.06        2979.25           2559          70.00       298.17
 1182.09        2979.50           2562          74.00       315.61
 1182.12        2979.75           2566          67.00       285.09
 1182.15        2980.00           2569          69.00       293.81
 1182.18        2980.25           2573          65.00       276.38
 1182.21        2980.50           2577          65.00       276.38
 1182.24        2980.75           2580          71.00       302.53
 1182.27        2981.00           2584          64.00       272.02
 1182.30        2981.25           2587          70.00       298.17
 1182.33        2981.50           2591          68.00       289.45
 1182.36        2981.75           2594          70.00       298.17
 1182.39        2982.00           2598          64.00       272.02
 1182.42        2982.25           2601          65.00       276.38
 1182.45        2982.50           2605          64.00       272.02
 1182.48        2982.75           2609          58.00       245.86
 1182.52        2983.00           2612          58.00       245.86
 1182.55        2983.25           2616          66.00       280.74
 1182.58        2983.50           2619          69.00       293.81
 1182.61        2983.75           2623          68.00       289.45
 1182.64        2984.00           2626          63.00       267.66
HS scan finished at 19:42:52
end
