************************************************************
  HS Scan of (1) Internal mercury lamp
************************************************************
Integration time is 0.2294 seconds per sample
dh150419Reading 51.44 .94 2.62pr1000
************************************************************
Dead Time -------------------------  3.4E-08 
Number of Cycles Used -------------  4 
Starting Wavelength (Angstroms) ---  2950 
Final Wavelength (Angstoms) -------  2984 
Wavelength Increment (Angstroms) --  .25 
Filter Wheel #1 Position ---------- (1) Ground quartz diffuser (ND=2.32)
Filter Wheel #2 Position ---------- (1) Neutral Density 0.494



************************************************************
HS scan start time = 01:12:45
Dark Count =  .4 


Time (GMT)  Wavelength (Ang)  Step Number  Raw Counts  Counts/Second

   73.65        2950.00           2144        1744.00      7602.66
   73.85        2950.25           2147        1735.00      7563.41
   73.88        2950.50           2151        1725.00      7519.80
   73.91        2950.75           2155        1765.00      7694.25
   73.94        2951.00           2158        1756.00      7655.00
   73.97        2951.25           2162        1800.00      7846.91
   74.00        2951.50           2165        1777.00      7746.59
   74.03        2951.75           2169        1747.00      7615.75
   74.06        2952.00           2172        1750.00      7628.83
   74.09        2952.25           2176        1787.00      7790.21
   74.12        2952.50           2179        1762.00      7681.17
   74.15        2952.75           2183        1785.00      7781.48
   74.18        2953.00           2186        1803.00      7859.99
   74.21        2953.25           2190        1794.00      7820.74
   74.24        2953.50           2193        1795.00      7825.10
   74.28        2953.75           2197        1851.00      8069.35
   74.31        2954.00           2200        1837.00      8008.28
   74.34        2954.25           2204        1851.00      8069.35
   74.37        2954.50           2208        1890.00      8239.45
   74.40        2954.75           2211        1842.00      8030.09
   74.43        2955.00           2215        1841.00      8025.73
   74.46        2955.25           2218        1878.00      8187.11
   74.49        2955.50           2222        1926.00      8396.47
   74.52        2955.75           2225        1884.00      8213.28
   74.55        2956.00           2229        1911.00      8331.04
   74.58        2956.25           2232        1892.00      8248.17
   74.61        2956.50           2236        1916.00      8352.85
   74.64        2956.75           2239        1940.00      8457.53
   74.67        2957.00           2243        1947.00      8488.06
   74.71        2957.25           2246        1973.00      8601.47
   74.74        2957.50           2250        1955.00      8522.96
   74.77        2957.75           2254        1980.00      8632.00
   74.80        2958.00           2257        1996.00      8701.79
   74.83        2958.25           2261        2020.00      8806.47
   74.86        2958.50           2264        2033.00      8863.18
   74.89        2958.75           2268        2069.00      9020.20
   74.92        2959.00           2271        2091.00      9116.16
   74.95        2959.25           2275        2087.00      9098.72
   74.98        2959.50           2278        2082.00      9076.91
   75.01        2959.75           2282        2119.00      9238.30
   75.04        2960.00           2285        2172.00      9469.48
   75.07        2960.25           2289        2171.00      9465.12
   75.11        2960.50           2293        2257.00      9840.26
   75.14        2960.75           2296        2332.00     10167.42
   75.17        2961.00           2300        2408.00     10498.95
   75.20        2961.25           2303        2903.00     12658.46
   75.23        2961.50           2307        7814.00     34100.55
   75.26        2961.75           2310       18440.00     80602.46
   75.29        2962.00           2314       38381.00    168268.60
   75.32        2962.25           2317       54023.00    237403.80
   75.35        2962.50           2321       77666.00    342525.60
   75.38        2962.75           2324       95713.00    423278.20
   75.41        2963.00           2328      119782.00    531676.50
   75.44        2963.25           2331      138915.00    618423.80
   75.47        2963.50           2335      166147.00    742790.10
   75.50        2963.75           2339      193052.00    866718.20
   75.53        2964.00           2342      213203.00    960235.90
   75.56        2964.25           2346      237685.00   1074673.00
   75.59        2964.50           2349      258034.00   1170486.00
   75.63        2964.75           2353      281733.00   1282882.00
   75.66        2965.00           2356      300818.00   1374039.00
   75.69        2965.25           2360      324867.00   1489735.00
   75.72        2965.50           2363      342084.00   1573142.00
   75.75        2965.75           2367      365820.00   1688933.00
   75.78        2966.00           2370      383102.00   1773834.00
   75.81        2966.25           2374      402071.00   1867609.00
   75.84        2966.50           2378      421314.00   1963375.00
   75.87        2966.75           2381      430646.00   2010051.00
   75.90        2967.00           2385      432706.00   2020375.00
   75.93        2967.25           2388      433583.00   2024773.00
   75.96        2967.50           2392      433067.00   2022185.00
   75.99        2967.75           2395      432125.00   2017462.00
   76.02        2968.00           2399      428599.00   1999799.00
   76.05        2968.25           2402      419360.00   1953621.00
   76.08        2968.50           2406      399952.00   1857103.00
   76.11        2968.75           2409      382974.00   1773203.00
   76.14        2969.00           2413      358369.00   1652484.00
   76.18        2969.25           2417      334066.00   1534239.00
   76.21        2969.50           2420      314645.00   1440444.00
   76.24        2969.75           2424      288325.00   1314302.00
   76.27        2970.00           2427      271679.00   1235092.00
   76.30        2970.25           2431      245974.00   1113625.00
   76.33        2970.50           2434      226524.00   1022390.00
   76.36        2970.75           2438      198961.00    894078.50
   76.39        2971.00           2441      177561.00    795235.30
   76.42        2971.25           2445      151641.00    676409.90
   76.45        2971.50           2449      126960.00    564160.40
   76.48        2971.75           2452      108722.00    481766.10
   76.51        2972.00           2456       81396.00    359179.20
   76.54        2972.25           2459       60575.00    266459.80
   76.57        2972.50           2463       36056.00    158020.20
   76.60        2972.75           2466       20453.00     89428.43
   76.63        2973.00           2470        6944.00     30299.73
   76.66        2973.25           2473        3553.00     15494.65
   76.70        2973.50           2477        2496.00     10882.84
   76.73        2973.75           2481        2302.00     10036.56
   76.76        2974.00           2484        2277.00      9927.50
   76.79        2974.25           2488        2209.00      9630.88
   76.82        2974.50           2491        2148.00      9364.80
   76.85        2974.75           2495        2135.00      9308.09
   76.88        2975.00           2498        2166.00      9443.31
   76.91        2975.25           2502        2080.00      9068.18
   76.94        2975.50           2505        2071.00      9028.93
   76.97        2975.75           2509        2091.00      9116.16
   77.00        2976.00           2512        2007.00      8749.77
   77.03        2976.25           2516        1987.00      8662.53
   77.06        2976.50           2520        1983.00      8645.09
   77.09        2976.75           2523        1975.00      8610.19
   77.12        2977.00           2527        1910.00      8326.68
   77.16        2977.25           2530        1941.00      8461.89
   77.19        2977.50           2534        1905.00      8304.87
   77.22        2977.75           2537        1885.00      8217.64
   77.25        2978.00           2541        1859.00      8104.24
   77.28        2978.25           2544        1841.00      8025.73
   77.31        2978.50           2548        1772.00      7724.78
   77.34        2978.75           2552        1845.00      8043.18
   77.38        2979.00           2555        1764.00      7689.89
   77.41        2979.25           2559        1786.00      7785.84
   77.44        2979.50           2562        1790.00      7803.29
   77.47        2979.75           2566        1753.00      7641.92
   77.50        2980.00           2569        1748.00      7620.11
   77.53        2980.25           2573        1762.00      7681.17
   77.56        2980.50           2577        1754.00      7646.28
   77.59        2980.75           2580        1707.00      7441.29
   77.62        2981.00           2584        1713.00      7467.46
   77.65        2981.25           2587        1698.00      7402.04
   77.68        2981.50           2591        1702.00      7419.48
   77.71        2981.75           2594        1702.00      7419.48
   77.74        2982.00           2598        1694.00      7384.59
   77.77        2982.25           2601        1655.00      7214.50
   77.80        2982.50           2605        1691.00      7371.51
   77.83        2982.75           2609        1676.00      7306.09
   77.86        2983.00           2612        1697.00      7397.68
   77.90        2983.25           2616        1702.00      7419.48
   77.93        2983.50           2619        1667.00      7266.84
   77.96        2983.75           2623        1630.00      7105.47
   77.99        2984.00           2626        1652.00      7201.41
HS scan finished at 01:18:13
end
************************************************************
  HS Scan of (1) Internal mercury lamp
************************************************************
Integration time is 0.2294 seconds per sample
dh150419Reading 51.44 .94 3.09pr1000
************************************************************
Dead Time -------------------------  3.4E-08 
Number of Cycles Used -------------  4 
Starting Wavelength (Angstroms) ---  2950 
Final Wavelength (Angstoms) -------  2984 
Wavelength Increment (Angstroms) --  .25 
Filter Wheel #1 Position ---------- (1) Ground quartz diffuser (ND=2.32)
Filter Wheel #2 Position ---------- (1) Neutral Density 0.494



************************************************************
HS scan start time = 20:07:17
Dark Count =  1.3 


Time (GMT)  Wavelength (Ang)  Step Number  Raw Counts  Counts/Second

 1208.18        2950.00           2144        1262.00      5496.67
 1208.38        2950.25           2147        1265.00      5509.75
 1208.41        2950.50           2151        1239.00      5396.37
 1208.44        2950.75           2155        1244.00      5418.17
 1208.47        2951.00           2158        1223.00      5326.60
 1208.50        2951.25           2162        1251.00      5448.70
 1208.53        2951.50           2165        1291.00      5623.13
 1208.56        2951.75           2169        1287.00      5605.69
 1208.59        2952.00           2172        1236.00      5383.29
 1208.62        2952.25           2176        1284.00      5592.61
 1208.66        2952.50           2179        1269.00      5527.19
 1208.69        2952.75           2183        1306.00      5688.55
 1208.72        2953.00           2186        1290.00      5618.77
 1208.75        2953.25           2190        1318.00      5740.88
 1208.78        2953.50           2193        1298.00      5653.66
 1208.81        2953.75           2197        1318.00      5740.88
 1208.84        2954.00           2200        1277.00      5562.08
 1208.87        2954.25           2204        1307.00      5692.91
 1208.90        2954.50           2208        1346.00      5862.98
 1208.93        2954.75           2211        1302.00      5671.10
 1208.96        2955.00           2215        1317.00      5736.52
 1208.99        2955.25           2218        1331.00      5797.57
 1209.02        2955.50           2222        1386.00      6037.42
 1209.05        2955.75           2225        1328.00      5784.49
 1209.08        2956.00           2229        1370.00      5967.64
 1209.11        2956.25           2232        1360.00      5924.04
 1209.14        2956.50           2236        1374.00      5985.09
 1209.18        2956.75           2239        1386.00      6037.42
 1209.21        2957.00           2243        1399.00      6094.11
 1209.24        2957.25           2246        1373.00      5980.73
 1209.27        2957.50           2250        1430.00      6229.31
 1209.30        2957.75           2254        1434.00      6246.75
 1209.33        2958.00           2257        1421.00      6190.06
 1209.36        2958.25           2261        1453.00      6329.61
 1209.39        2958.50           2264        1462.00      6368.86
 1209.42        2958.75           2268        1507.00      6565.11
 1209.45        2959.00           2271        1540.00      6709.03
 1209.48        2959.25           2275        1541.00      6713.39
 1209.51        2959.50           2278        1543.00      6722.11
 1209.54        2959.75           2282        1583.00      6896.56
 1209.57        2960.00           2285        1550.00      6752.64
 1209.60        2960.25           2289        1635.00      7123.35
 1209.63        2960.50           2293        1649.00      7184.41
 1209.66        2960.75           2296        1665.00      7254.19
 1209.70        2961.00           2300        1819.00      7925.85
 1209.73        2961.25           2303        2022.00      8811.27
 1209.76        2961.50           2307        4389.00     19139.31
 1209.79        2961.75           2310       10915.00     47652.12
 1209.82        2962.00           2314       25547.00    111782.80
 1209.85        2962.25           2317       40574.00    177937.70
 1209.88        2962.50           2321       62532.00    275145.70
 1209.91        2962.75           2324       78364.00    345636.50
 1209.94        2963.00           2328       97782.00    432560.60
 1209.97        2963.25           2331      114070.00    505874.60
 1210.00        2963.50           2335      135710.00    603852.40
 1210.03        2963.75           2339      157977.00    705362.40
 1210.06        2964.00           2342      174521.00    781244.40
 1210.09        2964.25           2346      196213.00    881344.00
 1210.12        2964.50           2349      212417.00    956572.80
 1210.15        2964.75           2353      233824.00   1056561.00
 1210.18        2965.00           2356      249321.00   1129379.00
 1210.22        2965.25           2360      268513.00   1220072.00
 1210.25        2965.50           2363      282023.00   1284259.00
 1210.28        2965.75           2367      301654.00   1378041.00
 1210.31        2966.00           2370      317047.00   1452007.00
 1210.34        2966.25           2374      335872.00   1542988.00
 1210.37        2966.50           2378      349786.00   1610607.00
 1210.40        2966.75           2381      354252.00   1632379.00
 1210.43        2967.00           2385      355887.00   1640358.00
 1210.46        2967.25           2388      357497.00   1648219.00
 1210.49        2967.50           2392      356693.00   1644293.00
 1210.52        2967.75           2395      356668.00   1644171.00
 1210.55        2968.00           2399      352823.00   1625409.00
 1210.58        2968.25           2402      345383.00   1589175.00
 1210.61        2968.50           2406      330430.00   1516627.00
 1210.64        2968.75           2409      315850.00   1446242.00
 1210.67        2969.00           2413      297198.00   1356699.00
 1210.70        2969.25           2417      278058.00   1265391.00
 1210.74        2969.50           2420      264141.00   1199361.00
 1210.77        2969.75           2424      244192.00   1105238.00
 1210.80        2970.00           2427      228652.00   1032340.00
 1210.83        2970.25           2431      206634.00    929679.70
 1210.86        2970.50           2434      190753.00    856083.10
 1210.89        2970.75           2438      169520.00    758264.60
 1210.92        2971.00           2441      152057.00    678305.30
 1210.95        2971.25           2445      130047.00    578148.80
 1210.98        2971.50           2449      108135.00    479117.90
 1211.01        2971.75           2452       92486.00    408801.90
 1211.04        2972.00           2456       72607.00    319964.60
 1211.07        2972.25           2459       58007.00    255060.70
 1211.10        2972.50           2463       37230.00    163190.20
 1211.13        2972.75           2466       22329.00     97654.56
 1211.16        2973.00           2470        7666.00     33449.97
 1211.19        2973.25           2473        3322.00     14482.72
 1211.22        2973.50           2477        2009.00      8754.57
 1211.26        2973.75           2481        1731.00      7542.04
 1211.29        2974.00           2484        1727.00      7524.59
 1211.32        2974.25           2488        1654.00      7206.21
 1211.35        2974.50           2491        1614.00      7031.76
 1211.38        2974.75           2495        1596.00      6953.26
 1211.41        2975.00           2498        1587.00      6914.01
 1211.44        2975.25           2502        1548.00      6743.92
 1211.47        2975.50           2505        1513.00      6591.28
 1211.50        2975.75           2509        1525.00      6643.61
 1211.53        2976.00           2512        1526.00      6647.97
 1211.56        2976.25           2516        1449.00      6312.17
 1211.59        2976.50           2520        1439.00      6268.55
 1211.62        2976.75           2523        1439.00      6268.55
 1211.65        2977.00           2527        1453.00      6329.61
 1211.68        2977.25           2530        1426.00      6211.86
 1211.71        2977.50           2534        1382.00      6019.98
 1211.74        2977.75           2537        1409.00      6137.72
 1211.77        2978.00           2541        1352.00      5889.15
 1211.81        2978.25           2544        1339.00      5832.46
 1211.84        2978.50           2548        1362.00      5932.76
 1211.87        2978.75           2552        1380.00      6011.25
 1211.90        2979.00           2555        1317.00      5736.52
 1211.93        2979.25           2559        1320.00      5749.60
 1211.96        2979.50           2562        1322.00      5758.32
 1211.99        2979.75           2566        1286.00      5601.33
 1212.02        2980.00           2569        1270.00      5531.55
 1212.05        2980.25           2573        1264.00      5505.39
 1212.08        2980.50           2577        1259.00      5483.59
 1212.11        2980.75           2580        1262.00      5496.67
 1212.14        2981.00           2584        1234.00      5374.57
 1212.17        2981.25           2587        1230.00      5357.12
 1212.20        2981.50           2591        1234.00      5374.57
 1212.23        2981.75           2594        1220.00      5313.51
 1212.26        2982.00           2598        1240.00      5400.73
 1212.29        2982.25           2601        1217.00      5300.43
 1212.33        2982.50           2605        1258.00      5479.22
 1212.36        2982.75           2609        1207.00      5256.82
 1212.39        2983.00           2612        1207.00      5256.82
 1212.42        2983.25           2616        1209.00      5265.55
 1212.45        2983.50           2619        1196.00      5208.86
 1212.48        2983.75           2623        1192.00      5191.41
 1212.51        2984.00           2626        1197.00      5213.22
HS scan finished at 20:12:44
end
