************************************************************
  HS Scan of 
************************************************************
Integration time is 0.2294 seconds per sample
dh110417Reading 51.44 .94 3pr1000
************************************************************
Dead Time -------------------------  3.4E-08 
Number of Cycles Used -------------  4 
Starting Wavelength (Angstroms) ---  2950 
Final Wavelength (Angstoms) -------  2984 
Wavelength Increment (Angstroms) --  .25 
Filter Wheel #1 Position ---------- (1) Ground quartz diffuser (ND=2.32)
Filter Wheel #2 Position ---------- (1) Neutral Density 0.494



************************************************************
HS scan start time = 02:36:45
Dark Count =  .7 


Time (GMT)  Wavelength (Ang)  Step Number  Raw Counts  Counts/Second

  157.64        2950.00           2144         805.00      3506.52
  157.84        2950.25           2147         781.00      3401.88
  157.87        2950.50           2151         774.00      3371.35
  157.90        2950.75           2155         770.00      3353.91
  157.93        2951.00           2158         792.00      3449.84
  157.96        2951.25           2162         795.00      3462.92
  157.99        2951.50           2165         783.00      3410.60
  158.02        2951.75           2169         806.00      3510.88
  158.05        2952.00           2172         811.00      3532.68
  158.08        2952.25           2176         829.00      3611.17
  158.11        2952.50           2179         806.00      3510.88
  158.14        2952.75           2183         801.00      3489.08
  158.17        2953.00           2186         800.00      3484.72
  158.21        2953.25           2190         800.00      3484.72
  158.24        2953.50           2193         774.00      3371.35
  158.27        2953.75           2197         826.00      3598.09
  158.30        2954.00           2200         842.00      3667.85
  158.33        2954.25           2204         833.00      3628.61
  158.36        2954.50           2208         861.00      3750.70
  158.39        2954.75           2211         798.00      3476.00
  158.42        2955.00           2215         878.00      3824.82
  158.45        2955.25           2218         823.00      3585.01
  158.48        2955.50           2222         838.00      3650.41
  158.51        2955.75           2225         838.00      3650.41
  158.54        2956.00           2229         881.00      3837.90
  158.57        2956.25           2232         917.00      3994.88
  158.60        2956.50           2236         882.00      3842.26
  158.63        2956.75           2239         896.00      3903.31
  158.66        2957.00           2243         913.00      3977.43
  158.69        2957.25           2246         912.00      3973.07
  158.73        2957.50           2250         918.00      3999.24
  158.76        2957.75           2254         966.00      4208.54
  158.79        2958.00           2257         940.00      4095.16
  158.82        2958.25           2261         955.00      4160.57
  158.85        2958.50           2264         951.00      4143.13
  158.88        2958.75           2268         981.00      4273.94
  158.91        2959.00           2271         972.00      4234.70
  158.94        2959.25           2275         973.00      4239.06
  158.97        2959.50           2278        1004.00      4374.23
  159.00        2959.75           2282        1038.00      4522.49
  159.03        2960.00           2285        1072.00      4670.75
  159.06        2960.25           2289        1074.00      4679.47
  159.09        2960.50           2293        1093.00      4762.32
  159.12        2960.75           2296        1156.00      5037.04
  159.15        2961.00           2300        1297.00      5651.91
  159.18        2961.25           2303        2053.00      8949.10
  159.21        2961.50           2307        8013.00     34968.75
  159.24        2961.75           2310       16650.00     72757.36
  159.28        2962.00           2314       29487.00    129102.10
  159.31        2962.25           2317       40265.00    176577.00
  159.34        2962.50           2321       54767.00    240699.00
  159.37        2962.75           2324       65358.00    287706.00
  159.40        2963.00           2328       81843.00    361174.90
  159.43        2963.25           2331       94968.00    419934.40
  159.46        2963.50           2335      110117.00    488050.50
  159.49        2963.75           2339      124422.00    552665.00
  159.53        2964.00           2342      135096.00    601066.00
  159.56        2964.25           2346      151696.00    676659.60
  159.59        2964.50           2349      163397.00    730181.30
  159.62        2964.75           2353      178903.00    801412.70
  159.65        2965.00           2356      189508.00    850332.00
  159.68        2965.25           2360      202309.00    909602.10
  159.71        2965.50           2363      213542.00    961812.90
  159.74        2965.75           2367      228414.00   1031229.00
  159.77        2966.00           2370      238359.00   1077835.00
  159.80        2966.25           2374      252405.00   1143917.00
  159.83        2966.50           2378      260379.00   1181567.00
  159.86        2966.75           2381      262205.00   1190203.00
  159.89        2967.00           2385      263093.00   1194404.00
  159.92        2967.25           2388      262528.00   1191731.00
  159.95        2967.50           2392      262992.00   1193926.00
  159.99        2967.75           2395      262438.00   1191305.00
  160.02        2968.00           2399      258322.00   1171845.00
  160.05        2968.25           2402      249757.00   1131436.00
  160.08        2968.50           2406      235957.00   1066565.00
  160.11        2968.75           2409      225352.00   1016910.00
  160.14        2969.00           2413      210854.00    949302.00
  160.17        2969.25           2417      197209.00    885959.40
  160.20        2969.50           2420      186603.00    836915.30
  160.23        2969.75           2424      169499.00    758170.90
  160.26        2970.00           2427      156153.00    697023.20
  160.29        2970.25           2431      139879.00    622806.70
  160.32        2970.50           2434      128302.00    570240.20
  160.35        2970.75           2438      111325.00    493495.90
  160.38        2971.00           2441       99692.00    441141.30
  160.41        2971.25           2445       84306.00    372183.50
  160.44        2971.50           2449       67221.00    295990.40
  160.47        2971.75           2452       55991.00    246123.80
  160.51        2972.00           2456       41075.00    180151.10
  160.54        2972.25           2459       30665.00    134283.50
  160.57        2972.50           2463       17167.00     75022.43
  160.60        2972.75           2466        8582.00     37455.26
  160.63        2973.00           2470        2672.00     11649.34
  160.66        2973.25           2473        1449.00      6314.78
  160.69        2973.50           2477        1194.00      5202.75
  160.72        2973.75           2481        1145.00      4989.08
  160.75        2974.00           2484        1120.00      4880.06
  160.78        2974.25           2488        1097.00      4779.77
  160.81        2974.50           2491        1093.00      4762.32
  160.84        2974.75           2495        1023.00      4457.08
  160.87        2975.00           2498        1032.00      4496.33
  160.90        2975.25           2502         997.00      4343.71
  160.93        2975.50           2505        1014.00      4417.84
  160.96        2975.75           2509        1000.00      4356.79
  160.99        2976.00           2512        1014.00      4417.84
  161.03        2976.25           2516         938.00      4086.44
  161.06        2976.50           2520         988.00      4304.47
  161.09        2976.75           2523         936.00      4077.72
  161.12        2977.00           2527         958.00      4173.65
  161.15        2977.25           2530         911.00      3968.71
  161.18        2977.50           2534         920.00      4007.96
  161.21        2977.75           2537         894.00      3894.59
  161.24        2978.00           2541         896.00      3903.31
  161.27        2978.25           2544         908.00      3955.63
  161.31        2978.50           2548         881.00      3837.90
  161.34        2978.75           2552         839.00      3654.77
  161.37        2979.00           2555         864.00      3763.78
  161.40        2979.25           2559         875.00      3811.74
  161.43        2979.50           2562         827.00      3602.45
  161.46        2979.75           2566         842.00      3667.85
  161.49        2980.00           2569         828.00      3606.81
  161.52        2980.25           2573         874.00      3807.38
  161.55        2980.50           2577         863.00      3759.42
  161.58        2980.75           2580         834.00      3632.97
  161.61        2981.00           2584         796.00      3467.28
  161.64        2981.25           2587         818.00      3563.20
  161.67        2981.50           2591         833.00      3628.61
  161.70        2981.75           2594         810.00      3528.32
  161.74        2982.00           2598         796.00      3467.28
  161.77        2982.25           2601         792.00      3449.84
  161.80        2982.50           2605         783.00      3410.60
  161.83        2982.75           2609         805.00      3506.52
  161.86        2983.00           2612         804.00      3502.16
  161.89        2983.25           2616         781.00      3401.88
  161.92        2983.50           2619         778.00      3388.80
  161.95        2983.75           2623         747.00      3253.63
  161.98        2984.00           2626         784.00      3414.96
HS scan finished at 02:42:12
end
************************************************************
  HS Scan of 
************************************************************
Integration time is 0.2294 seconds per sample
dh110417Reading 51.44 .94 3.31pr1000
************************************************************
Dead Time -------------------------  3.4E-08 
Number of Cycles Used -------------  4 
Starting Wavelength (Angstroms) ---  2950 
Final Wavelength (Angstoms) -------  2984 
Wavelength Increment (Angstroms) --  .25 
Filter Wheel #1 Position ---------- (1) Ground quartz diffuser (ND=2.32)
Filter Wheel #2 Position ---------- (1) Neutral Density 0.494



************************************************************
HS scan start time = 19:37:24
Dark Count =  1.7 


Time (GMT)  Wavelength (Ang)  Step Number  Raw Counts  Counts/Second

 1178.29        2950.00           2144         646.00      2808.90
 1178.49        2950.25           2147         642.00      2791.46
 1178.52        2950.50           2151         676.00      2939.70
 1178.55        2950.75           2155         661.00      2874.30
 1178.58        2951.00           2158         665.00      2891.74
 1178.61        2951.25           2162         661.00      2874.30
 1178.64        2951.50           2165         660.00      2869.94
 1178.67        2951.75           2169         671.00      2917.90
 1178.70        2952.00           2172         671.00      2917.90
 1178.73        2952.25           2176         670.00      2913.54
 1178.76        2952.50           2179         674.00      2930.98
 1178.79        2952.75           2183         694.00      3018.18
 1178.82        2953.00           2186         661.00      2874.30
 1178.85        2953.25           2190         666.00      2896.10
 1178.88        2953.50           2193         676.00      2939.70
 1178.92        2953.75           2197         669.00      2909.18
 1178.95        2954.00           2200         684.00      2974.58
 1178.98        2954.25           2204         687.00      2987.66
 1179.01        2954.50           2208         681.00      2961.50
 1179.04        2954.75           2211         708.00      3079.22
 1179.07        2955.00           2215         696.00      3026.90
 1179.10        2955.25           2218         714.00      3105.38
 1179.13        2955.50           2222         680.00      2957.14
 1179.16        2955.75           2225         721.00      3135.91
 1179.19        2956.00           2229         736.00      3201.31
 1179.22        2956.25           2232         749.00      3257.99
 1179.25        2956.50           2236         708.00      3079.22
 1179.28        2956.75           2239         742.00      3227.47
 1179.31        2957.00           2243         789.00      3432.40
 1179.34        2957.25           2246         754.00      3279.79
 1179.37        2957.50           2250         777.00      3380.07
 1179.40        2957.75           2254         774.00      3366.99
 1179.44        2958.00           2257         774.00      3366.99
 1179.47        2958.25           2261         775.00      3371.35
 1179.50        2958.50           2264         800.00      3480.36
 1179.53        2958.75           2268         792.00      3445.48
 1179.56        2959.00           2271         806.00      3506.52
 1179.59        2959.25           2275         867.00      3772.50
 1179.62        2959.50           2278         830.00      3611.17
 1179.65        2959.75           2282         877.00      3816.10
 1179.68        2960.00           2285         862.00      3750.70
 1179.71        2960.25           2289         889.00      3868.42
 1179.74        2960.50           2293         915.00      3981.79
 1179.77        2960.75           2296         933.00      4060.28
 1179.80        2961.00           2300         984.00      4282.66
 1179.83        2961.25           2303        1320.00      5747.85
 1179.86        2961.50           2307        4464.00     19464.93
 1179.89        2961.75           2310       10151.00     44309.51
 1179.92        2962.00           2314       19954.00     87234.38
 1179.95        2962.25           2317       29477.00    129053.70
 1179.99        2962.50           2321       41913.00    183845.20
 1180.02        2962.75           2324       51739.00    227282.70
 1180.05        2963.00           2328       64782.00    285141.20
 1180.08        2963.25           2331       74909.00    330222.60
 1180.11        2963.50           2335       88920.00    392824.20
 1180.14        2963.75           2339      101802.00    450619.00
 1180.17        2964.00           2342      111638.00    494902.70
 1180.20        2964.25           2346      124341.00    552293.80
 1180.23        2964.50           2349      133943.00    595825.50
 1180.26        2964.75           2353      148022.00    659890.50
 1180.29        2965.00           2356      158412.00    707350.70
 1180.32        2965.25           2360      170800.00    764140.90
 1180.35        2965.50           2363      179838.00    805714.40
 1180.38        2965.75           2367      190258.00    853793.40
 1180.41        2966.00           2370      200473.00    901081.70
 1180.44        2966.25           2374      212584.00    957348.10
 1180.47        2966.50           2378      219045.00    987455.10
 1180.51        2966.75           2381      219629.00    990179.40
 1180.54        2967.00           2385      220723.00    995284.40
 1180.57        2967.25           2388      220533.00    994397.70
 1180.60        2967.50           2392      220371.00    993641.70
 1180.63        2967.75           2395      219014.00    987310.50
 1180.66        2968.00           2399      212793.00    958321.10
 1180.69        2968.25           2402      205286.00    923416.20
 1180.72        2968.50           2406      192910.00    866055.40
 1180.75        2968.75           2409      184234.00    825978.60
 1180.78        2969.00           2413      172185.00    770504.00
 1180.81        2969.25           2417      160408.00    716485.90
 1180.84        2969.50           2420      152387.00    679810.40
 1180.87        2969.75           2424      139535.00    621237.50
 1180.90        2970.00           2427      128936.00    573109.50
 1180.93        2970.25           2431      114837.00    509334.20
 1180.96        2970.50           2434      105590.00    467657.40
 1180.99        2970.75           2438       93243.00    412193.80
 1181.03        2971.00           2441       83590.00    368978.00
 1181.06        2971.25           2445       70117.00    308873.20
 1181.09        2971.50           2449       56340.00    247666.60
 1181.12        2971.75           2452       45836.00    201172.10
 1181.15        2972.00           2456       34039.00    149129.60
 1181.18        2972.25           2459       25400.00    111135.40
 1181.21        2972.50           2463       13394.00     58495.91
 1181.24        2972.75           2466        6552.00     28581.82
 1181.27        2973.00           2470        2064.00      8992.72
 1181.30        2973.25           2473        1239.00      5394.63
 1181.33        2973.50           2477        1013.00      4409.12
 1181.36        2973.75           2481         914.00      3977.43
 1181.39        2974.00           2484         924.00      4021.04
 1181.42        2974.25           2488         917.00      3990.52
 1181.46        2974.50           2491         898.00      3907.67
 1181.49        2974.75           2495         858.00      3733.26
 1181.52        2975.00           2498         888.00      3864.06
 1181.55        2975.25           2502         858.00      3733.26
 1181.58        2975.50           2505         844.00      3672.21
 1181.62        2975.75           2509         814.00      3541.40
 1181.65        2976.00           2512         833.00      3624.25
 1181.68        2976.25           2516         816.00      3550.12
 1181.71        2976.50           2520         785.00      3414.96
 1181.74        2976.75           2523         796.00      3462.92
 1181.77        2977.00           2527         801.00      3484.72
 1181.80        2977.25           2530         800.00      3480.36
 1181.84        2977.50           2534         785.00      3414.96
 1181.87        2977.75           2537         760.00      3305.95
 1181.90        2978.00           2541         736.00      3201.31
 1181.93        2978.25           2544         763.00      3319.03
 1181.96        2978.50           2548         719.00      3127.19
 1181.99        2978.75           2552         721.00      3135.91
 1182.02        2979.00           2555         743.00      3231.83
 1182.05        2979.25           2559         698.00      3035.62
 1182.08        2979.50           2562         721.00      3135.91
 1182.11        2979.75           2566         701.00      3048.70
 1182.14        2980.00           2569         707.00      3074.86
 1182.17        2980.25           2573         678.00      2948.42
 1182.20        2980.50           2577         705.00      3066.14
 1182.23        2980.75           2580         697.00      3031.26
 1182.26        2981.00           2584         691.00      3005.10
 1182.29        2981.25           2587         679.00      2952.78
 1182.33        2981.50           2591         676.00      2939.70
 1182.36        2981.75           2594         674.00      2930.98
 1182.39        2982.00           2598         661.00      2874.30
 1182.42        2982.25           2601         689.00      2996.38
 1182.45        2982.50           2605         677.00      2944.06
 1182.48        2982.75           2609         674.00      2930.98
 1182.51        2983.00           2612         654.00      2843.78
 1182.54        2983.25           2616         675.00      2935.34
 1182.57        2983.50           2619         625.00      2717.34
 1182.60        2983.75           2623         687.00      2987.66
 1182.63        2984.00           2626         641.00      2787.10
HS scan finished at 19:42:51
end
