************************************************************
  HS Scan of (1) Internal mercury lamp
************************************************************
Integration time is 0.2294 seconds per sample
dh160419Reading 51.44 .94 3.03pr1000
************************************************************
Dead Time -------------------------  3.4E-08 
Number of Cycles Used -------------  4 
Starting Wavelength (Angstroms) ---  2950 
Final Wavelength (Angstoms) -------  2984 
Wavelength Increment (Angstroms) --  .25 
Filter Wheel #1 Position ---------- (1) Ground quartz diffuser (ND=2.32)
Filter Wheel #2 Position ---------- (1) Neutral Density 0.494



************************************************************
HS scan start time = 01:16:01
Dark Count =  .8 


Time (GMT)  Wavelength (Ang)  Step Number  Raw Counts  Counts/Second

   76.91        2950.00           2144        1651.00      7195.31
   77.10        2950.25           2147        1677.00      7308.70
   77.14        2950.50           2151        1683.00      7334.87
   77.17        2950.75           2155        1644.00      7164.78
   77.20        2951.00           2158        1654.00      7208.39
   77.23        2951.25           2162        1631.00      7108.08
   77.26        2951.50           2165        1654.00      7208.39
   77.29        2951.75           2169        1683.00      7334.87
   77.32        2952.00           2172        1720.00      7496.24
   77.35        2952.25           2176        1680.00      7321.79
   77.38        2952.50           2179        1691.00      7369.76
   77.41        2952.75           2183        1663.00      7247.64
   77.44        2953.00           2186        1723.00      7509.33
   77.47        2953.25           2190        1692.00      7374.12
   77.50        2953.50           2193        1755.00      7648.89
   77.53        2953.75           2197        1682.00      7330.51
   77.56        2954.00           2200        1726.00      7522.41
   77.59        2954.25           2204        1756.00      7653.26
   77.63        2954.50           2208        1776.00      7740.49
   77.66        2954.75           2211        1771.00      7718.68
   77.69        2955.00           2215        1806.00      7871.33
   77.72        2955.25           2218        1761.00      7675.06
   77.75        2955.50           2222        1770.00      7714.32
   77.78        2955.75           2225        1779.00      7753.57
   77.81        2956.00           2229        1798.00      7836.44
   77.84        2956.25           2232        1858.00      8098.13
   77.87        2956.50           2236        1849.00      8058.88
   77.90        2956.75           2239        1862.00      8115.58
   77.93        2957.00           2243        1862.00      8115.58
   77.96        2957.25           2246        1861.00      8111.22
   77.99        2957.50           2250        1907.00      8311.85
   78.02        2957.75           2254        1916.00      8351.11
   78.05        2958.00           2257        1930.00      8412.17
   78.08        2958.25           2261        1953.00      8512.49
   78.11        2958.50           2264        1936.00      8438.34
   78.15        2958.75           2268        1998.00      8708.77
   78.18        2959.00           2271        2003.00      8730.58
   78.21        2959.25           2275        1988.00      8665.15
   78.24        2959.50           2278        2078.00      9057.72
   78.27        2959.75           2282        2136.00      9310.71
   78.30        2960.00           2285        2097.00      9140.59
   78.33        2960.25           2289        2153.00      9384.86
   78.36        2960.50           2293        2246.00      9790.53
   78.39        2960.75           2296        2263.00      9864.69
   78.42        2961.00           2300        2481.00     10815.66
   78.45        2961.25           2303        3393.00     14794.71
   78.48        2961.50           2307       10741.00     46893.37
   78.51        2961.75           2310       24051.00    105215.30
   78.54        2962.00           2314       46148.00    202555.00
   78.57        2962.25           2317       63640.00    280070.20
   78.60        2962.50           2321       89074.00    393517.80
   78.63        2962.75           2324      109766.00    486468.30
   78.67        2963.00           2328      138769.00    617758.00
   78.70        2963.25           2331      162398.00    725603.60
   78.73        2963.50           2335      192936.00    866179.90
   78.76        2963.75           2339      217980.00    982492.20
   78.79        2964.00           2342      237698.00   1074732.00
   78.82        2964.25           2346      268129.00   1218254.00
   78.85        2964.50           2349      289853.00   1321593.00
   78.88        2964.75           2353      317390.00   1453662.00
   78.91        2965.00           2356      336677.00   1546894.00
   78.94        2965.25           2360      361216.00   1666398.00
   78.97        2965.50           2363      379178.00   1754510.00
   79.00        2965.75           2367      404822.00   1881259.00
   79.03        2966.00           2370      424763.00   1980606.00
   79.06        2966.25           2374      447569.00   2095086.00
   79.09        2966.50           2378      465158.00   2184015.00
   79.12        2966.75           2381      470023.00   2208711.00
   79.15        2967.00           2385      472725.00   2222445.00
   79.19        2967.25           2388      472539.00   2221499.00
   79.22        2967.50           2392      473438.00   2226072.00
   79.25        2967.75           2395      473199.00   2224856.00
   79.28        2968.00           2399      467131.00   2194025.00
   79.31        2968.25           2402      455413.00   2134676.00
   79.34        2968.50           2406      431720.00   2015431.00
   79.37        2968.75           2409      413740.00   1925603.00
   79.40        2969.00           2413      390053.00   1808124.00
   79.43        2969.25           2417      366746.00   1693467.00
   79.46        2969.50           2420      347258.00   1598300.00
   79.49        2969.75           2424      317806.00   1455667.00
   79.52        2970.00           2427      295357.00   1347894.00
   79.55        2970.25           2431      266417.00   1210142.00
   79.58        2970.50           2434      245024.00   1109153.00
   79.61        2970.75           2438      215748.00    972088.00
   79.64        2971.00           2441      194591.00    873837.50
   79.67        2971.25           2445      166132.00    742719.50
   79.70        2971.50           2449      133310.00    592955.80
   79.74        2971.75           2452      110417.00    489402.20
   79.77        2972.00           2456       81714.00    360598.10
   79.80        2972.25           2459       61611.00    271057.60
   79.83        2972.50           2463       37643.00    165013.00
   79.86        2972.75           2466       21078.00     92168.06
   79.89        2973.00           2470        7157.00     31228.43
   79.92        2973.25           2473        3516.00     15331.44
   79.95        2973.50           2477        2436.00     10619.35
   79.98        2973.75           2481        2275.00      9917.03
   80.01        2974.00           2484        2278.00      9930.12
   80.04        2974.25           2488        2191.00      9550.62
   80.07        2974.50           2491        2153.00      9384.86
   80.10        2974.75           2495        2066.00      9005.37
   80.13        2975.00           2498        2068.00      9014.10
   80.16        2975.25           2502        2033.00      8861.43
   80.19        2975.50           2505        1974.00      8604.09
   80.22        2975.75           2509        1987.00      8660.79
   80.26        2976.00           2512        1989.00      8669.51
   80.29        2976.25           2516        1923.00      8381.64
   80.32        2976.50           2520        1908.00      8316.21
   80.35        2976.75           2523        1929.00      8407.81
   80.38        2977.00           2527        1916.00      8351.11
   80.41        2977.25           2530        1846.00      8045.79
   80.44        2977.50           2534        1869.00      8146.11
   80.47        2977.75           2537        1843.00      8032.71
   80.50        2978.00           2541        1842.00      8028.35
   80.53        2978.25           2544        1796.00      7827.72
   80.56        2978.50           2548        1771.00      7718.68
   80.59        2978.75           2552        1741.00      7587.83
   80.62        2979.00           2555        1760.00      7670.70
   80.65        2979.25           2559        1759.00      7666.34
   80.68        2979.50           2562        1713.00      7465.71
   80.71        2979.75           2566        1700.00      7409.01
   80.74        2980.00           2569        1745.00      7605.28
   80.78        2980.25           2573        1685.00      7343.59
   80.81        2980.50           2577        1684.00      7339.23
   80.84        2980.75           2580        1662.00      7243.28
   80.87        2981.00           2584        1644.00      7164.78
   80.90        2981.25           2587        1690.00      7365.40
   80.93        2981.50           2591        1648.00      7182.22
   80.96        2981.75           2594        1603.00      6985.97
   80.99        2982.00           2598        1645.00      7169.14
   81.02        2982.25           2601        1616.00      7042.66
   81.05        2982.50           2605        1607.00      7003.41
   81.08        2982.75           2609        1551.00      6759.18
   81.11        2983.00           2612        1605.00      6994.69
   81.14        2983.25           2616        1650.00      7190.95
   81.17        2983.50           2619        1581.00      6890.02
   81.20        2983.75           2623        1607.00      7003.41
   81.23        2984.00           2626        1596.00      6955.44
HS scan finished at 01:21:27
end
************************************************************
  HS Scan of (1) Internal mercury lamp
************************************************************
Integration time is 0.2294 seconds per sample
dh160419Reading 51.44 .94 3.37pr1000
************************************************************
Dead Time -------------------------  3.4E-08 
Number of Cycles Used -------------  4 
Starting Wavelength (Angstroms) ---  2950 
Final Wavelength (Angstoms) -------  2984 
Wavelength Increment (Angstroms) --  .25 
Filter Wheel #1 Position ---------- (1) Ground quartz diffuser (ND=2.32)
Filter Wheel #2 Position ---------- (1) Neutral Density 0.494



************************************************************
HS scan start time = 20:07:18
Dark Count =  2 


Time (GMT)  Wavelength (Ang)  Step Number  Raw Counts  Counts/Second

 1208.20        2950.00           2144        1435.00      6248.06
 1208.39        2950.25           2147        1386.00      6034.37
 1208.42        2950.50           2151        1443.00      6282.95
 1208.45        2950.75           2155        1468.00      6391.97
 1208.48        2951.00           2158        1405.00      6117.23
 1208.51        2951.25           2162        1411.00      6143.39
 1208.54        2951.50           2165        1414.00      6156.48
 1208.57        2951.75           2169        1448.00      6304.75
 1208.60        2952.00           2172        1438.00      6261.14
 1208.63        2952.25           2176        1415.00      6160.84
 1208.66        2952.50           2179        1419.00      6178.28
 1208.69        2952.75           2183        1472.00      6409.42
 1208.72        2953.00           2186        1494.00      6505.36
 1208.76        2953.25           2190        1456.00      6339.64
 1208.79        2953.50           2193        1442.00      6278.59
 1208.82        2953.75           2197        1509.00      6570.78
 1208.85        2954.00           2200        1498.00      6522.81
 1208.88        2954.25           2204        1501.00      6535.89
 1208.91        2954.50           2208        1512.00      6583.86
 1208.94        2954.75           2211        1475.00      6422.50
 1208.97        2955.00           2215        1544.00      6723.42
 1209.00        2955.25           2218        1517.00      6605.67
 1209.03        2955.50           2222        1516.00      6601.31
 1209.06        2955.75           2225        1549.00      6745.23
 1209.09        2956.00           2229        1545.00      6727.78
 1209.12        2956.25           2232        1560.00      6793.20
 1209.15        2956.50           2236        1557.00      6780.12
 1209.18        2956.75           2239        1604.00      6985.09
 1209.21        2957.00           2243        1612.00      7019.98
 1209.24        2957.25           2246        1619.00      7050.51
 1209.28        2957.50           2250        1635.00      7120.29
 1209.31        2957.75           2254        1661.00      7233.69
 1209.34        2958.00           2257        1646.00      7168.27
 1209.37        2958.25           2261        1676.00      7299.11
 1209.40        2958.50           2264        1632.00      7107.21
 1209.43        2958.75           2268        1725.00      7512.82
 1209.46        2959.00           2271        1682.00      7325.28
 1209.49        2959.25           2275        1742.00      7586.96
 1209.52        2959.50           2278        1776.00      7735.25
 1209.55        2959.75           2282        1809.00      7879.18
 1209.58        2960.00           2285        1768.00      7700.36
 1209.61        2960.25           2289        1874.00      8162.68
 1209.64        2960.50           2293        1892.00      8241.19
 1209.67        2960.75           2296        1917.00      8350.23
 1209.70        2961.00           2300        2075.00      9039.40
 1209.73        2961.25           2303        2578.00     11233.58
 1209.76        2961.50           2307        6932.00     30240.32
 1209.80        2961.75           2310       16742.00     73154.71
 1209.83        2962.00           2314       36472.00    159846.30
 1209.86        2962.25           2317       53872.00    236727.70
 1209.89        2962.50           2321       78474.00    346124.40
 1209.92        2962.75           2324       97750.00    432413.80
 1209.95        2963.00           2328      123495.00    548463.30
 1209.98        2963.25           2331      144309.00    642966.10
 1210.01        2963.50           2335      170415.00    762371.20
 1210.04        2963.75           2339      194566.00    873716.20
 1210.07        2964.00           2342      211814.00    953762.90
 1210.10        2964.25           2346      237128.00   1072052.00
 1210.13        2964.50           2349      258976.00   1174930.00
 1210.16        2964.75           2353      285397.00   1300330.00
 1210.19        2965.00           2356      301851.00   1378982.00
 1210.22        2965.25           2360      325478.00   1492679.00
 1210.25        2965.50           2363      342454.00   1574932.00
 1210.28        2965.75           2367      364623.00   1683063.00
 1210.31        2966.00           2370      381877.00   1767792.00
 1210.35        2966.25           2374      404064.00   1877490.00
 1210.38        2966.50           2378      423358.00   1973577.00
 1210.41        2966.75           2381      429501.00   2004308.00
 1210.44        2967.00           2385      431987.00   2016763.00
 1210.47        2967.25           2388      433106.00   2022373.00
 1210.50        2967.50           2392      432336.00   2018512.00
 1210.53        2967.75           2395      433055.00   2022117.00
 1210.56        2968.00           2399      429428.00   2003942.00
 1210.59        2968.25           2402      420461.00   1959108.00
 1210.62        2968.50           2406      400243.00   1858538.00
 1210.66        2968.75           2409      384160.00   1779040.00
 1210.69        2969.00           2413      361953.00   1669997.00
 1210.72        2969.25           2417      340668.00   1566256.00
 1210.75        2969.50           2420      323625.00   1483730.00
 1210.78        2969.75           2424      296513.00   1353418.00
 1210.81        2970.00           2427      275162.00   1251623.00
 1210.84        2970.25           2431      248576.00   1125866.00
 1210.87        2970.50           2434      228867.00   1033343.00
 1210.90        2970.75           2438      203350.00    914426.80
 1210.93        2971.00           2441      183467.00    822439.60
 1210.96        2971.25           2445      158299.00    706832.30
 1210.99        2971.50           2449      129928.00    577606.00
 1211.03        2971.75           2452      108908.00    482596.80
 1211.06        2972.00           2456       82141.00    362500.60
 1211.09        2972.25           2459       62753.00    276124.20
 1211.12        2972.50           2463       37978.00    166484.60
 1211.15        2972.75           2466       22627.00     98959.25
 1211.18        2973.00           2470        8148.00     35552.98
 1211.21        2973.25           2473        3736.00     16286.26
 1211.24        2973.50           2477        2313.00     10077.56
 1211.27        2973.75           2481        2061.00      8978.33
 1211.30        2974.00           2484        1975.00      8603.21
 1211.33        2974.25           2488        1921.00      8367.68
 1211.36        2974.50           2491        1843.00      8027.47
 1211.39        2974.75           2495        1864.00      8119.07
 1211.42        2975.00           2498        1858.00      8092.90
 1211.45        2975.25           2502        1774.00      7726.53
 1211.48        2975.50           2505        1791.00      7800.67
 1211.51        2975.75           2509        1759.00      7661.11
 1211.55        2976.00           2512        1736.00      7560.79
 1211.58        2976.25           2516        1687.00      7347.08
 1211.61        2976.50           2520        1660.00      7229.33
 1211.64        2976.75           2523        1667.00      7259.86
 1211.67        2977.00           2527        1652.00      7194.44
 1211.70        2977.25           2530        1605.00      6989.46
 1211.73        2977.50           2534        1630.00      7098.49
 1211.76        2977.75           2537        1629.00      7094.13
 1211.79        2978.00           2541        1593.00      6937.12
 1211.82        2978.25           2544        1585.00      6902.23
 1211.85        2978.50           2548        1519.00      6614.39
 1211.88        2978.75           2552        1529.00      6658.00
 1211.91        2979.00           2555        1528.00      6653.64
 1211.94        2979.25           2559        1472.00      6409.42
 1211.97        2979.50           2562        1523.00      6631.84
 1212.00        2979.75           2566        1508.00      6566.42
 1212.03        2980.00           2569        1531.00      6666.73
 1212.06        2980.25           2573        1485.00      6466.11
 1212.10        2980.50           2577        1478.00      6435.58
 1212.13        2980.75           2580        1427.00      6213.17
 1212.16        2981.00           2584        1463.00      6370.17
 1212.19        2981.25           2587        1448.00      6304.75
 1212.22        2981.50           2591        1422.00      6191.36
 1212.25        2981.75           2594        1419.00      6178.28
 1212.28        2982.00           2598        1389.00      6047.45
 1212.31        2982.25           2601        1410.00      6139.03
 1212.34        2982.50           2605        1345.00      5855.57
 1212.37        2982.75           2609        1417.00      6169.56
 1212.40        2983.00           2612        1381.00      6012.56
 1212.43        2983.25           2616        1406.00      6121.59
 1212.46        2983.50           2619        1363.00      5934.07
 1212.49        2983.75           2623        1366.00      5947.15
 1212.52        2984.00           2626        1352.00      5886.10
HS scan finished at 20:12:45
end
