************************************************************
  HS Scan of 
************************************************************
Integration time is 0.2294 seconds per sample
dh150417Reading 51.44 .94 3.07pr1000
************************************************************
Dead Time -------------------------  3.4E-08 
Number of Cycles Used -------------  4 
Starting Wavelength (Angstroms) ---  2950 
Final Wavelength (Angstoms) -------  2984 
Wavelength Increment (Angstroms) --  .25 
Filter Wheel #1 Position ---------- (1) Ground quartz diffuser (ND=2.32)
Filter Wheel #2 Position ---------- (1) Neutral Density 0.494



************************************************************
HS scan start time = 01:12:46
Dark Count =  .7 


Time (GMT)  Wavelength (Ang)  Step Number  Raw Counts  Counts/Second

   73.66        2950.00           2144         686.00      2987.66
   73.86        2950.25           2147         694.00      3022.54
   73.89        2950.50           2151         699.00      3044.34
   73.92        2950.75           2155         730.00      3179.51
   73.95        2951.00           2158         689.00      3000.74
   73.98        2951.25           2162         713.00      3105.38
   74.01        2951.50           2165         712.00      3101.02
   74.04        2951.75           2169         712.00      3101.02
   74.07        2952.00           2172         693.00      3018.18
   74.10        2952.25           2176         712.00      3101.02
   74.13        2952.50           2179         711.00      3096.66
   74.16        2952.75           2183         695.00      3026.90
   74.19        2953.00           2186         719.00      3131.55
   74.22        2953.25           2190         730.00      3179.51
   74.25        2953.50           2193         715.00      3114.10
   74.28        2953.75           2197         745.00      3244.91
   74.31        2954.00           2200         764.00      3327.75
   74.35        2954.25           2204         766.00      3336.47
   74.38        2954.50           2208         745.00      3244.91
   74.41        2954.75           2211         754.00      3284.15
   74.44        2955.00           2215         755.00      3288.51
   74.47        2955.25           2218         755.00      3288.51
   74.50        2955.50           2222         770.00      3353.91
   74.53        2955.75           2225         780.00      3397.52
   74.56        2956.00           2229         788.00      3432.40
   74.59        2956.25           2232         796.00      3467.28
   74.62        2956.50           2236         805.00      3506.52
   74.65        2956.75           2239         838.00      3650.41
   74.68        2957.00           2243         822.00      3580.65
   74.71        2957.25           2246         802.00      3493.44
   74.74        2957.50           2250         825.00      3593.73
   74.77        2957.75           2254         809.00      3523.96
   74.80        2958.00           2257         833.00      3628.61
   74.83        2958.25           2261         857.00      3733.26
   74.87        2958.50           2264         831.00      3619.89
   74.90        2958.75           2268         865.00      3768.14
   74.93        2959.00           2271         888.00      3868.42
   74.96        2959.25           2275         901.00      3925.11
   74.99        2959.50           2278         878.00      3824.82
   75.02        2959.75           2282         924.00      4025.40
   75.05        2960.00           2285         925.00      4029.76
   75.08        2960.25           2289         940.00      4095.16
   75.11        2960.50           2293         957.00      4169.29
   75.14        2960.75           2296        1011.00      4404.76
   75.17        2961.00           2300        1028.00      4478.89
   75.20        2961.25           2303        1291.00      5625.75
   75.23        2961.50           2307        4341.00     18932.41
   75.26        2961.75           2310       11018.00     48105.21
   75.29        2962.00           2314       23383.00    102283.20
   75.32        2962.25           2317       32531.00    142494.70
   75.35        2962.50           2321       45078.00    197827.00
   75.39        2962.75           2324       55086.00    242112.60
   75.42        2963.00           2328       68394.00    301208.90
   75.45        2963.25           2331       77908.00    343604.20
   75.48        2963.50           2335       90688.00    400747.20
   75.51        2963.75           2339      105623.00    467810.40
   75.54        2964.00           2342      116794.00    518174.30
   75.57        2964.25           2346      132252.00    588154.30
   75.60        2964.50           2349      142208.00    633404.80
   75.63        2964.75           2353      154235.00    688256.50
   75.66        2965.00           2356      163698.00    731560.70
   75.69        2965.25           2360      176766.00    791575.00
   75.72        2965.50           2363      187897.00    842890.10
   75.75        2965.75           2367      201345.00    905130.30
   75.78        2966.00           2370      210337.00    946896.90
   75.81        2966.25           2374      222141.00   1001909.00
   75.84        2966.50           2378      231238.00   1044448.00
   75.87        2966.75           2381      234053.00   1057637.00
   75.91        2967.00           2385      235195.00   1062991.00
   75.94        2967.25           2388      235026.00   1062198.00
   75.97        2967.50           2392      234851.00   1061378.00
   76.00        2967.75           2395      234806.00   1061167.00
   76.03        2968.00           2399      229240.00   1035094.00
   76.06        2968.25           2402      222622.00   1004155.00
   76.09        2968.50           2406      211113.00    950507.10
   76.12        2968.75           2409      201841.00    907431.00
   76.15        2969.00           2413      189654.00    851006.60
   76.18        2969.25           2417      175267.00    784678.10
   76.21        2969.50           2420      164107.00    733435.30
   76.24        2969.75           2424      150816.00    672642.50
   76.27        2970.00           2427      140416.00    625249.60
   76.30        2970.25           2431      126702.00    562990.20
   76.33        2970.50           2434      116078.00    514941.10
   76.36        2970.75           2438      102042.00    451702.50
   76.39        2971.00           2441       91272.00    403363.80
   76.43        2971.25           2445       76799.00    338656.00
   76.46        2971.50           2449       63257.00    278369.00
   76.49        2971.75           2452       52952.00    232658.40
   76.52        2972.00           2456       39742.00    174269.70
   76.55        2972.25           2459       30783.00    134802.60
   76.58        2972.50           2463       17958.00     78488.61
   76.61        2972.75           2466        8723.00     38071.48
   76.64        2973.00           2470        2538.00     11064.76
   76.67        2973.25           2473        1356.00      5909.21
   76.70        2973.50           2477        1062.00      4627.15
   76.73        2973.75           2481        1054.00      4592.26
   76.76        2974.00           2484        1023.00      4457.08
   76.79        2974.25           2488         993.00      4326.27
   76.82        2974.50           2491         998.00      4348.07
   76.85        2974.75           2495         975.00      4247.78
   76.88        2975.00           2498         915.00      3986.16
   76.91        2975.25           2502         921.00      4012.32
   76.95        2975.50           2505         902.00      3929.47
   76.98        2975.75           2509         871.00      3794.30
   77.01        2976.00           2512         869.00      3785.58
   77.04        2976.25           2516         855.00      3724.53
   77.07        2976.50           2520         875.00      3811.74
   77.10        2976.75           2523         851.00      3707.09
   77.13        2977.00           2527         852.00      3711.45
   77.16        2977.25           2530         835.00      3637.33
   77.19        2977.50           2534         816.00      3554.48
   77.22        2977.75           2537         789.00      3436.76
   77.25        2978.00           2541         795.00      3462.92
   77.28        2978.25           2544         826.00      3598.09
   77.31        2978.50           2548         808.00      3519.60
   77.34        2978.75           2552         787.00      3428.04
   77.37        2979.00           2555         789.00      3436.76
   77.40        2979.25           2559         790.00      3441.12
   77.43        2979.50           2562         757.00      3297.23
   77.47        2979.75           2566         747.00      3253.63
   77.50        2980.00           2569         739.00      3218.75
   77.53        2980.25           2573         734.00      3196.95
   77.56        2980.50           2577         769.00      3349.55
   77.59        2980.75           2580         722.00      3144.63
   77.62        2981.00           2584         694.00      3022.54
   77.65        2981.25           2587         740.00      3223.11
   77.68        2981.50           2591         744.00      3240.55
   77.71        2981.75           2594         684.00      2978.94
   77.74        2982.00           2598         702.00      3057.42
   77.77        2982.25           2601         745.00      3244.91
   77.80        2982.50           2605         711.00      3096.66
   77.83        2982.75           2609         709.00      3087.94
   77.86        2983.00           2612         716.00      3118.46
   77.89        2983.25           2616         674.00      2935.34
   77.92        2983.50           2619         692.00      3013.82
   77.95        2983.75           2623         698.00      3039.98
   77.99        2984.00           2626         680.00      2961.50
HS scan finished at 01:18:12
end
************************************************************
  HS Scan of 
************************************************************
Integration time is 0.2294 seconds per sample
dh150417Reading 51.44 .94 3.01pr1000
************************************************************
Dead Time -------------------------  3.4E-08 
Number of Cycles Used -------------  4 
Starting Wavelength (Angstroms) ---  2950 
Final Wavelength (Angstoms) -------  2984 
Wavelength Increment (Angstroms) --  .25 
Filter Wheel #1 Position ---------- (1) Ground quartz diffuser (ND=2.32)
Filter Wheel #2 Position ---------- (1) Neutral Density 0.494



************************************************************
HS scan start time = 20:07:21
Dark Count =  1.1 


Time (GMT)  Wavelength (Ang)  Step Number  Raw Counts  Counts/Second

 1208.25        2950.00           2144         664.00      2890.00
 1208.45        2950.25           2147         663.00      2885.64
 1208.48        2950.50           2151         643.00      2798.44
 1208.51        2950.75           2155         666.00      2898.72
 1208.54        2951.00           2158         706.00      3073.12
 1208.57        2951.25           2162         671.00      2920.52
 1208.60        2951.50           2165         697.00      3033.88
 1208.63        2951.75           2169         678.00      2951.04
 1208.66        2952.00           2172         699.00      3042.60
 1208.69        2952.25           2176         709.00      3086.20
 1208.72        2952.50           2179         694.00      3020.80
 1208.75        2952.75           2183         708.00      3081.84
 1208.78        2953.00           2186         683.00      2972.84
 1208.81        2953.25           2190         667.00      2903.08
 1208.84        2953.50           2193         712.00      3099.28
 1208.87        2953.75           2197         735.00      3199.56
 1208.90        2954.00           2200         726.00      3160.32
 1208.93        2954.25           2204         726.00      3160.32
 1208.97        2954.50           2208         768.00      3343.45
 1209.00        2954.75           2211         725.00      3155.96
 1209.03        2955.00           2215         721.00      3138.52
 1209.06        2955.25           2218         729.00      3173.40
 1209.09        2955.50           2222         687.00      2990.28
 1209.12        2955.75           2225         721.00      3138.52
 1209.15        2956.00           2229         703.00      3060.04
 1209.18        2956.25           2232         745.00      3243.17
 1209.21        2956.50           2236         750.00      3264.97
 1209.24        2956.75           2239         783.00      3408.85
 1209.27        2957.00           2243         770.00      3352.17
 1209.30        2957.25           2246         758.00      3299.85
 1209.33        2957.50           2250         783.00      3408.85
 1209.36        2957.75           2254         790.00      3439.37
 1209.39        2958.00           2257         808.00      3517.86
 1209.42        2958.25           2261         794.00      3456.81
 1209.45        2958.50           2264         805.00      3504.78
 1209.48        2958.75           2268         837.00      3644.31
 1209.52        2959.00           2271         810.00      3526.58
 1209.55        2959.25           2275         815.00      3548.38
 1209.58        2959.50           2278         841.00      3661.75
 1209.61        2959.75           2282         846.00      3683.55
 1209.64        2960.00           2285         868.00      3779.47
 1209.67        2960.25           2289         878.00      3823.08
 1209.70        2960.50           2293         910.00      3962.61
 1209.73        2960.75           2296         925.00      4028.01
 1209.76        2961.00           2300         970.00      4224.23
 1209.79        2961.25           2303        1136.00      4948.09
 1209.82        2961.50           2307        2522.00     10993.21
 1209.85        2961.75           2310        6978.00     30445.19
 1209.88        2962.00           2314       17873.00     78114.35
 1209.91        2962.25           2317       26948.00    117938.90
 1209.94        2962.50           2321       39115.00    171502.40
 1209.97        2962.75           2324       47770.00    209724.30
 1210.00        2963.00           2328       58633.00    257838.50
 1210.04        2963.25           2331       67954.00    299249.40
 1210.07        2963.50           2335       81139.00    358028.00
 1210.10        2963.75           2339       94001.00    415595.30
 1210.13        2964.00           2342      103642.00    458895.50
 1210.16        2964.25           2346      117127.00    519676.50
 1210.19        2964.50           2349      126236.00    560877.40
 1210.22        2964.75           2353      137487.00    611928.30
 1210.25        2965.00           2356      146191.00    651545.50
 1210.29        2965.25           2360      157218.00    701891.50
 1210.33        2965.50           2363      166084.00    742497.90
 1210.36        2965.75           2367      178254.00    798422.40
 1210.39        2966.00           2370      187525.00    841170.30
 1210.42        2966.25           2374      198132.00    890233.80
 1210.45        2966.50           2378      205335.00    923646.70
 1210.48        2966.75           2381      207636.00    934336.80
 1210.51        2967.00           2385      208445.00    938097.00
 1210.54        2967.25           2388      208317.00    937502.10
 1210.57        2967.50           2392      207965.00    935865.80
 1210.60        2967.75           2395      207656.00    934429.60
 1210.63        2968.00           2399      203845.00    916728.50
 1210.66        2968.25           2402      197337.00    886550.60
 1210.69        2968.50           2406      187191.00    839628.20
 1210.72        2968.75           2409      179809.00    805583.60
 1210.75        2969.00           2413      168845.00    755166.60
 1210.79        2969.25           2417      155962.00    696148.20
 1210.82        2969.50           2420      146924.00    654886.80
 1210.85        2969.75           2424      135842.00    604453.00
 1210.88        2970.00           2427      125809.00    558943.50
 1210.91        2970.25           2431      113440.00    503032.90
 1210.94        2970.50           2434      104663.00    463488.70
 1210.97        2970.75           2438       92771.00    410080.30
 1211.00        2971.00           2441       83441.00    368314.50
 1211.03        2971.25           2445       69961.00    308181.40
 1211.06        2971.50           2449       57502.00    252821.70
 1211.09        2971.75           2452       48862.00    214553.80
 1211.12        2972.00           2456       37395.00    163918.40
 1211.15        2972.25           2459       29283.00    128203.20
 1211.18        2972.50           2463       18107.00     79139.86
 1211.21        2972.75           2466        9886.00     43153.51
 1211.24        2973.00           2470        3136.00     13672.00
 1211.27        2973.25           2473        1493.00      6504.93
 1211.30        2973.50           2477        1049.00      4568.71
 1211.34        2973.75           2481         993.00      4324.52
 1211.37        2974.00           2484         952.00      4145.75
 1211.40        2974.25           2488         908.00      3953.89
 1211.43        2974.50           2491         945.00      4115.22
 1211.46        2974.75           2495         886.00      3857.96
 1211.49        2975.00           2498         860.00      3744.59
 1211.52        2975.25           2502         852.00      3709.71
 1211.55        2975.50           2505         850.00      3700.99
 1211.58        2975.75           2509         852.00      3709.71
 1211.61        2976.00           2512         840.00      3657.39
 1211.64        2976.25           2516         828.00      3605.06
 1211.67        2976.50           2520         818.00      3561.46
 1211.70        2976.75           2523         823.00      3583.26
 1211.73        2977.00           2527         802.00      3491.70
 1211.76        2977.25           2530         831.00      3618.14
 1211.79        2977.50           2534         771.00      3356.53
 1211.82        2977.75           2537         786.00      3421.93
 1211.86        2978.00           2541         740.00      3221.36
 1211.89        2978.25           2544         757.00      3295.49
 1211.92        2978.50           2548         756.00      3291.13
 1211.95        2978.75           2552         709.00      3086.20
 1211.98        2979.00           2555         733.00      3190.84
 1212.01        2979.25           2559         700.00      3046.96
 1212.04        2979.50           2562         732.00      3186.48
 1212.07        2979.75           2566         737.00      3208.28
 1212.10        2980.00           2569         728.00      3169.04
 1212.13        2980.25           2573         701.00      3051.32
 1212.16        2980.50           2577         702.00      3055.68
 1212.19        2980.75           2580         677.00      2946.68
 1212.22        2981.00           2584         705.00      3068.76
 1212.25        2981.25           2587         685.00      2981.56
 1212.28        2981.50           2591         687.00      2990.28
 1212.31        2981.75           2594         686.00      2985.92
 1212.34        2982.00           2598         687.00      2990.28
 1212.38        2982.25           2601         653.00      2842.04
 1212.41        2982.50           2605         673.00      2929.24
 1212.44        2982.75           2609         659.00      2868.20
 1212.47        2983.00           2612         690.00      3003.36
 1212.50        2983.25           2616         661.00      2876.92
 1212.53        2983.50           2619         686.00      2985.92
 1212.56        2983.75           2623         655.00      2850.76
 1212.59        2984.00           2626         651.00      2833.32
HS scan finished at 20:12:49
end
