************************************************************
  HS Scan of (1) Internal mercury lamp
************************************************************
Integration time is 0.2294 seconds per sample
dh190419Reading 51.44 .94 3.19pr1000
************************************************************
Dead Time -------------------------  3.4E-08 
Number of Cycles Used -------------  4 
Starting Wavelength (Angstroms) ---  2950 
Final Wavelength (Angstoms) -------  2984 
Wavelength Increment (Angstroms) --  .25 
Filter Wheel #1 Position ---------- (1) Ground quartz diffuser (ND=2.32)
Filter Wheel #2 Position ---------- (1) Neutral Density 0.494



************************************************************
HS scan start time = 01:30:24
Dark Count =  1.2 


Time (GMT)  Wavelength (Ang)  Step Number  Raw Counts  Counts/Second

   91.30        2950.00           2144        1555.00      6774.88
   91.49        2950.25           2147        1576.00      6866.47
   91.52        2950.50           2151        1603.00      6984.22
   91.55        2950.75           2155        1596.00      6953.69
   91.58        2951.00           2158        1595.00      6949.33
   91.61        2951.25           2162        1564.00      6814.13
   91.65        2951.50           2165        1612.00      7023.47
   91.68        2951.75           2169        1642.00      7154.31
   91.71        2952.00           2172        1643.00      7158.67
   91.74        2952.25           2176        1646.00      7171.76
   91.77        2952.50           2179        1593.00      6940.61
   91.80        2952.75           2183        1617.00      7045.28
   91.83        2953.00           2186        1609.00      7010.39
   91.86        2953.25           2190        1626.00      7084.53
   91.89        2953.50           2193        1661.00      7237.18
   91.92        2953.75           2197        1673.00      7289.51
   91.95        2954.00           2200        1639.00      7141.23
   91.98        2954.25           2204        1681.00      7324.40
   92.01        2954.50           2208        1716.00      7477.05
   92.04        2954.75           2211        1734.00      7555.56
   92.07        2955.00           2215        1680.00      7320.04
   92.10        2955.25           2218        1753.00      7638.43
   92.13        2955.50           2222        1736.00      7564.28
   92.16        2955.75           2225        1723.00      7507.58
   92.20        2956.00           2229        1770.00      7712.57
   92.23        2956.25           2232        1752.00      7634.07
   92.26        2956.50           2236        1770.00      7712.57
   92.29        2956.75           2239        1803.00      7856.50
   92.32        2957.00           2243        1810.00      7887.03
   92.35        2957.25           2246        1829.00      7969.90
   92.38        2957.50           2250        1857.00      8092.03
   92.41        2957.75           2254        1825.00      7952.46
   92.44        2958.00           2257        1847.00      8048.41
   92.47        2958.25           2261        1864.00      8122.56
   92.50        2958.50           2264        1911.00      8327.55
   92.53        2958.75           2268        1987.00      8659.05
   92.56        2959.00           2271        1919.00      8362.45
   92.59        2959.25           2275        2008.00      8750.64
   92.62        2959.50           2278        1991.00      8676.49
   92.65        2959.75           2282        2017.00      8789.90
   92.68        2960.00           2285        2075.00      9042.89
   92.72        2960.25           2289        2097.00      9138.85
   92.75        2960.50           2293        2184.00      9518.34
   92.78        2960.75           2296        2225.00      9697.18
   92.81        2961.00           2300        2710.00     11812.94
   92.84        2961.25           2303        5422.00     23649.35
   92.87        2961.50           2307       18889.00     82567.13
   92.90        2961.75           2310       34481.00    151078.30
   92.93        2962.00           2314       58879.00    258929.50
   92.96        2962.25           2317       79880.00    352404.80
   92.99        2962.50           2321      106828.00    473232.50
   93.02        2962.75           2324      127034.00    564492.00
   93.05        2963.00           2328      153214.00    683589.80
   93.08        2963.25           2331      175865.00    787426.80
   93.11        2963.50           2335      206772.00    930321.20
   93.14        2963.75           2339      237384.00   1073257.00
   93.17        2964.00           2342      259000.00   1175047.00
   93.20        2964.25           2346      284147.00   1294377.00
   93.24        2964.50           2349      303539.00   1387078.00
   93.27        2964.75           2353      330909.00   1518946.00
   93.30        2965.00           2356      353094.00   1626731.00
   93.33        2965.25           2360      379471.00   1755950.00
   93.36        2965.50           2363      399317.00   1853953.00
   93.39        2965.75           2367      423245.00   1973017.00
   93.42        2966.00           2370      440667.00   2060340.00
   93.45        2966.25           2374      462307.00   2169560.00
   93.48        2966.50           2378      476643.00   2242383.00
   93.51        2966.75           2381      480314.00   2261091.00
   93.54        2967.00           2385      481573.00   2267513.00
   93.57        2967.25           2388      481819.00   2268768.00
   93.60        2967.50           2392      481149.00   2265350.00
   93.63        2967.75           2395      478649.00   2252603.00
   93.66        2968.00           2399      467465.00   2195718.00
   93.69        2968.25           2402      452014.00   2117505.00
   93.72        2968.50           2406      428050.00   1997047.00
   93.76        2968.75           2409      408307.00   1898569.00
   93.79        2969.00           2413      378735.00   1752329.00
   93.82        2969.25           2417      349861.00   1610973.00
   93.85        2969.50           2420      328763.00   1508563.00
   93.88        2969.75           2424      302156.00   1380447.00
   93.91        2970.00           2427      281006.00   1279417.00
   93.94        2970.25           2431      249103.00   1128352.00
   93.97        2970.50           2434      226431.00   1021952.00
   94.00        2970.75           2438      198712.00    892920.80
   94.03        2971.00           2441      175772.00    786999.00
   94.06        2971.25           2445      148150.00    660476.40
   94.09        2971.50           2449      119991.00    532617.60
   94.12        2971.75           2452       98642.00    436422.80
   94.15        2972.00           2456       71103.00    313265.70
   94.18        2972.25           2459       47957.00    210550.70
   94.21        2972.50           2463       22191.00     97049.44
   94.24        2972.75           2466        9770.00     42645.92
   94.28        2973.00           2470        3700.00     16132.65
   94.31        2973.25           2473        2585.00     11267.61
   94.34        2973.50           2477        2265.00      9871.67
   94.37        2973.75           2481        2225.00      9697.18
   94.40        2974.00           2484        2155.00      9391.84
   94.43        2974.25           2488        2116.00      9221.72
   94.46        2974.50           2491        2089.00      9103.95
   94.49        2974.75           2495        2034.00      8864.05
   94.52        2975.00           2498        1990.00      8672.13
   94.55        2975.25           2502        1995.00      8693.94
   94.58        2975.50           2505        1952.00      8506.38
   94.61        2975.75           2509        1942.00      8462.77
   94.64        2976.00           2512        1913.00      8336.28
   94.67        2976.25           2516        1872.00      8157.45
   94.70        2976.50           2520        1827.00      7961.18
   94.73        2976.75           2523        1810.00      7887.03
   94.76        2977.00           2527        1823.00      7943.73
   94.80        2977.25           2530        1799.00      7839.06
   94.83        2977.50           2534        1791.00      7804.16
   94.86        2977.75           2537        1773.00      7725.66
   94.89        2978.00           2541        1764.00      7686.40
   94.92        2978.25           2544        1734.00      7555.56
   94.95        2978.50           2548        1765.00      7690.76
   94.98        2978.75           2552        1708.00      7442.16
   95.01        2979.00           2555        1707.00      7437.80
   95.04        2979.25           2559        1679.00      7315.68
   95.07        2979.50           2562        1657.00      7219.73
   95.10        2979.75           2566        1651.00      7193.56
   95.13        2980.00           2569        1623.00      7071.45
   95.16        2980.25           2573        1623.00      7071.45
   95.19        2980.50           2577        1611.00      7019.11
   95.22        2980.75           2580        1597.00      6958.05
   95.25        2981.00           2584        1584.00      6901.36
   95.28        2981.25           2587        1630.00      7101.98
   95.32        2981.50           2591        1603.00      6984.22
   95.35        2981.75           2594        1568.00      6831.58
   95.38        2982.00           2598        1575.00      6862.11
   95.41        2982.25           2601        1587.00      6914.44
   95.44        2982.50           2605        1558.00      6787.97
   95.47        2982.75           2609        1576.00      6866.47
   95.50        2983.00           2612        1588.00      6918.80
   95.53        2983.25           2616        1555.00      6774.88
   95.56        2983.50           2619        1531.00      6670.21
   95.59        2983.75           2623        1526.00      6648.41
   95.62        2984.00           2626        1511.00      6582.99
HS scan finished at 01:35:51
end
************************************************************
  HS Scan of (1) Internal mercury lamp
************************************************************
Integration time is 0.2294 seconds per sample
dh190419Reading 51.44 .94 3.74pr1000
************************************************************
Dead Time -------------------------  3.4E-08 
Number of Cycles Used -------------  4 
Starting Wavelength (Angstroms) ---  2950 
Final Wavelength (Angstoms) -------  2984 
Wavelength Increment (Angstroms) --  .25 
Filter Wheel #1 Position ---------- (1) Ground quartz diffuser (ND=2.32)
Filter Wheel #2 Position ---------- (1) Neutral Density 0.494



************************************************************
HS scan start time = 20:07:26
Dark Count =  5 


Time (GMT)  Wavelength (Ang)  Step Number  Raw Counts  Counts/Second

 1208.33        2950.00           2144        1224.00      5314.82
 1208.52        2950.25           2147        1211.00      5258.13
 1208.55        2950.50           2151        1182.00      5131.67
 1208.58        2950.75           2155        1203.00      5223.25
 1208.61        2951.00           2158        1210.00      5253.77
 1208.64        2951.25           2162        1209.00      5249.41
 1208.67        2951.50           2165        1243.00      5397.68
 1208.70        2951.75           2169        1201.00      5214.53
 1208.73        2952.00           2172        1241.00      5388.96
 1208.76        2952.25           2176        1221.00      5301.74
 1208.79        2952.50           2179        1223.00      5310.46
 1208.82        2952.75           2183        1224.00      5314.82
 1208.86        2953.00           2186        1233.00      5354.07
 1208.89        2953.25           2190        1268.00      5506.70
 1208.92        2953.50           2193        1257.00      5458.73
 1208.95        2953.75           2197        1273.00      5528.50
 1208.98        2954.00           2200        1258.00      5463.09
 1209.01        2954.25           2204        1304.00      5663.69
 1209.04        2954.50           2208        1284.00      5576.47
 1209.07        2954.75           2211        1288.00      5593.92
 1209.10        2955.00           2215        1333.00      5790.16
 1209.13        2955.25           2218        1303.00      5659.33
 1209.16        2955.50           2222        1343.00      5833.76
 1209.19        2955.75           2225        1315.00      5711.66
 1209.22        2956.00           2229        1340.00      5820.68
 1209.25        2956.25           2232        1310.00      5689.85
 1209.28        2956.50           2236        1350.00      5864.29
 1209.31        2956.75           2239        1340.00      5820.68
 1209.34        2957.00           2243        1373.00      5964.59
 1209.38        2957.25           2246        1387.00      6025.65
 1209.41        2957.50           2250        1401.00      6086.70
 1209.44        2957.75           2254        1410.00      6125.95
 1209.47        2958.00           2257        1458.00      6335.28
 1209.50        2958.25           2261        1452.00      6309.11
 1209.53        2958.50           2264        1450.00      6300.39
 1209.56        2958.75           2268        1476.00      6413.78
 1209.59        2959.00           2271        1488.00      6466.11
 1209.62        2959.25           2275        1498.00      6509.72
 1209.65        2959.50           2278        1529.00      6644.92
 1209.68        2959.75           2282        1559.00      6775.76
 1209.71        2960.00           2285        1581.00      6871.70
 1209.74        2960.25           2289        1612.00      7006.90
 1209.77        2960.50           2293        1658.00      7207.52
 1209.80        2960.75           2296        1709.00      7429.95
 1209.83        2961.00           2300        1818.00      7905.35
 1209.86        2961.25           2303        2317.00     10081.92
 1209.90        2961.50           2307        6508.00     28375.23
 1209.93        2961.75           2310       16575.00     72409.97
 1209.96        2962.00           2314       36802.00    161287.50
 1209.99        2962.25           2317       52970.00    232719.10
 1210.02        2962.50           2321       74267.00    327345.90
 1210.05        2962.75           2324       90974.00    402009.30
 1210.08        2963.00           2328      114973.00    509933.20
 1210.11        2963.25           2331      133233.00    592587.30
 1210.14        2963.50           2335      157128.00    701462.00
 1210.17        2963.75           2339      179614.00    804667.50
 1210.20        2964.00           2342      196609.00    883160.70
 1210.23        2964.25           2346      222373.00   1002972.00
 1210.26        2964.50           2349      243139.00   1100269.00
 1210.30        2964.75           2353      268756.00   1221206.00
 1210.33        2965.00           2356      285040.00   1298614.00
 1210.36        2965.25           2360      305795.00   1397884.00
 1210.39        2965.50           2363      321818.00   1474993.00
 1210.42        2965.75           2367      343999.00   1582427.00
 1210.45        2966.00           2370      359850.00   1659699.00
 1210.48        2966.25           2374      381296.00   1764916.00
 1210.51        2966.50           2378      397987.00   1847345.00
 1210.54        2966.75           2381      403246.00   1873416.00
 1210.57        2967.00           2385      406263.00   1888394.00
 1210.60        2967.25           2388      405962.00   1886899.00
 1210.63        2967.50           2392      407111.00   1892607.00
 1210.66        2967.75           2395      406619.00   1890162.00
 1210.69        2968.00           2399      403965.00   1876984.00
 1210.72        2968.25           2402      395819.00   1836611.00
 1210.75        2968.50           2406      376898.00   1743275.00
 1210.78        2968.75           2409      360288.00   1661840.00
 1210.82        2969.00           2413      339156.00   1558901.00
 1210.85        2969.25           2417      316998.00   1451754.00
 1210.88        2969.50           2420      300663.00   1373274.00
 1210.91        2969.75           2424      277425.00   1262364.00
 1210.94        2970.00           2427      259245.00   1176187.00
 1210.97        2970.25           2431      233848.00   1056656.00
 1211.00        2970.50           2434      215005.00    968606.80
 1211.03        2970.75           2438      189354.00    849600.70
 1211.06        2971.00           2441      169423.00    757802.20
 1211.09        2971.25           2445      144815.00    645257.40
 1211.12        2971.50           2449      119853.00    531976.60
 1211.15        2971.75           2452      100501.00    444756.90
 1211.18        2972.00           2456       73939.00    325883.80
 1211.21        2972.25           2459       55653.00    244606.50
 1211.24        2972.50           2463       33642.00    147366.90
 1211.27        2972.75           2466       20768.00     90789.85
 1211.30        2973.00           2470        7650.00     33363.90
 1211.33        2973.25           2473        3435.00     14959.66
 1211.37        2973.50           2477        2000.00      8699.17
 1211.40        2973.75           2481        1767.00      7682.91
 1211.43        2974.00           2484        1734.00      7538.99
 1211.46        2974.25           2488        1686.00      7329.64
 1211.49        2974.50           2491        1604.00      6972.01
 1211.52        2974.75           2495        1646.00      7155.18
 1211.55        2975.00           2498        1637.00      7115.93
 1211.58        2975.25           2502        1582.00      6876.06
 1211.61        2975.50           2505        1556.00      6762.67
 1211.64        2975.75           2509        1521.00      6610.03
 1211.67        2976.00           2512        1499.00      6514.08
 1211.70        2976.25           2516        1492.00      6483.56
 1211.73        2976.50           2520        1476.00      6413.78
 1211.76        2976.75           2523        1437.00      6243.70
 1211.79        2977.00           2527        1421.00      6173.92
 1211.82        2977.25           2530        1433.00      6226.25
 1211.85        2977.50           2534        1364.00      5925.34
 1211.89        2977.75           2537        1351.00      5868.65
 1211.92        2978.00           2541        1347.00      5851.21
 1211.95        2978.25           2544        1365.00      5929.70
 1211.98        2978.50           2548        1355.00      5886.10
 1212.01        2978.75           2552        1288.00      5593.92
 1212.04        2979.00           2555        1285.00      5580.83
 1212.07        2979.25           2559        1280.00      5559.03
 1212.10        2979.50           2562        1295.00      5624.44
 1212.13        2979.75           2566        1258.00      5463.09
 1212.16        2980.00           2569        1265.00      5493.62
 1212.20        2980.25           2573        1276.00      5541.59
 1212.23        2980.50           2577        1237.00      5371.51
 1212.26        2980.75           2580        1281.00      5563.39
 1212.29        2981.00           2584        1240.00      5384.60
 1212.32        2981.25           2587        1229.00      5336.63
 1212.35        2981.50           2591        1251.00      5432.56
 1212.38        2981.75           2594        1218.00      5288.66
 1212.41        2982.00           2598        1246.00      5410.76
 1212.44        2982.25           2601        1189.00      5162.20
 1212.47        2982.50           2605        1228.00      5332.27
 1212.50        2982.75           2609        1193.00      5179.64
 1212.53        2983.00           2612        1187.00      5153.48
 1212.56        2983.25           2616        1202.00      5218.89
 1212.60        2983.50           2619        1175.00      5101.15
 1212.63        2983.75           2623        1213.00      5266.85
 1212.66        2984.00           2626        1146.00      4974.69
HS scan finished at 20:12:53
end
