************************************************************
  HS Scan of 
************************************************************
Integration time is 0.2294 seconds per sample
dh180417Reading 51.44 .94 2.86pr1000
************************************************************
Dead Time -------------------------  3.4E-08 
Number of Cycles Used -------------  4 
Starting Wavelength (Angstroms) ---  2950 
Final Wavelength (Angstoms) -------  2984 
Wavelength Increment (Angstroms) --  .25 
Filter Wheel #1 Position ---------- (1) Ground quartz diffuser (ND=2.32)
Filter Wheel #2 Position ---------- (1) Neutral Density 0.494



************************************************************
HS scan start time = 02:36:14
Dark Count =  .8 


Time (GMT)  Wavelength (Ang)  Step Number  Raw Counts  Counts/Second

  157.13        2950.00           2144         652.00      2838.98
  157.32        2950.25           2147         647.00      2817.18
  157.36        2950.50           2151         681.00      2965.43
  157.39        2950.75           2155         638.00      2777.94
  157.42        2951.00           2158         679.00      2956.71
  157.45        2951.25           2162         650.00      2830.26
  157.48        2951.50           2165         653.00      2843.34
  157.51        2951.75           2169         677.00      2947.99
  157.54        2952.00           2172         664.00      2891.30
  157.57        2952.25           2176         674.00      2934.90
  157.60        2952.50           2179         675.00      2939.27
  157.63        2952.75           2183         650.00      2830.26
  157.66        2953.00           2186         687.00      2991.59
  157.69        2953.25           2190         680.00      2961.07
  157.72        2953.50           2193         680.00      2961.07
  157.75        2953.75           2197         705.00      3070.07
  157.78        2954.00           2200         711.00      3096.23
  157.81        2954.25           2204         715.00      3113.67
  157.84        2954.50           2208         708.00      3083.15
  157.88        2954.75           2211         685.00      2982.87
  157.91        2955.00           2215         675.00      2939.27
  157.94        2955.25           2218         686.00      2987.23
  157.97        2955.50           2222         732.00      3187.79
  158.00        2955.75           2225         710.00      3091.87
  158.03        2956.00           2229         735.00      3200.87
  158.06        2956.25           2232         756.00      3292.43
  158.09        2956.50           2236         741.00      3227.03
  158.12        2956.75           2239         726.00      3161.63
  158.15        2957.00           2243         775.00      3375.28
  158.18        2957.25           2246         755.00      3288.08
  158.21        2957.50           2250         784.00      3414.52
  158.24        2957.75           2254         775.00      3375.28
  158.27        2958.00           2257         798.00      3475.56
  158.30        2958.25           2261         794.00      3458.12
  158.33        2958.50           2264         798.00      3475.56
  158.36        2958.75           2268         837.00      3645.61
  158.40        2959.00           2271         820.00      3571.49
  158.43        2959.25           2275         798.00      3475.56
  158.46        2959.50           2278         833.00      3628.17
  158.49        2959.75           2282         866.00      3772.06
  158.52        2960.00           2285         908.00      3955.20
  158.55        2960.25           2289         896.00      3902.87
  158.58        2960.50           2293         917.00      3994.44
  158.61        2960.75           2296         966.00      4208.10
  158.64        2961.00           2300        1060.00      4617.99
  158.67        2961.25           2303        1732.00      7548.58
  158.70        2961.50           2307        6043.00     26362.76
  158.73        2961.75           2310       12524.00     54692.73
  158.76        2962.00           2314       23657.00    103485.50
  158.79        2962.25           2317       33360.00    146143.70
  158.82        2962.50           2321       46480.00    204022.40
  158.85        2962.75           2324       56429.00    248065.20
  158.88        2963.00           2328       68653.00    302361.00
  158.91        2963.25           2331       77139.00    340172.40
  158.95        2963.50           2335       89440.00    395156.70
  158.98        2963.75           2339      104176.00    461299.00
  159.01        2964.00           2342      114591.00    508228.00
  159.04        2964.25           2346      127289.00    565649.20
  159.07        2964.50           2349      136723.00    608457.40
  159.10        2964.75           2353      148976.00    664245.90
  159.13        2965.00           2356      157069.00    701211.30
  159.16        2965.25           2360      168996.00    755861.10
  159.19        2965.50           2363      178537.00    799726.90
  159.22        2965.75           2367      190491.00    854874.40
  159.25        2966.00           2370      198341.00    891203.60
  159.28        2966.25           2374      207915.00    935634.80
  159.31        2966.50           2378      213967.00    963791.60
  159.34        2966.75           2381      215310.00    970047.30
  159.37        2967.00           2385      216338.00    974837.60
  159.40        2967.25           2388      215820.00    972423.60
  159.43        2967.50           2392      215855.00    972586.60
  159.47        2967.75           2395      214880.00    968044.10
  159.50        2968.00           2399      209879.00    944766.20
  159.53        2968.25           2402      202603.00    910965.90
  159.56        2968.50           2406      191765.00    860764.20
  159.59        2968.75           2409      183355.00    821928.60
  159.62        2969.00           2413      170851.00    764379.30
  159.65        2969.25           2417      159058.00    710310.80
  159.68        2969.50           2420      149858.00    668270.00
  159.71        2969.75           2424      137255.00    610875.10
  159.74        2970.00           2427      127319.00    565785.10
  159.77        2970.25           2431      115838.00    513857.00
  159.80        2970.50           2434      106913.00    473617.10
  159.83        2970.75           2438       92347.00    408181.10
  159.86        2971.00           2441       81805.00    361004.70
  159.89        2971.25           2445       68362.00    301066.10
  159.92        2971.50           2449       55876.00    245613.60
  159.95        2971.75           2452       47329.00    207775.60
  159.99        2972.00           2456       34878.00    152828.70
  160.02        2972.25           2459       25070.00    109689.90
  160.05        2972.50           2463       13977.00     61051.62
  160.08        2972.75           2466        6555.00     28598.85
  160.11        2973.00           2470        1938.00      8447.06
  160.14        2973.25           2473        1159.00      5049.69
  160.17        2973.50           2477        1003.00      4369.44
  160.20        2973.75           2481         961.00      4186.30
  160.23        2974.00           2484         924.00      4024.96
  160.26        2974.25           2488         902.00      3929.03
  160.29        2974.50           2491         913.00      3977.00
  160.32        2974.75           2495         908.00      3955.20
  160.35        2975.00           2498         842.00      3667.41
  160.38        2975.25           2502         830.00      3615.09
  160.41        2975.50           2505         824.00      3588.93
  160.44        2975.75           2509         829.00      3610.73
  160.47        2976.00           2512         817.00      3558.41
  160.51        2976.25           2516         839.00      3654.33
  160.54        2976.50           2520         798.00      3475.56
  160.57        2976.75           2523         782.00      3405.80
  160.60        2977.00           2527         793.00      3453.76
  160.63        2977.25           2530         774.00      3370.92
  160.66        2977.50           2534         789.00      3436.32
  160.69        2977.75           2537         780.00      3397.08
  160.72        2978.00           2541         777.00      3384.00
  160.75        2978.25           2544         740.00      3222.67
  160.78        2978.50           2548         727.00      3165.99
  160.81        2978.75           2552         777.00      3384.00
  160.84        2979.00           2555         737.00      3209.59
  160.87        2979.25           2559         690.00      3004.67
  160.90        2979.50           2562         701.00      3052.63
  160.93        2979.75           2566         689.00      3000.31
  160.96        2980.00           2569         716.00      3118.03
  160.99        2980.25           2573         707.00      3078.79
  161.03        2980.50           2577         716.00      3118.03
  161.06        2980.75           2580         677.00      2947.99
  161.09        2981.00           2584         700.00      3048.27
  161.12        2981.25           2587         668.00      2908.74
  161.15        2981.50           2591         659.00      2869.50
  161.18        2981.75           2594         719.00      3131.11
  161.21        2982.00           2598         662.00      2882.58
  161.24        2982.25           2601         684.00      2978.51
  161.27        2982.50           2605         665.00      2895.66
  161.30        2982.75           2609         685.00      2982.87
  161.33        2983.00           2612         664.00      2891.30
  161.36        2983.25           2616         648.00      2821.54
  161.39        2983.50           2619         684.00      2978.51
  161.42        2983.75           2623         675.00      2939.27
  161.45        2984.00           2626         681.00      2965.43
HS scan finished at 02:41:41
end
************************************************************
  HS Scan of 
************************************************************
Integration time is 0.2294 seconds per sample
dh180417Reading 51.44 .94 3.13pr1000
************************************************************
Dead Time -------------------------  3.4E-08 
Number of Cycles Used -------------  4 
Starting Wavelength (Angstroms) ---  2950 
Final Wavelength (Angstoms) -------  2984 
Wavelength Increment (Angstroms) --  .25 
Filter Wheel #1 Position ---------- (1) Ground quartz diffuser (ND=2.32)
Filter Wheel #2 Position ---------- (1) Neutral Density 0.494



************************************************************
HS scan start time = 20:07:19
Dark Count =  1.4 


Time (GMT)  Wavelength (Ang)  Step Number  Raw Counts  Counts/Second

 1208.22        2950.00           2144         551.00      2396.01
 1208.42        2950.25           2147         573.00      2491.93
 1208.45        2950.50           2151         568.00      2470.13
 1208.48        2950.75           2155         563.00      2448.33
 1208.51        2951.00           2158         561.00      2439.61
 1208.54        2951.25           2162         556.00      2417.81
 1208.57        2951.50           2165         562.00      2443.97
 1208.60        2951.75           2169         566.00      2461.41
 1208.63        2952.00           2172         581.00      2526.81
 1208.66        2952.25           2176         580.00      2522.45
 1208.69        2952.50           2179         575.00      2500.65
 1208.72        2952.75           2183         585.00      2544.25
 1208.75        2953.00           2186         561.00      2439.61
 1208.78        2953.25           2190         564.00      2452.69
 1208.81        2953.50           2193         582.00      2531.17
 1208.84        2953.75           2197         593.00      2579.13
 1208.87        2954.00           2200         591.00      2570.41
 1208.91        2954.25           2204         586.00      2548.61
 1208.94        2954.50           2208         598.00      2600.93
 1208.97        2954.75           2211         601.00      2614.01
 1209.00        2955.00           2215         608.00      2644.53
 1209.03        2955.25           2218         615.00      2675.05
 1209.06        2955.50           2222         604.00      2627.09
 1209.09        2955.75           2225         599.00      2605.29
 1209.12        2956.00           2229         625.00      2718.65
 1209.15        2956.25           2232         614.00      2670.69
 1209.18        2956.50           2236         628.00      2731.73
 1209.21        2956.75           2239         667.00      2901.77
 1209.24        2957.00           2243         620.00      2696.85
 1209.27        2957.25           2246         638.00      2775.33
 1209.30        2957.50           2250         634.00      2757.89
 1209.33        2957.75           2254         691.00      3006.41
 1209.36        2958.00           2257         666.00      2897.41
 1209.39        2958.25           2261         678.00      2949.73
 1209.43        2958.50           2264         694.00      3019.49
 1209.46        2958.75           2268         719.00      3128.49
 1209.49        2959.00           2271         690.00      3002.05
 1209.52        2959.25           2275         700.00      3045.65
 1209.55        2959.50           2278         713.00      3102.33
 1209.58        2959.75           2282         733.00      3189.54
 1209.61        2960.00           2285         745.00      3241.86
 1209.64        2960.25           2289         766.00      3333.42
 1209.67        2960.50           2293         766.00      3333.42
 1209.70        2960.75           2296         786.00      3420.62
 1209.73        2961.00           2300         857.00      3730.20
 1209.76        2961.25           2303        1080.00      4702.58
 1209.79        2961.50           2307        3685.00     16066.32
 1209.82        2961.75           2310        8597.00     37517.75
 1209.85        2962.00           2314       18093.00     79077.19
 1209.88        2962.25           2317       26131.00    114347.80
 1209.91        2962.50           2321       36376.00    159425.90
 1209.94        2962.75           2324       43487.00    190796.00
 1209.98        2963.00           2328       54105.00    237762.60
 1210.01        2963.25           2331       62807.00    276366.80
 1210.04        2963.50           2335       73724.00    324941.60
 1210.07        2963.75           2339       84503.00    373061.30
 1210.10        2964.00           2342       92301.00    407972.20
 1210.13        2964.25           2346      103228.00    457032.20
 1210.16        2964.50           2349      110803.00    491139.40
 1210.19        2964.75           2353      121345.00    538739.10
 1210.22        2965.00           2356      128321.00    570323.20
 1210.25        2965.25           2360      137612.00    612495.00
 1210.28        2965.50           2363      146401.00    652501.10
 1210.31        2965.75           2367      156896.00    700417.50
 1210.34        2966.00           2370      164246.00    734069.10
 1210.37        2966.25           2374      173221.00    775266.90
 1210.40        2966.50           2378      178615.00    800083.20
 1210.43        2966.75           2381      180331.00    807987.00
 1210.46        2967.00           2385      180929.00    810742.30
 1210.50        2967.25           2388      181209.00    812032.70
 1210.53        2967.50           2392      181107.00    811562.60
 1210.56        2967.75           2395      180327.00    807968.50
 1210.59        2968.00           2399      176915.00    792257.40
 1210.62        2968.25           2402      171656.00    768074.60
 1210.65        2968.50           2406      162543.00    726265.10
 1210.68        2968.75           2409      155525.00    694149.00
 1210.71        2969.00           2413      145807.00    649794.00
 1210.74        2969.25           2417      137227.00    610745.10
 1210.77        2969.50           2420      129500.00    575667.90
 1210.80        2969.75           2424      118679.00    526686.80
 1210.83        2970.00           2427      110709.00    490715.70
 1210.86        2970.25           2431      100108.00    443007.20
 1210.89        2970.50           2434       92386.00    408353.20
 1210.92        2970.75           2438       80440.00    354904.60
 1210.95        2971.00           2441       71826.00    316485.00
 1210.98        2971.25           2445       60877.00    267796.10
 1211.02        2971.50           2449       50460.00    221622.70
 1211.05        2971.75           2452       42940.00    188380.60
 1211.08        2972.00           2456       32652.00    143024.20
 1211.11        2972.25           2459       24919.00    109024.10
 1211.14        2972.50           2463       14757.00     64463.72
 1211.17        2972.75           2466        8289.00     36171.75
 1211.20        2973.00           2470        2903.00     12654.09
 1211.23        2973.25           2473        1248.00      5435.18
 1211.26        2973.50           2477         896.00      3900.26
 1211.29        2973.75           2481         835.00      3634.28
 1211.32        2974.00           2484         818.00      3560.15
 1211.35        2974.25           2488         802.00      3490.39
 1211.38        2974.50           2491         759.00      3302.90
 1211.41        2974.75           2495         773.00      3363.94
 1211.44        2975.00           2498         737.00      3206.98
 1211.47        2975.25           2502         737.00      3206.98
 1211.50        2975.50           2505         703.00      3058.73
 1211.54        2975.75           2509         689.00      2997.69
 1211.57        2976.00           2512         688.00      2993.33
 1211.60        2976.25           2516         669.00      2910.49
 1211.63        2976.50           2520         676.00      2941.01
 1211.66        2976.75           2523         679.00      2954.09
 1211.69        2977.00           2527         652.00      2836.37
 1211.72        2977.25           2530         652.00      2836.37
 1211.75        2977.50           2534         674.00      2932.29
 1211.78        2977.75           2537         668.00      2906.13
 1211.81        2978.00           2541         620.00      2696.85
 1211.84        2978.25           2544         658.00      2862.53
 1211.87        2978.50           2548         622.00      2705.57
 1211.90        2978.75           2552         617.00      2683.77
 1211.93        2979.00           2555         635.00      2762.25
 1211.96        2979.25           2559         600.00      2609.65
 1211.99        2979.50           2562         607.00      2640.17
 1212.02        2979.75           2566         599.00      2605.29
 1212.06        2980.00           2569         607.00      2640.17
 1212.09        2980.25           2573         596.00      2592.21
 1212.12        2980.50           2577         588.00      2557.33
 1212.15        2980.75           2580         600.00      2609.65
 1212.18        2981.00           2584         576.00      2505.01
 1212.21        2981.25           2587         576.00      2505.01
 1212.24        2981.50           2591         586.00      2548.61
 1212.27        2981.75           2594         566.00      2461.41
 1212.30        2982.00           2598         584.00      2539.89
 1212.33        2982.25           2601         592.00      2574.77
 1212.36        2982.50           2605         569.00      2474.49
 1212.39        2982.75           2609         562.00      2443.97
 1212.42        2983.00           2612         564.00      2452.69
 1212.45        2983.25           2616         548.00      2382.93
 1212.48        2983.50           2619         567.00      2465.77
 1212.51        2983.75           2623         559.00      2430.89
 1212.54        2984.00           2626         553.00      2404.73
HS scan finished at 20:12:46
end
