************************************************************
  HS Scan of (1) Internal mercury lamp
************************************************************
Integration time is 0.2294 seconds per sample
dh180418Reading 51.44 .94 3.52pr1000
************************************************************
Dead Time -------------------------  3.4E-08 
Number of Cycles Used -------------  4 
Starting Wavelength (Angstroms) ---  2950 
Final Wavelength (Angstoms) -------  2984 
Wavelength Increment (Angstroms) --  .25 
Filter Wheel #1 Position ---------- (1) Ground quartz diffuser (ND=2.32)
Filter Wheel #2 Position ---------- (1) Neutral Density 0.494



************************************************************
HS scan start time = 02:35:04
Dark Count =  2.6 


Time (GMT)  Wavelength (Ang)  Step Number  Raw Counts  Counts/Second

  155.96        2950.00           2144          64.00       267.66
  156.15        2950.25           2147          66.00       276.38
  156.18        2950.50           2151          53.00       219.71
  156.21        2950.75           2155          60.00       250.22
  156.25        2951.00           2158          60.00       250.22
  156.28        2951.25           2162          63.00       263.30
  156.31        2951.50           2165          57.00       237.14
  156.34        2951.75           2169          60.00       250.22
  156.37        2952.00           2172          64.00       267.66
  156.40        2952.25           2176          63.00       263.30
  156.43        2952.50           2179          56.00       232.78
  156.46        2952.75           2183          67.00       280.74
  156.49        2953.00           2186          63.00       263.30
  156.52        2953.25           2190          61.00       254.58
  156.55        2953.50           2193          66.00       276.38
  156.58        2953.75           2197          63.00       263.30
  156.61        2954.00           2200          64.00       267.66
  156.64        2954.25           2204          61.00       254.58
  156.67        2954.50           2208          70.00       293.81
  156.70        2954.75           2211          65.00       272.02
  156.73        2955.00           2215          67.00       280.74
  156.77        2955.25           2218          64.00       267.66
  156.80        2955.50           2222          69.00       289.45
  156.83        2955.75           2225          65.00       272.02
  156.86        2956.00           2229          68.00       285.09
  156.89        2956.25           2232          72.00       302.53
  156.92        2956.50           2236          62.00       258.94
  156.95        2956.75           2239          67.00       280.74
  156.98        2957.00           2243          78.00       328.69
  157.01        2957.25           2246          69.00       289.45
  157.04        2957.50           2250          71.00       298.17
  157.07        2957.75           2254          73.00       306.89
  157.10        2958.00           2257          73.00       306.89
  157.13        2958.25           2261          72.00       302.53
  157.16        2958.50           2264          76.00       319.97
  157.19        2958.75           2268          70.00       293.81
  157.22        2959.00           2271          78.00       328.69
  157.25        2959.25           2275          81.00       341.77
  157.29        2959.50           2278          83.00       350.48
  157.32        2959.75           2282          95.00       402.80
  157.35        2960.00           2285          76.00       319.97
  157.38        2960.25           2289          89.00       376.64
  157.41        2960.50           2293          85.00       359.20
  157.44        2960.75           2296          99.00       420.23
  157.47        2961.00           2300         147.00       629.48
  157.50        2961.25           2303         283.00      1222.37
  157.53        2961.50           2307         985.00      4283.10
  157.56        2961.75           2310        1707.00      7431.70
  157.59        2962.00           2314        2980.00     12984.81
  157.62        2962.25           2317        3991.00     17396.51
  157.65        2962.50           2321        5399.00     23542.81
  157.68        2962.75           2324        6310.00     27520.95
  157.71        2963.00           2328        7592.00     33120.97
  157.74        2963.25           2331        8766.00     38251.11
  157.77        2963.50           2335       10091.00     44043.24
  157.81        2963.75           2339       11458.00     50021.36
  157.84        2964.00           2342       12535.00     54732.98
  157.87        2964.25           2346       14197.00     62006.80
  157.90        2964.50           2349       15074.00     65846.47
  157.93        2964.75           2353       16263.00     71053.75
  157.96        2965.00           2356       16979.00     74190.40
  157.99        2965.25           2360       18350.00     80198.34
  158.02        2965.50           2363       19296.00     84345.28
  158.05        2965.75           2367       20400.00     89186.34
  158.09        2966.00           2370       22361.00     97789.29
  158.13        2966.25           2374       23418.00    102428.50
  158.16        2966.50           2378       23983.00    104908.90
  158.19        2966.75           2381       24022.00    105080.10
  158.22        2967.00           2385       23508.00    102823.50
  158.25        2967.25           2388       23499.00    102784.00
  158.28        2967.50           2392       23712.00    103719.10
  158.31        2967.75           2395       23607.00    103258.10
  158.34        2968.00           2399       22616.00     98908.34
  158.37        2968.25           2402       21667.00     94744.12
  158.40        2968.50           2406       20486.00     89563.52
  158.43        2968.75           2409       19546.00     85441.40
  158.46        2969.00           2413       18279.00     79887.15
  158.49        2969.25           2417       16968.00     74142.21
  158.52        2969.50           2420       15900.00     69463.78
  158.55        2969.75           2424       14467.00     63188.80
  158.59        2970.00           2427       13548.00     59165.99
  158.62        2970.25           2431       12175.00     53157.89
  158.65        2970.50           2434       11048.00     48228.11
  158.68        2970.75           2438        9906.00     43234.39
  158.71        2971.00           2441        8761.00     38229.26
  158.74        2971.25           2445        7367.00     32137.98
  158.77        2971.50           2449        5851.00     25516.46
  158.80        2971.75           2452        4704.00     20508.63
  158.83        2972.00           2456        3305.00     14402.87
  158.86        2972.25           2459        2446.00     10655.12
  158.89        2972.50           2463        1279.00      5565.13
  158.92        2972.75           2466         634.00      2752.66
  158.95        2973.00           2470         206.00       886.69
  158.98        2973.25           2473         116.00       494.34
  159.01        2973.50           2477         102.00       433.31
  159.04        2973.75           2481          87.00       367.92
  159.07        2974.00           2484         113.00       481.26
  159.10        2974.25           2488          87.00       367.92
  159.14        2974.50           2491          88.00       372.28
  159.17        2974.75           2495          86.00       363.56
  159.20        2975.00           2498          88.00       372.28
  159.23        2975.25           2502          78.00       328.69
  159.26        2975.50           2505          94.00       398.44
  159.29        2975.75           2509          83.00       350.48
  159.32        2976.00           2512          79.00       333.05
  159.35        2976.25           2516          76.00       319.97
  159.38        2976.50           2520          72.00       302.53
  159.41        2976.75           2523          76.00       319.97
  159.44        2977.00           2527          73.00       306.89
  159.47        2977.25           2530          66.00       276.38
  159.50        2977.50           2534          76.00       319.97
  159.53        2977.75           2537          80.00       337.41
  159.56        2978.00           2541          69.00       289.45
  159.59        2978.25           2544          74.00       311.25
  159.63        2978.50           2548          67.00       280.74
  159.66        2978.75           2552          80.00       337.41
  159.69        2979.00           2555          70.00       293.81
  159.72        2979.25           2559          66.00       276.38
  159.75        2979.50           2562          81.00       341.77
  159.78        2979.75           2566          62.00       258.94
  159.81        2980.00           2569          74.00       311.25
  159.84        2980.25           2573          73.00       306.89
  159.87        2980.50           2577          73.00       306.89
  159.90        2980.75           2580          67.00       280.74
  159.93        2981.00           2584          63.00       263.30
  159.96        2981.25           2587          72.00       302.53
  159.99        2981.50           2591          70.00       293.81
  160.02        2981.75           2594          68.00       285.09
  160.05        2982.00           2598          66.00       276.38
  160.08        2982.25           2601          61.00       254.58
  160.11        2982.50           2605          60.00       250.22
  160.15        2982.75           2609          63.00       263.30
  160.18        2983.00           2612          66.00       276.38
  160.21        2983.25           2616          66.00       276.38
  160.24        2983.50           2619          60.00       250.22
  160.27        2983.75           2623          64.00       267.66
  160.30        2984.00           2626          57.00       237.14
HS scan finished at 02:40:31
end
************************************************************
  HS Scan of (1) Internal mercury lamp
************************************************************
Integration time is 0.2294 seconds per sample
dh180418Reading 51.44 .94 3.72pr1000
************************************************************
Dead Time -------------------------  3.4E-08 
Number of Cycles Used -------------  4 
Starting Wavelength (Angstroms) ---  2950 
Final Wavelength (Angstoms) -------  2984 
Wavelength Increment (Angstroms) --  .25 
Filter Wheel #1 Position ---------- (1) Ground quartz diffuser (ND=2.32)
Filter Wheel #2 Position ---------- (1) Neutral Density 0.494



************************************************************
HS scan start time = 20:07:28
Dark Count =  4.6 


Time (GMT)  Wavelength (Ang)  Step Number  Raw Counts  Counts/Second

 1208.36        2950.00           2144          65.00       263.30
 1208.55        2950.25           2147          59.00       237.14
 1208.58        2950.50           2151          71.00       289.45
 1208.61        2950.75           2155          71.00       289.45
 1208.64        2951.00           2158          57.00       228.42
 1208.67        2951.25           2162          66.00       267.66
 1208.71        2951.50           2165          70.00       285.09
 1208.74        2951.75           2169          79.00       324.33
 1208.77        2952.00           2172          70.00       285.09
 1208.80        2952.25           2176          68.00       276.38
 1208.83        2952.50           2179          72.00       293.81
 1208.86        2952.75           2183          63.00       254.58
 1208.89        2953.00           2186          74.00       302.53
 1208.92        2953.25           2190          73.00       298.17
 1208.95        2953.50           2193          78.00       319.97
 1208.98        2953.75           2197          74.00       302.53
 1209.01        2954.00           2200          83.00       341.77
 1209.04        2954.25           2204          75.00       306.89
 1209.07        2954.50           2208          72.00       293.81
 1209.10        2954.75           2211          82.00       337.41
 1209.13        2955.00           2215          83.00       341.77
 1209.16        2955.25           2218          77.00       315.61
 1209.19        2955.50           2222          75.00       306.89
 1209.22        2955.75           2225          75.00       306.89
 1209.26        2956.00           2229          81.00       333.05
 1209.29        2956.25           2232          72.00       293.81
 1209.32        2956.50           2236          79.00       324.33
 1209.35        2956.75           2239          77.00       315.61
 1209.38        2957.00           2243          75.00       306.89
 1209.41        2957.25           2246          85.00       350.48
 1209.44        2957.50           2250          83.00       341.77
 1209.47        2957.75           2254          87.00       359.20
 1209.50        2958.00           2257          85.00       350.48
 1209.53        2958.25           2261          90.00       372.28
 1209.56        2958.50           2264          83.00       341.77
 1209.59        2958.75           2268          89.00       367.92
 1209.62        2959.00           2271          89.00       367.92
 1209.65        2959.25           2275          97.00       402.80
 1209.68        2959.50           2278          89.00       367.92
 1209.71        2959.75           2282          82.00       337.41
 1209.74        2960.00           2285          93.00       385.36
 1209.78        2960.25           2289          89.00       367.92
 1209.81        2960.50           2293         110.00       459.47
 1209.84        2960.75           2296          97.00       402.80
 1209.87        2961.00           2300         147.00       620.76
 1209.90        2961.25           2303         272.00      1165.70
 1209.93        2961.50           2307         979.00      4248.22
 1209.96        2961.75           2310        1877.00      8164.43
 1209.99        2962.00           2314        3177.00     13835.63
 1210.02        2962.25           2317        4177.00     18199.58
 1210.05        2962.50           2321        5666.00     24699.90
 1210.08        2962.75           2324        6595.00     28756.96
 1210.11        2963.00           2328        8074.00     35218.26
 1210.14        2963.25           2331        9444.00     41205.91
 1210.17        2963.50           2335       11001.00     48013.81
 1210.20        2963.75           2339       12482.00     54492.33
 1210.23        2964.00           2342       14049.00     61350.16
 1210.26        2964.25           2346       15483.00     67628.75
 1210.30        2964.50           2349       16378.00     71548.74
 1210.33        2964.75           2353       17858.00     78033.27
 1210.36        2965.00           2356       19307.00     84384.74
 1210.39        2965.25           2360       21009.00     91848.72
 1210.42        2965.50           2363       22233.00     97218.82
 1210.45        2965.75           2367       23862.00    104368.80
 1210.48        2966.00           2370       24974.00    109251.60
 1210.51        2966.25           2374       26307.00    115107.00
 1210.54        2966.50           2378       26961.00    117980.60
 1210.57        2966.75           2381       27132.00    118732.10
 1210.60        2967.00           2385       27040.00    118327.80
 1210.63        2967.25           2388       26966.00    118002.60
 1210.66        2967.50           2392       26960.00    117976.20
 1210.70        2967.75           2395       26957.00    117963.00
 1210.73        2968.00           2399       26152.00    114426.00
 1210.76        2968.25           2402       25328.00    110806.40
 1210.79        2968.50           2406       23616.00    103288.90
 1210.82        2968.75           2409       22389.00     97903.38
 1210.85        2969.00           2413       20684.00     90423.18
 1210.88        2969.25           2417       18961.00     82867.85
 1210.91        2969.50           2420       17878.00     78120.93
 1210.94        2969.75           2424       16434.00     71794.05
 1210.97        2970.00           2427       15443.00     67453.57
 1211.00        2970.25           2431       13790.00     60216.45
 1211.03        2970.50           2434       12526.00     54684.85
 1211.06        2970.75           2438       10883.00     47497.75
 1211.09        2971.00           2441        9532.00     41590.60
 1211.12        2971.25           2445        8078.00     35235.74
 1211.15        2971.50           2449        6488.00     28289.62
 1211.18        2971.75           2452        5369.00     23403.10
 1211.22        2972.00           2456        3680.00     16030.53
 1211.25        2972.25           2459        2474.00     10768.55
 1211.28        2972.50           2463        1176.00      5107.25
 1211.31        2972.75           2466         563.00      2434.38
 1211.34        2973.00           2470         203.00       864.89
 1211.37        2973.25           2473         136.00       572.81
 1211.40        2973.50           2477         107.00       446.39
 1211.43        2973.75           2481         111.00       463.83
 1211.46        2974.00           2484         124.00       520.50
 1211.49        2974.25           2488         109.00       455.11
 1211.52        2974.50           2491         102.00       424.59
 1211.55        2974.75           2495         104.00       433.31
 1211.58        2975.00           2498          97.00       402.80
 1211.61        2975.25           2502          94.00       389.72
 1211.64        2975.50           2505          99.00       411.51
 1211.67        2975.75           2509          87.00       359.20
 1211.70        2976.00           2512          93.00       385.36
 1211.74        2976.25           2516          83.00       341.77
 1211.77        2976.50           2520          82.00       337.41
 1211.80        2976.75           2523         106.00       442.03
 1211.83        2977.00           2527          83.00       341.77
 1211.86        2977.25           2530          81.00       333.05
 1211.89        2977.50           2534          85.00       350.48
 1211.92        2977.75           2537          82.00       337.41
 1211.95        2978.00           2541          79.00       324.33
 1211.98        2978.25           2544          81.00       333.05
 1212.01        2978.50           2548          73.00       298.17
 1212.04        2978.75           2552          68.00       276.38
 1212.07        2979.00           2555          76.00       311.25
 1212.10        2979.25           2559          72.00       293.81
 1212.13        2979.50           2562          71.00       289.45
 1212.16        2979.75           2566          72.00       293.81
 1212.19        2980.00           2569          73.00       298.17
 1212.22        2980.25           2573          80.00       328.69
 1212.26        2980.50           2577          76.00       311.25
 1212.29        2980.75           2580          81.00       333.05
 1212.32        2981.00           2584          70.00       285.09
 1212.35        2981.25           2587          69.00       280.74
 1212.38        2981.50           2591          74.00       302.53
 1212.41        2981.75           2594          67.00       272.02
 1212.44        2982.00           2598          80.00       328.69
 1212.48        2982.25           2601          74.00       302.53
 1212.52        2982.50           2605          69.00       280.74
 1212.55        2982.75           2609          73.00       298.17
 1212.58        2983.00           2612          59.00       237.14
 1212.61        2983.25           2616          64.00       258.94
 1212.64        2983.50           2619          72.00       293.81
 1212.67        2983.75           2623          70.00       285.09
 1212.70        2984.00           2626          69.00       280.74
HS scan finished at 20:12:55
end
