************************************************************
  HS Scan of 
************************************************************
Integration time is 0.2294 seconds per sample
dh100417Reading 51.44 .94 3.03pr1000
************************************************************
Dead Time -------------------------  3.4E-08 
Number of Cycles Used -------------  4 
Starting Wavelength (Angstroms) ---  2950 
Final Wavelength (Angstoms) -------  2984 
Wavelength Increment (Angstroms) --  .25 
Filter Wheel #1 Position ---------- (1) Ground quartz diffuser (ND=2.32)
Filter Wheel #2 Position ---------- (1) Neutral Density 0.494



************************************************************
HS scan start time = 01:17:18
Dark Count =  .7 


Time (GMT)  Wavelength (Ang)  Step Number  Raw Counts  Counts/Second

   78.20        2950.00           2144         676.00      2944.06
   78.39        2950.25           2147         682.00      2970.22
   78.42        2950.50           2151         664.00      2891.74
   78.45        2950.75           2155         688.00      2996.38
   78.48        2951.00           2158         675.00      2939.70
   78.51        2951.25           2162         710.00      3092.30
   78.54        2951.50           2165         682.00      2970.22
   78.57        2951.75           2169         679.00      2957.14
   78.60        2952.00           2172         686.00      2987.66
   78.63        2952.25           2176         681.00      2965.86
   78.67        2952.50           2179         670.00      2917.90
   78.70        2952.75           2183         702.00      3057.42
   78.73        2953.00           2186         698.00      3039.98
   78.76        2953.25           2190         717.00      3122.83
   78.79        2953.50           2193         706.00      3074.86
   78.82        2953.75           2197         736.00      3205.67
   78.85        2954.00           2200         737.00      3210.03
   78.88        2954.25           2204         755.00      3288.51
   78.91        2954.50           2208         749.00      3262.35
   78.94        2954.75           2211         740.00      3223.11
   78.97        2955.00           2215         728.00      3170.79
   79.00        2955.25           2218         742.00      3231.83
   79.03        2955.50           2222         752.00      3275.43
   79.06        2955.75           2225         733.00      3192.59
   79.09        2956.00           2229         752.00      3275.43
   79.12        2956.25           2232         761.00      3314.67
   79.15        2956.50           2236         755.00      3288.51
   79.19        2956.75           2239         773.00      3366.99
   79.22        2957.00           2243         794.00      3458.56
   79.25        2957.25           2246         776.00      3380.07
   79.28        2957.50           2250         797.00      3471.64
   79.31        2957.75           2254         799.00      3480.36
   79.34        2958.00           2257         793.00      3454.20
   79.37        2958.25           2261         811.00      3532.68
   79.40        2958.50           2264         856.00      3728.90
   79.43        2958.75           2268         873.00      3803.02
   79.46        2959.00           2271         869.00      3785.58
   79.49        2959.25           2275         851.00      3707.09
   79.52        2959.50           2278         850.00      3702.73
   79.55        2959.75           2282         897.00      3907.67
   79.58        2960.00           2285         897.00      3907.67
   79.61        2960.25           2289         933.00      4064.64
   79.64        2960.50           2293         943.00      4108.25
   79.67        2960.75           2296         987.00      4300.11
   79.71        2961.00           2300        1092.00      4757.96
   79.74        2961.25           2303        1626.00      7086.71
   79.77        2961.50           2307        5843.00     25489.82
   79.80        2961.75           2310       12525.00     54697.53
   79.83        2962.00           2314       23194.00    101453.50
   79.86        2962.25           2317       33004.00    144576.90
   79.89        2962.50           2321       46066.00    202193.00
   79.92        2962.75           2324       56690.00    249222.80
   79.95        2963.00           2328       70829.00    312047.80
   79.98        2963.25           2331       81971.00    361746.80
   80.01        2963.50           2335       95654.00    423012.10
   80.04        2963.75           2339      108667.00    481516.90
   80.07        2964.00           2342      118231.00    524665.60
   80.10        2964.25           2346      133379.00    593269.50
   80.13        2964.50           2349      142952.00    636792.00
   80.16        2964.75           2353      154982.00    691670.30
   80.19        2965.00           2356      165053.00    737771.90
   80.23        2965.25           2360      177822.00    796435.40
   80.26        2965.50           2363      186741.00    837552.30
   80.29        2965.75           2367      199083.00    894642.50
   80.32        2966.00           2370      208761.00    939567.90
   80.35        2966.25           2374      219729.00    990650.70
   80.38        2966.50           2378      227664.00   1027720.00
   80.41        2966.75           2381      229495.00   1036288.00
   80.44        2967.00           2385      229917.00   1038263.00
   80.47        2967.25           2388      229589.00   1036728.00
   80.50        2967.50           2392      229323.00   1035483.00
   80.53        2967.75           2395      229009.00   1034013.00
   80.56        2968.00           2399      224607.00   1013428.00
   80.59        2968.25           2402      217638.00    980898.10
   80.62        2968.50           2406      205414.00    924015.30
   80.65        2968.75           2409      195335.00    877281.70
   80.68        2969.00           2413      183710.00    823566.20
   80.71        2969.25           2417      172190.00    770531.50
   80.75        2969.50           2420      162516.00    726144.60
   80.78        2969.75           2424      147825.00    658996.60
   80.81        2970.00           2427      136560.00    607717.10
   80.84        2970.25           2431      122465.00    543808.50
   80.87        2970.50           2434      113197.00    501938.50
   80.90        2970.75           2438       99453.00    440067.70
   80.93        2971.00           2441       88693.00    391812.20
   80.96        2971.25           2445       73218.00    322689.70
   80.99        2971.50           2449       59001.00    259473.00
   81.02        2971.75           2452       48980.00    215077.50
   81.05        2972.00           2456       36125.00    158322.90
   81.08        2972.25           2459       26494.00    115945.70
   81.11        2972.50           2463       14445.00     63100.80
   81.14        2972.75           2466        7103.00     30992.97
   81.17        2973.00           2470        2426.00     10576.17
   81.20        2973.25           2473        1371.00      5974.62
   81.23        2973.50           2477        1059.00      4614.06
   81.26        2973.75           2481        1015.00      4422.20
   81.30        2974.00           2484         972.00      4234.70
   81.33        2974.25           2488         954.00      4156.21
   81.36        2974.50           2491         936.00      4077.72
   81.39        2974.75           2495         927.00      4038.48
   81.42        2975.00           2498         923.00      4021.04
   81.45        2975.25           2502         902.00      3929.47
   81.48        2975.50           2505         878.00      3824.82
   81.51        2975.75           2509         870.00      3789.94
   81.54        2976.00           2512         891.00      3881.51
   81.57        2976.25           2516         846.00      3685.29
   81.60        2976.50           2520         835.00      3637.33
   81.63        2976.75           2523         860.00      3746.34
   81.66        2977.00           2527         824.00      3589.37
   81.69        2977.25           2530         815.00      3550.12
   81.72        2977.50           2534         804.00      3502.16
   81.75        2977.75           2537         788.00      3432.40
   81.78        2978.00           2541         791.00      3445.48
   81.82        2978.25           2544         779.00      3393.16
   81.85        2978.50           2548         759.00      3305.95
   81.88        2978.75           2552         775.00      3375.71
   81.91        2979.00           2555         753.00      3279.79
   81.94        2979.25           2559         767.00      3340.83
   81.97        2979.50           2562         712.00      3101.02
   82.00        2979.75           2566         727.00      3166.43
   82.03        2980.00           2569         724.00      3153.35
   82.06        2980.25           2573         730.00      3179.51
   82.09        2980.50           2577         701.00      3053.06
   82.12        2980.75           2580         701.00      3053.06
   82.15        2981.00           2584         717.00      3122.83
   82.18        2981.25           2587         725.00      3157.71
   82.21        2981.50           2591         705.00      3070.50
   82.24        2981.75           2594         723.00      3148.99
   82.27        2982.00           2598         715.00      3114.10
   82.31        2982.25           2601         689.00      3000.74
   82.34        2982.50           2605         712.00      3101.02
   82.37        2982.75           2609         706.00      3074.86
   82.40        2983.00           2612         723.00      3148.99
   82.43        2983.25           2616         686.00      2987.66
   82.46        2983.50           2619         682.00      2970.22
   82.49        2983.75           2623         695.00      3026.90
   82.52        2984.00           2626         691.00      3009.46
HS scan finished at 01:22:44
end
************************************************************
  HS Scan of 
************************************************************
Integration time is 0.2294 seconds per sample
dh100417Reading 51.44 .94 3.21pr1000
************************************************************
Dead Time -------------------------  3.4E-08 
Number of Cycles Used -------------  4 
Starting Wavelength (Angstroms) ---  2950 
Final Wavelength (Angstoms) -------  2984 
Wavelength Increment (Angstroms) --  .25 
Filter Wheel #1 Position ---------- (1) Ground quartz diffuser (ND=2.32)
Filter Wheel #2 Position ---------- (1) Neutral Density 0.494



************************************************************
HS scan start time = 19:37:25
Dark Count =  1.4 


Time (GMT)  Wavelength (Ang)  Step Number  Raw Counts  Counts/Second

 1178.31        2950.00           2144         655.00      2849.45
 1178.50        2950.25           2147         652.00      2836.37
 1178.53        2950.50           2151         648.00      2818.93
 1178.57        2950.75           2155         643.00      2797.13
 1178.60        2951.00           2158         672.00      2923.57
 1178.63        2951.25           2162         635.00      2762.25
 1178.66        2951.50           2165         636.00      2766.61
 1178.69        2951.75           2169         647.00      2814.57
 1178.72        2952.00           2172         650.00      2827.65
 1178.75        2952.25           2176         666.00      2897.41
 1178.78        2952.50           2179         659.00      2866.89
 1178.81        2952.75           2183         692.00      3010.77
 1178.84        2953.00           2186         657.00      2858.17
 1178.87        2953.25           2190         671.00      2919.21
 1178.90        2953.50           2193         697.00      3032.57
 1178.93        2953.75           2197         664.00      2888.69
 1178.96        2954.00           2200         693.00      3015.13
 1178.99        2954.25           2204         673.00      2927.93
 1179.02        2954.50           2208         679.00      2954.09
 1179.05        2954.75           2211         669.00      2910.49
 1179.08        2955.00           2215         696.00      3028.21
 1179.12        2955.25           2218         711.00      3093.61
 1179.15        2955.50           2222         690.00      3002.05
 1179.18        2955.75           2225         714.00      3106.69
 1179.21        2956.00           2229         734.00      3193.90
 1179.24        2956.25           2232         718.00      3124.13
 1179.27        2956.50           2236         724.00      3150.29
 1179.30        2956.75           2239         784.00      3411.90
 1179.33        2957.00           2243         731.00      3180.81
 1179.36        2957.25           2246         761.00      3311.62
 1179.39        2957.50           2250         735.00      3198.26
 1179.42        2957.75           2254         740.00      3220.06
 1179.45        2958.00           2257         765.00      3329.06
 1179.48        2958.25           2261         777.00      3381.38
 1179.51        2958.50           2264         782.00      3403.18
 1179.54        2958.75           2268         792.00      3446.79
 1179.57        2959.00           2271         827.00      3599.39
 1179.60        2959.25           2275         793.00      3451.15
 1179.64        2959.50           2278         845.00      3677.88
 1179.67        2959.75           2282         840.00      3656.08
 1179.70        2960.00           2285         848.00      3690.96
 1179.73        2960.25           2289         871.00      3791.25
 1179.76        2960.50           2293         878.00      3821.77
 1179.79        2960.75           2296         907.00      3948.22
 1179.82        2961.00           2300        1004.00      4371.18
 1179.85        2961.25           2303        1386.00      6036.98
 1179.88        2961.50           2307        4414.00     19247.99
 1179.91        2961.75           2310       10238.00     44691.22
 1179.94        2962.00           2314       19387.00     84749.52
 1179.97        2962.25           2317       27556.00    120609.50
 1180.00        2962.50           2321       39153.00    171668.60
 1180.03        2962.75           2324       48595.00    213371.50
 1180.06        2963.00           2328       61730.00    271583.40
 1180.09        2963.25           2331       71868.00    316672.00
 1180.12        2963.50           2335       84217.00    371782.50
 1180.16        2963.75           2339       95275.00    421308.50
 1180.19        2964.00           2342      104761.00    463928.20
 1180.22        2964.25           2346      117943.00    523361.30
 1180.25        2964.50           2349      126837.00    563598.50
 1180.28        2964.75           2353      139521.00    621175.20
 1180.31        2965.00           2356      148331.00    661301.00
 1180.34        2965.25           2360      159274.00    711296.50
 1180.37        2965.50           2363      167593.00    749419.10
 1180.40        2965.75           2367      179788.00    805485.50
 1180.43        2966.00           2370      188657.00    846397.10
 1180.46        2966.25           2374      199295.00    895621.90
 1180.49        2966.50           2378      207236.00    932476.30
 1180.52        2966.75           2381      209914.00    944926.20
 1180.55        2967.00           2385      211046.00    950192.00
 1180.58        2967.25           2388      211150.00    950676.00
 1180.61        2967.50           2392      211198.00    950899.20
 1180.64        2967.75           2395      210566.00    947958.90
 1180.68        2968.00           2399      208543.00    938551.10
 1180.71        2968.25           2402      203645.00    915798.70
 1180.74        2968.50           2406      192887.00    865950.40
 1180.77        2968.75           2409      184032.00    825048.20
 1180.80        2969.00           2413      173398.00    776080.50
 1180.83        2969.25           2417      161959.00    723589.90
 1180.86        2969.50           2420      153584.00    685279.00
 1180.89        2969.75           2424      140559.00    625897.10
 1180.92        2970.00           2427      130505.00    580225.40
 1180.95        2970.25           2431      118138.00    524242.30
 1180.98        2970.50           2434      109381.00    484730.70
 1181.01        2970.75           2438       97063.00    429332.30
 1181.04        2971.00           2441       88051.00    388935.00
 1181.07        2971.25           2445       75515.00    332926.00
 1181.10        2971.50           2449       61368.00    269976.00
 1181.13        2971.75           2452       51302.00    225349.50
 1181.16        2972.00           2456       38536.00    168947.70
 1181.20        2972.25           2459       29017.00    127032.20
 1181.23        2972.50           2463       16881.00     73766.29
 1181.26        2972.75           2466        9352.00     40817.73
 1181.29        2973.00           2470        3261.00     14216.11
 1181.32        2973.25           2473        1518.00      6612.65
 1181.35        2973.50           2477        1050.00      4571.77
 1181.38        2973.75           2481         963.00      4192.40
 1181.41        2974.00           2484         903.00      3930.78
 1181.44        2974.25           2488         922.00      4013.63
 1181.47        2974.50           2491         904.00      3935.14
 1181.50        2974.75           2495         895.00      3895.90
 1181.53        2975.00           2498         883.00      3843.57
 1181.56        2975.25           2502         847.00      3686.60
 1181.59        2975.50           2505         828.00      3603.75
 1181.62        2975.75           2509         819.00      3564.51
 1181.65        2976.00           2512         813.00      3538.35
 1181.68        2976.25           2516         792.00      3446.79
 1181.72        2976.50           2520         812.00      3533.99
 1181.75        2976.75           2523         760.00      3307.26
 1181.78        2977.00           2527         784.00      3411.90
 1181.81        2977.25           2530         772.00      3359.58
 1181.84        2977.50           2534         745.00      3241.86
 1181.87        2977.75           2537         758.00      3298.54
 1181.90        2978.00           2541         718.00      3124.13
 1181.93        2978.25           2544         770.00      3350.86
 1181.96        2978.50           2548         714.00      3106.69
 1181.99        2978.75           2552         699.00      3041.29
 1182.02        2979.00           2555         728.00      3167.73
 1182.05        2979.25           2559         711.00      3093.61
 1182.08        2979.50           2562         748.00      3254.94
 1182.11        2979.75           2566         717.00      3119.77
 1182.14        2980.00           2569         673.00      2927.93
 1182.17        2980.25           2573         688.00      2993.33
 1182.20        2980.50           2577         681.00      2962.81
 1182.24        2980.75           2580         713.00      3102.33
 1182.27        2981.00           2584         680.00      2958.45
 1182.30        2981.25           2587         679.00      2954.09
 1182.33        2981.50           2591         680.00      2958.45
 1182.36        2981.75           2594         679.00      2954.09
 1182.39        2982.00           2598         658.00      2862.53
 1182.42        2982.25           2601         666.00      2897.41
 1182.45        2982.50           2605         673.00      2927.93
 1182.48        2982.75           2609         653.00      2840.73
 1182.51        2983.00           2612         665.00      2893.05
 1182.54        2983.25           2616         655.00      2849.45
 1182.57        2983.50           2619         621.00      2701.21
 1182.60        2983.75           2623         672.00      2923.57
 1182.63        2984.00           2626         657.00      2858.17
HS scan finished at 19:42:51
end
