************************************************************
  HS Scan of 
************************************************************
Integration time is 0.2294 seconds per sample
dh120417Reading 51.44 .94 2.86pr1000
************************************************************
Dead Time -------------------------  3.4E-08 
Number of Cycles Used -------------  4 
Starting Wavelength (Angstroms) ---  2950 
Final Wavelength (Angstoms) -------  2984 
Wavelength Increment (Angstroms) --  .25 
Filter Wheel #1 Position ---------- (1) Ground quartz diffuser (ND=2.32)
Filter Wheel #2 Position ---------- (1) Neutral Density 0.494



************************************************************
HS scan start time = 01:32:00
Dark Count =  .8 


Time (GMT)  Wavelength (Ang)  Step Number  Raw Counts  Counts/Second

   92.89        2950.00           2144         683.00      2974.15
   93.09        2950.25           2147         692.00      3013.39
   93.12        2950.50           2151         682.00      2969.79
   93.15        2950.75           2155         709.00      3087.51
   93.18        2951.00           2158         702.00      3056.99
   93.21        2951.25           2162         699.00      3043.91
   93.24        2951.50           2165         696.00      3030.83
   93.27        2951.75           2169         684.00      2978.51
   93.30        2952.00           2172         713.00      3104.95
   93.33        2952.25           2176         721.00      3139.83
   93.36        2952.50           2179         747.00      3253.19
   93.39        2952.75           2183         724.00      3152.91
   93.42        2953.00           2186         702.00      3056.99
   93.45        2953.25           2190         729.00      3174.71
   93.48        2953.50           2193         725.00      3157.27
   93.51        2953.75           2197         748.00      3257.55
   93.54        2954.00           2200         730.00      3179.07
   93.57        2954.25           2204         729.00      3174.71
   93.61        2954.50           2208         753.00      3279.35
   93.64        2954.75           2211         775.00      3375.28
   93.67        2955.00           2215         749.00      3261.91
   93.70        2955.25           2218         775.00      3375.28
   93.73        2955.50           2222         778.00      3388.36
   93.76        2955.75           2225         777.00      3384.00
   93.79        2956.00           2229         770.00      3353.48
   93.82        2956.25           2232         752.00      3274.99
   93.85        2956.50           2236         779.00      3392.72
   93.88        2956.75           2239         801.00      3488.64
   93.91        2957.00           2243         812.00      3536.61
   93.94        2957.25           2246         822.00      3580.21
   93.97        2957.50           2250         821.00      3575.85
   94.00        2957.75           2254         818.00      3562.77
   94.03        2958.00           2257         839.00      3654.33
   94.06        2958.25           2261         854.00      3719.74
   94.09        2958.50           2264         856.00      3728.46
   94.13        2958.75           2268         851.00      3706.66
   94.16        2959.00           2271         860.00      3745.90
   94.19        2959.25           2275         860.00      3745.90
   94.22        2959.50           2278         888.00      3867.99
   94.25        2959.75           2282         907.00      3950.84
   94.28        2960.00           2285         925.00      4029.32
   94.31        2960.25           2289         932.00      4059.85
   94.34        2960.50           2293         990.00      4312.75
   94.37        2960.75           2296         993.00      4325.83
   94.40        2961.00           2300        1085.00      4727.00
   94.43        2961.25           2303        1354.00      5900.05
   94.46        2961.50           2307        4111.00     17928.10
   94.49        2961.75           2310       10575.00     46167.45
   94.52        2962.00           2314       22687.00     99227.84
   94.55        2962.25           2317       31707.00    138867.70
   94.58        2962.50           2321       43010.00    188692.30
   94.61        2962.75           2324       51954.00    228238.60
   94.65        2963.00           2328       65745.00    289426.10
   94.68        2963.25           2331       75900.00    334645.70
   94.71        2963.50           2335       89549.00    395644.90
   94.74        2963.75           2339      102979.00    455915.10
   94.77        2964.00           2342      112951.00    500828.30
   94.80        2964.25           2346      125739.00    558627.80
   94.83        2964.50           2349      135579.00    603259.60
   94.86        2964.75           2353      149407.00    666212.10
   94.89        2965.00           2356      159056.00    710301.60
   94.92        2965.25           2360      171696.00    768261.30
   94.95        2965.50           2363      181783.00    814680.90
   94.98        2965.75           2367      195345.00    877327.50
   95.01        2966.00           2370      204359.00    919116.00
   95.04        2966.25           2374      217371.00    979652.80
   95.07        2966.50           2378      223771.00   1009521.00
   95.10        2966.75           2381      225587.00   1018008.00
   95.13        2967.00           2385      226564.00   1022575.00
   95.17        2967.25           2388      226251.00   1021112.00
   95.20        2967.50           2392      226068.00   1020256.00
   95.23        2967.75           2395      225065.00   1015568.00
   95.26        2968.00           2399      219453.00    989362.60
   95.29        2968.25           2402      211286.00    951311.60
   95.32        2968.50           2406      200696.00    902120.00
   95.35        2968.75           2409      191563.00    859830.10
   95.38        2969.00           2413      179678.00    804981.60
   95.41        2969.25           2417      167050.00    746930.50
   95.44        2969.50           2420      157929.00    705145.10
   95.47        2969.75           2424      144368.00    643240.30
   95.50        2970.00           2427      133386.00    593300.80
   95.53        2970.25           2431      119817.00    531832.90
   95.56        2970.50           2434      109864.00    486909.90
   95.59        2970.75           2438       96640.00    427436.40
   95.62        2971.00           2441       86921.00    383880.20
   95.65        2971.25           2445       72190.00    318109.10
   95.69        2971.50           2449       58316.00    256433.60
   95.72        2971.75           2452       48448.00    212723.90
   95.75        2972.00           2456       36192.00    158617.70
   95.78        2972.25           2459       26851.00    117513.90
   95.81        2972.50           2463       14856.00     64899.81
   95.84        2972.75           2466        7905.00     34496.41
   95.87        2973.00           2470        2243.00      9777.44
   95.90        2973.25           2473        1281.00      5581.70
   95.93        2973.50           2477        1043.00      4543.86
   95.96        2973.75           2481        1058.00      4609.27
   95.99        2974.00           2484         985.00      4290.95
   96.02        2974.25           2488         973.00      4238.62
   96.05        2974.50           2491         957.00      4168.86
   96.08        2974.75           2495         936.00      4077.29
   96.11        2975.00           2498         935.00      4072.93
   96.14        2975.25           2502         928.00      4042.40
   96.17        2975.50           2505         917.00      3994.44
   96.20        2975.75           2509         881.00      3837.47
   96.24        2976.00           2512         850.00      3702.30
   96.27        2976.25           2516         864.00      3763.34
   96.30        2976.50           2520         821.00      3575.85
   96.33        2976.75           2523         842.00      3667.41
   96.36        2977.00           2527         856.00      3728.46
   96.39        2977.25           2530         826.00      3597.65
   96.42        2977.50           2534         814.00      3545.33
   96.45        2977.75           2537         798.00      3475.56
   96.48        2978.00           2541         813.00      3540.97
   96.51        2978.25           2544         805.00      3506.09
   96.54        2978.50           2548         786.00      3423.24
   96.57        2978.75           2552         804.00      3501.72
   96.60        2979.00           2555         747.00      3253.19
   96.63        2979.25           2559         794.00      3458.12
   96.66        2979.50           2562         758.00      3301.16
   96.69        2979.75           2566         767.00      3340.40
   96.72        2980.00           2569         771.00      3357.84
   96.76        2980.25           2573         732.00      3187.79
   96.79        2980.50           2577         746.00      3248.83
   96.82        2980.75           2580         754.00      3283.71
   96.85        2981.00           2584         738.00      3213.95
   96.88        2981.25           2587         749.00      3261.91
   96.91        2981.50           2591         720.00      3135.47
   96.94        2981.75           2594         717.00      3122.39
   96.97        2982.00           2598         705.00      3070.07
   97.00        2982.25           2601         729.00      3174.71
   97.03        2982.50           2605         708.00      3083.15
   97.06        2982.75           2609         710.00      3091.87
   97.09        2983.00           2612         686.00      2987.23
   97.12        2983.25           2616         672.00      2926.19
   97.15        2983.50           2619         720.00      3135.47
   97.18        2983.75           2623         704.00      3065.71
   97.21        2984.00           2626         692.00      3013.39
HS scan finished at 01:37:26
end
************************************************************
  HS Scan of 
************************************************************
Integration time is 0.2294 seconds per sample
dh120417Reading 51.44 .94 3.23pr1000
************************************************************
Dead Time -------------------------  3.4E-08 
Number of Cycles Used -------------  4 
Starting Wavelength (Angstroms) ---  2950 
Final Wavelength (Angstoms) -------  2984 
Wavelength Increment (Angstroms) --  .25 
Filter Wheel #1 Position ---------- (1) Ground quartz diffuser (ND=2.32)
Filter Wheel #2 Position ---------- (1) Neutral Density 0.494



************************************************************
HS scan start time = 19:37:26
Dark Count =  1.7 


Time (GMT)  Wavelength (Ang)  Step Number  Raw Counts  Counts/Second

 1178.34        2950.00           2144         645.00      2804.54
 1178.53        2950.25           2147         639.00      2778.38
 1178.56        2950.50           2151         662.00      2878.66
 1178.59        2950.75           2155         657.00      2856.86
 1178.63        2951.00           2158         654.00      2843.78
 1178.66        2951.25           2162         666.00      2896.10
 1178.69        2951.50           2165         668.00      2904.82
 1178.72        2951.75           2169         695.00      3022.54
 1178.75        2952.00           2172         661.00      2874.30
 1178.78        2952.25           2176         687.00      2987.66
 1178.81        2952.50           2179         699.00      3039.98
 1178.84        2952.75           2183         685.00      2978.94
 1178.87        2953.00           2186         656.00      2852.50
 1178.90        2953.25           2190         678.00      2948.42
 1178.93        2953.50           2193         691.00      3005.10
 1178.96        2953.75           2197         701.00      3048.70
 1178.99        2954.00           2200         688.00      2992.02
 1179.02        2954.25           2204         666.00      2896.10
 1179.05        2954.50           2208         698.00      3035.62
 1179.08        2954.75           2211         689.00      2996.38
 1179.11        2955.00           2215         695.00      3022.54
 1179.15        2955.25           2218         688.00      2992.02
 1179.18        2955.50           2222         707.00      3074.86
 1179.21        2955.75           2225         718.00      3122.83
 1179.24        2956.00           2229         726.00      3157.71
 1179.27        2956.25           2232         758.00      3297.23
 1179.30        2956.50           2236         728.00      3166.43
 1179.33        2956.75           2239         730.00      3175.15
 1179.36        2957.00           2243         759.00      3301.59
 1179.39        2957.25           2246         726.00      3157.71
 1179.42        2957.50           2250         752.00      3271.07
 1179.45        2957.75           2254         752.00      3271.07
 1179.48        2958.00           2257         787.00      3423.68
 1179.51        2958.25           2261         791.00      3441.12
 1179.54        2958.50           2264         807.00      3510.88
 1179.57        2958.75           2268         797.00      3467.28
 1179.60        2959.00           2271         801.00      3484.72
 1179.63        2959.25           2275         823.00      3580.65
 1179.66        2959.50           2278         816.00      3550.12
 1179.70        2959.75           2282         826.00      3593.73
 1179.73        2960.00           2285         848.00      3689.65
 1179.76        2960.25           2289         875.00      3807.38
 1179.79        2960.50           2293         871.00      3789.94
 1179.82        2960.75           2296         889.00      3868.42
 1179.85        2961.00           2300         976.00      4247.78
 1179.88        2961.25           2303        1136.00      4945.47
 1179.91        2961.50           2307        3168.00     13809.01
 1179.94        2961.75           2310        8097.00     35331.43
 1179.97        2962.00           2314       18767.00     82030.13
 1180.00        2962.25           2317       28142.00    123184.00
 1180.03        2962.50           2321       40227.00    176404.90
 1180.06        2962.75           2324       49459.00    217192.10
 1180.09        2963.00           2328       61022.00    268438.40
 1180.12        2963.25           2331       70631.00    311161.70
 1180.15        2963.50           2335       84051.00    371038.90
 1180.18        2963.75           2339       97690.00    432145.70
 1180.22        2964.00           2342      107360.00    475625.70
 1180.25        2964.25           2346      119797.00    531738.40
 1180.28        2964.50           2349      129705.00    576596.00
 1180.31        2964.75           2353      142415.00    634342.60
 1180.34        2965.00           2356      151841.00    677317.10
 1180.37        2965.25           2360      163358.00    729998.00
 1180.40        2965.50           2363      171056.00    765316.90
 1180.43        2965.75           2367      182889.00    819775.50
 1180.46        2966.00           2370      191767.00    860769.20
 1180.49        2966.25           2374      202819.00    911963.90
 1180.52        2966.50           2378      210513.00    947711.00
 1180.55        2966.75           2381      212531.00    957101.50
 1180.58        2967.00           2385      214013.00    964001.60
 1180.61        2967.25           2388      213789.00    962958.40
 1180.64        2967.50           2392      213343.00    960881.60
 1180.67        2967.75           2395      213158.00    960020.40
 1180.70        2968.00           2399      208851.00    939981.70
 1180.74        2968.25           2402      202662.00    911235.40
 1180.77        2968.50           2406      191886.00    861319.50
 1180.80        2968.75           2409      183027.00    820411.90
 1180.83        2969.00           2413      171625.00    767930.90
 1180.86        2969.25           2417      159690.00    713199.10
 1180.89        2969.50           2420      150081.00    669283.40
 1180.92        2969.75           2424      137693.00    612861.90
 1180.95        2970.00           2427      127987.00    568808.00
 1180.98        2970.25           2431      115309.00    511464.70
 1181.01        2970.50           2434      107278.00    475256.50
 1181.04        2970.75           2438       95159.00    420786.70
 1181.07        2971.00           2441       85980.00    379665.90
 1181.10        2971.25           2445       72462.00    319316.80
 1181.13        2971.50           2449       58576.00    257583.00
 1181.16        2971.75           2452       49184.00    215975.50
 1181.19        2972.00           2456       37812.00    165754.10
 1181.22        2972.25           2459       29818.00    130553.40
 1181.26        2972.50           2463       18269.00     79847.25
 1181.29        2972.75           2466        9947.00     43417.58
 1181.32        2973.00           2470        3021.00     13167.62
 1181.35        2973.25           2473        1481.00      6449.98
 1181.38        2973.50           2477        1063.00      4627.15
 1181.41        2973.75           2481         981.00      4269.58
 1181.44        2974.00           2484         945.00      4112.61
 1181.47        2974.25           2488         902.00      3925.11
 1181.50        2974.50           2491         893.00      3885.87
 1181.53        2974.75           2495         910.00      3959.99
 1181.56        2975.00           2498         856.00      3724.53
 1181.59        2975.25           2502         860.00      3741.98
 1181.62        2975.50           2505         835.00      3632.97
 1181.65        2975.75           2509         815.00      3545.76
 1181.68        2976.00           2512         820.00      3567.56
 1181.71        2976.25           2516         788.00      3428.04
 1181.74        2976.50           2520         805.00      3502.16
 1181.78        2976.75           2523         775.00      3371.35
 1181.81        2977.00           2527         776.00      3375.71
 1181.84        2977.25           2530         752.00      3271.07
 1181.87        2977.50           2534         757.00      3292.87
 1181.90        2977.75           2537         778.00      3384.43
 1181.93        2978.00           2541         797.00      3467.28
 1181.96        2978.25           2544         753.00      3275.43
 1181.99        2978.50           2548         714.00      3105.38
 1182.02        2978.75           2552         726.00      3157.71
 1182.05        2979.00           2555         729.00      3170.79
 1182.08        2979.25           2559         692.00      3009.46
 1182.11        2979.50           2562         739.00      3214.39
 1182.14        2979.75           2566         705.00      3066.14
 1182.17        2980.00           2569         689.00      2996.38
 1182.20        2980.25           2573         699.00      3039.98
 1182.23        2980.50           2577         678.00      2948.42
 1182.26        2980.75           2580         681.00      2961.50
 1182.30        2981.00           2584         657.00      2856.86
 1182.33        2981.25           2587         665.00      2891.74
 1182.36        2981.50           2591         679.00      2952.78
 1182.39        2981.75           2594         679.00      2952.78
 1182.42        2982.00           2598         659.00      2865.58
 1182.45        2982.25           2601         683.00      2970.22
 1182.48        2982.50           2605         645.00      2804.54
 1182.51        2982.75           2609         669.00      2909.18
 1182.54        2983.00           2612         645.00      2804.54
 1182.57        2983.25           2616         634.00      2756.58
 1182.60        2983.50           2619         656.00      2852.50
 1182.63        2983.75           2623         643.00      2795.82
 1182.66        2984.00           2626         648.00      2817.62
HS scan finished at 19:42:53
end
