************************************************************
  HS Scan of (1) Internal mercury lamp
************************************************************
Integration time is 0.2294 seconds per sample
dh180419Reading 51.44 .94 3.21pr1000
************************************************************
Dead Time -------------------------  3.4E-08 
Number of Cycles Used -------------  4 
Starting Wavelength (Angstroms) ---  2950 
Final Wavelength (Angstoms) -------  2984 
Wavelength Increment (Angstroms) --  .25 
Filter Wheel #1 Position ---------- (1) Ground quartz diffuser (ND=2.32)
Filter Wheel #2 Position ---------- (1) Neutral Density 0.494



************************************************************
HS scan start time = 02:36:24
Dark Count =  1.4 


Time (GMT)  Wavelength (Ang)  Step Number  Raw Counts  Counts/Second

  157.30        2950.00           2144        1457.00      6346.62
  157.50        2950.25           2147        1441.00      6276.84
  157.53        2950.50           2151        1459.00      6355.34
  157.56        2950.75           2155        1439.00      6268.12
  157.59        2951.00           2158        1448.00      6307.37
  157.62        2951.25           2162        1452.00      6324.81
  157.65        2951.50           2165        1473.00      6416.40
  157.68        2951.75           2169        1460.00      6359.70
  157.71        2952.00           2172        1459.00      6355.34
  157.74        2952.25           2176        1509.00      6573.40
  157.77        2952.50           2179        1482.00      6455.65
  157.80        2952.75           2183        1476.00      6429.48
  157.83        2953.00           2186        1513.00      6590.84
  157.86        2953.25           2190        1468.00      6394.59
  157.89        2953.50           2193        1568.00      6830.71
  157.92        2953.75           2197        1532.00      6673.70
  157.95        2954.00           2200        1555.00      6774.01
  157.98        2954.25           2204        1546.00      6734.76
  158.02        2954.50           2208        1548.00      6743.48
  158.05        2954.75           2211        1558.00      6787.09
  158.08        2955.00           2215        1540.00      6708.59
  158.11        2955.25           2218        1611.00      7018.24
  158.14        2955.50           2222        1577.00      6869.96
  158.17        2955.75           2225        1618.00      7048.77
  158.20        2956.00           2229        1614.00      7031.32
  158.23        2956.25           2232        1614.00      7031.32
  158.26        2956.50           2236        1639.00      7140.36
  158.29        2956.75           2239        1662.00      7240.67
  158.32        2957.00           2243        1694.00      7380.23
  158.35        2957.25           2246        1671.00      7279.92
  158.38        2957.50           2250        1729.00      7532.88
  158.41        2957.75           2254        1752.00      7633.19
  158.44        2958.00           2257        1719.00      7489.26
  158.47        2958.25           2261        1797.00      7829.46
  158.50        2958.50           2264        1783.00      7768.40
  158.54        2958.75           2268        1805.00      7864.35
  158.57        2959.00           2271        1857.00      8091.15
  158.60        2959.25           2275        1881.00      8195.83
  158.63        2959.50           2278        1896.00      8261.26
  158.66        2959.75           2282        1902.00      8287.43
  158.69        2960.00           2285        1967.00      8570.94
  158.72        2960.25           2289        1971.00      8588.38
  158.75        2960.50           2293        2075.00      9042.01
  158.78        2960.75           2296        2144.00      9342.99
  158.81        2961.00           2300        2493.00     10865.39
  158.84        2961.25           2303        4331.00     18885.71
  158.87        2961.50           2307       13930.00     60843.26
  158.90        2961.75           2310       26892.00    117691.50
  158.93        2962.00           2314       54038.00    237465.80
  158.96        2962.25           2317       76945.00    339304.30
  158.99        2962.50           2321      104589.00    463154.40
  159.02        2962.75           2324      125005.00    555301.30
  159.06        2963.00           2328      152576.00    680674.80
  159.09        2963.25           2331      174519.00    781234.80
  159.12        2963.50           2335      206109.00    927240.20
  159.15        2963.75           2339      235067.00   1062387.00
  159.18        2964.00           2342      256881.00   1165036.00
  159.21        2964.25           2346      286725.00   1306665.00
  159.24        2964.50           2349      309604.00   1416194.00
  159.27        2964.75           2353      339870.00   1562384.00
  159.30        2965.00           2356      362760.00   1673948.00
  159.33        2965.25           2360      390731.00   1811470.00
  159.36        2965.50           2363      410834.00   1911135.00
  159.39        2965.75           2367      437176.00   2042798.00
  159.42        2966.00           2370      457076.00   2143080.00
  159.45        2966.25           2374      480656.00   2262834.00
  159.48        2966.50           2378      490152.00   2311349.00
  159.51        2966.75           2381      493253.00   2327228.00
  159.54        2967.00           2385      493884.00   2330462.00
  159.58        2967.25           2388      494235.00   2332260.00
  159.61        2967.50           2392      493852.00   2330298.00
  159.64        2967.75           2395      490700.00   2314154.00
  159.67        2968.00           2399      474436.00   2231147.00
  159.70        2968.25           2402      458405.00   2149803.00
  159.73        2968.50           2406      434482.00   2029277.00
  159.76        2968.75           2409      414557.00   1929669.00
  159.79        2969.00           2413      387954.00   1797757.00
  159.82        2969.25           2417      362014.00   1670298.00
  159.85        2969.50           2420      343629.00   1580646.00
  159.88        2969.75           2424      312926.00   1432167.00
  159.91        2970.00           2427      288695.00   1316063.00
  159.94        2970.25           2431      256253.00   1162070.00
  159.97        2970.50           2434      234777.00   1061028.00
  160.00        2970.75           2438      205883.00    926190.30
  160.03        2971.00           2441      184353.00    826528.90
  160.06        2971.25           2445      153154.00    683314.80
  160.09        2971.50           2449      121506.00    539467.30
  160.13        2971.75           2452       98975.00    437917.50
  160.16        2972.00           2456       70284.00    309618.00
  160.19        2972.25           2459       49135.00    215760.10
  160.22        2972.50           2463       24481.00    107100.70
  160.25        2972.75           2466       11424.00     49877.89
  160.28        2973.00           2470        4190.00     18270.29
  160.31        2973.25           2473        2548.00     11105.33
  160.34        2973.50           2477        2315.00     10088.90
  160.37        2973.75           2481        2155.00      9390.97
  160.40        2974.00           2484        2130.00      9281.92
  160.43        2974.25           2488        2071.00      9024.57
  160.46        2974.50           2491        2087.00      9094.36
  160.49        2974.75           2495        2014.00      8775.94
  160.52        2975.00           2498        2032.00      8854.45
  160.55        2975.25           2502        2026.00      8828.28
  160.58        2975.50           2505        1963.00      8553.49
  160.61        2975.75           2509        1952.00      8505.51
  160.65        2976.00           2512        1909.00      8317.96
  160.68        2976.25           2516        1874.00      8165.30
  160.71        2976.50           2520        1855.00      8082.43
  160.74        2976.75           2523        1836.00      7999.56
  160.77        2977.00           2527        1828.00      7964.67
  160.80        2977.25           2530        1798.00      7833.82
  160.84        2977.50           2534        1764.00      7685.53
  160.87        2977.75           2537        1762.00      7676.81
  160.90        2978.00           2541        1716.00      7476.18
  160.93        2978.25           2544        1734.00      7554.69
  160.96        2978.50           2548        1684.00      7336.62
  160.99        2978.75           2552        1718.00      7484.90
  161.03        2979.00           2555        1691.00      7367.15
  161.06        2979.25           2559        1708.00      7441.29
  161.09        2979.50           2562        1672.00      7284.28
  161.12        2979.75           2566        1648.00      7179.61
  161.15        2980.00           2569        1649.00      7183.97
  161.18        2980.25           2573        1620.00      7057.49
  161.21        2980.50           2577        1623.00      7070.58
  161.24        2980.75           2580        1601.00      6974.63
  161.27        2981.00           2584        1622.00      7066.21
  161.30        2981.25           2587        1598.00      6961.54
  161.33        2981.50           2591        1547.00      6739.12
  161.36        2981.75           2594        1549.00      6747.84
  161.39        2982.00           2598        1540.00      6708.59
  161.42        2982.25           2601        1526.00      6647.54
  161.45        2982.50           2605        1566.00      6821.98
  161.48        2982.75           2609        1534.00      6682.43
  161.51        2983.00           2612        1542.00      6717.31
  161.55        2983.25           2616        1541.00      6712.95
  161.58        2983.50           2619        1546.00      6734.76
  161.61        2983.75           2623        1551.00      6756.57
  161.64        2984.00           2626        1592.00      6935.38
HS scan finished at 02:41:52
end
************************************************************
  HS Scan of (1) Internal mercury lamp
************************************************************
Integration time is 0.2294 seconds per sample
dh180419Reading 51.44 .94 3.47pr1000
************************************************************
Dead Time -------------------------  3.4E-08 
Number of Cycles Used -------------  4 
Starting Wavelength (Angstroms) ---  2950 
Final Wavelength (Angstoms) -------  2984 
Wavelength Increment (Angstroms) --  .25 
Filter Wheel #1 Position ---------- (1) Ground quartz diffuser (ND=2.32)
Filter Wheel #2 Position ---------- (1) Neutral Density 0.494



************************************************************
HS scan start time = 20:07:26
Dark Count =  2.5 


Time (GMT)  Wavelength (Ang)  Step Number  Raw Counts  Counts/Second

 1208.33        2950.00           2144        1209.00      5260.31
 1208.53        2950.25           2147        1151.00      5007.39
 1208.56        2950.50           2151        1182.00      5142.57
 1208.59        2950.75           2155        1191.00      5181.82
 1208.62        2951.00           2158        1205.00      5242.87
 1208.65        2951.25           2162        1173.00      5103.33
 1208.68        2951.50           2165        1197.00      5207.98
 1208.71        2951.75           2169        1175.00      5112.05
 1208.74        2952.00           2172        1191.00      5181.82
 1208.77        2952.25           2176        1187.00      5164.38
 1208.80        2952.50           2179        1192.00      5186.18
 1208.83        2952.75           2183        1217.00      5295.20
 1208.86        2953.00           2186        1234.00      5369.33
 1208.89        2953.25           2190        1216.00      5290.84
 1208.92        2953.50           2193        1204.00      5238.51
 1208.95        2953.75           2197        1276.00      5552.49
 1208.98        2954.00           2200        1230.00      5351.89
 1209.01        2954.25           2204        1267.00      5513.24
 1209.04        2954.50           2208        1284.00      5587.37
 1209.08        2954.75           2211        1252.00      5447.83
 1209.11        2955.00           2215        1264.00      5500.16
 1209.14        2955.25           2218        1253.00      5452.19
 1209.17        2955.50           2222        1268.00      5517.60
 1209.20        2955.75           2225        1264.00      5500.16
 1209.23        2956.00           2229        1298.00      5648.43
 1209.26        2956.25           2232        1303.00      5670.23
 1209.29        2956.50           2236        1317.00      5731.28
 1209.32        2956.75           2239        1320.00      5744.37
 1209.35        2957.00           2243        1334.00      5805.42
 1209.38        2957.25           2246        1342.00      5840.31
 1209.41        2957.50           2250        1398.00      6084.52
 1209.44        2957.75           2254        1390.00      6049.63
 1209.47        2958.00           2257        1366.00      5944.97
 1209.50        2958.25           2261        1408.00      6128.13
 1209.53        2958.50           2264        1433.00      6237.16
 1209.56        2958.75           2268        1461.00      6359.27
 1209.60        2959.00           2271        1455.00      6333.10
 1209.63        2959.25           2275        1459.00      6350.54
 1209.66        2959.50           2278        1463.00      6367.99
 1209.69        2959.75           2282        1523.00      6629.66
 1209.72        2960.00           2285        1582.00      6886.97
 1209.75        2960.25           2289        1552.00      6756.13
 1209.78        2960.50           2293        1587.00      6908.77
 1209.81        2960.75           2296        1622.00      7061.42
 1209.84        2961.00           2300        1690.00      7357.99
 1209.87        2961.25           2303        1940.00      8448.37
 1209.90        2961.50           2307        5206.00     22700.60
 1209.93        2961.75           2310       13213.00     57700.27
 1209.96        2962.00           2314       28534.00    124903.80
 1209.99        2962.25           2317       43320.00    190053.70
 1210.02        2962.50           2321       64962.00    285937.70
 1210.05        2962.75           2324       79812.00    352095.30
 1210.08        2963.00           2328       99767.00    441470.20
 1210.12        2963.25           2331      115737.00    513393.30
 1210.15        2963.50           2335      139008.00    618837.10
 1210.18        2963.75           2339      163296.00    729710.20
 1210.21        2964.00           2342      180213.00    807438.30
 1210.24        2964.25           2346      201111.00    904036.60
 1210.27        2964.50           2349      216453.00    975365.60
 1210.30        2964.75           2353      238377.00   1077911.00
 1210.33        2965.00           2356      256173.00   1161687.00
 1210.36        2965.25           2360      277256.00   1261572.00
 1210.39        2965.50           2363      291958.00   1331638.00
 1210.42        2965.75           2367      311177.00   1423750.00
 1210.45        2966.00           2370      325275.00   1491696.00
 1210.48        2966.25           2374      343787.00   1581408.00
 1210.51        2966.50           2378      361630.00   1668414.00
 1210.54        2966.75           2381      369402.00   1706478.00
 1210.57        2967.00           2385      372450.00   1721434.00
 1210.60        2967.25           2388      373378.00   1725991.00
 1210.64        2967.50           2392      373359.00   1725897.00
 1210.67        2967.75           2395      373578.00   1726973.00
 1210.70        2968.00           2399      371352.00   1716045.00
 1210.73        2968.25           2402      365638.00   1688031.00
 1210.76        2968.50           2406      350141.00   1612331.00
 1210.79        2968.75           2409      334562.00   1536632.00
 1210.82        2969.00           2413      313636.00   1435578.00
 1210.85        2969.25           2417      291477.00   1329341.00
 1210.88        2969.50           2420      274255.00   1247312.00
 1210.91        2969.75           2424      253243.00   1147861.00
 1210.94        2970.00           2427      237293.00   1072824.00
 1210.97        2970.25           2431      213907.00    963504.20
 1211.00        2970.50           2434      195359.00    877384.40
 1211.03        2970.75           2438      172270.00    770891.00
 1211.06        2971.00           2441      154871.00    691154.70
 1211.09        2971.25           2445      133120.00    592085.60
 1211.12        2971.50           2449      110970.00    491887.30
 1211.16        2971.75           2452       95736.00    423371.90
 1211.19        2972.00           2456       73741.00    325012.50
 1211.22        2972.25           2459       56241.00    247224.20
 1211.25        2972.50           2463       33992.00    148919.10
 1211.28        2972.75           2466       19802.00     86564.34
 1211.31        2973.00           2470        6660.00     29050.04
 1211.34        2973.25           2473        3132.00     13648.44
 1211.37        2973.50           2477        1896.00      8256.46
 1211.40        2973.75           2481        1705.00      7423.41
 1211.43        2974.00           2484        1679.00      7310.01
 1211.46        2974.25           2488        1646.00      7166.09
 1211.49        2974.50           2491        1588.00      6913.13
 1211.52        2974.75           2495        1521.00      6620.93
 1211.55        2975.00           2498        1537.00      6690.71
 1211.58        2975.25           2502        1468.00      6389.79
 1211.61        2975.50           2505        1483.00      6455.21
 1211.64        2975.75           2509        1481.00      6446.49
 1211.68        2976.00           2512        1428.00      6215.35
 1211.71        2976.25           2516        1407.00      6123.77
 1211.74        2976.50           2520        1435.00      6245.88
 1211.77        2976.75           2523        1386.00      6032.19
 1211.80        2977.00           2527        1369.00      5958.05
 1211.83        2977.25           2530        1370.00      5962.41
 1211.86        2977.50           2534        1353.00      5888.28
 1211.89        2977.75           2537        1306.00      5683.31
 1211.92        2978.00           2541        1312.00      5709.48
 1211.95        2978.25           2544        1299.00      5652.79
 1211.98        2978.50           2548        1308.00      5692.03
 1212.01        2978.75           2552        1287.00      5600.46
 1212.04        2979.00           2555        1234.00      5369.33
 1212.07        2979.25           2559        1271.00      5530.68
 1212.10        2979.50           2562        1266.00      5508.88
 1212.13        2979.75           2566        1236.00      5378.05
 1212.16        2980.00           2569        1213.00      5277.76
 1212.20        2980.25           2573        1235.00      5373.69
 1212.23        2980.50           2577        1194.00      5194.90
 1212.26        2980.75           2580        1185.00      5155.66
 1212.29        2981.00           2584        1195.00      5199.26
 1212.32        2981.25           2587        1231.00      5356.25
 1212.35        2981.50           2591        1207.00      5251.59
 1212.38        2981.75           2594        1158.00      5037.92
 1212.41        2982.00           2598        1182.00      5142.57
 1212.44        2982.25           2601        1178.00      5125.13
 1212.47        2982.50           2605        1159.00      5042.28
 1212.50        2982.75           2609        1172.00      5098.97
 1212.53        2983.00           2612        1178.00      5125.13
 1212.56        2983.25           2616        1142.00      4968.15
 1212.59        2983.50           2619        1127.00      4902.74
 1212.62        2983.75           2623        1180.00      5133.85
 1212.65        2984.00           2626        1149.00      4998.67
HS scan finished at 20:12:53
end
