************************************************************
  HS Scan of (1) Internal mercury lamp
************************************************************
Integration time is 0.2294 seconds per sample
dh160418Reading 51.44 .94 3.19pr1000
************************************************************
Dead Time -------------------------  3.4E-08 
Number of Cycles Used -------------  4 
Starting Wavelength (Angstroms) ---  2950 
Final Wavelength (Angstoms) -------  2984 
Wavelength Increment (Angstroms) --  .25 
Filter Wheel #1 Position ---------- (1) Ground quartz diffuser (ND=2.32)
Filter Wheel #2 Position ---------- (1) Neutral Density 0.494



************************************************************
HS scan start time = 20:07:21
Dark Count =  1.6 


Time (GMT)  Wavelength (Ang)  Step Number  Raw Counts  Counts/Second

 1208.25        2950.00           2144          63.00       267.66
 1208.44        2950.25           2147          67.00       285.09
 1208.47        2950.50           2151          67.00       285.09
 1208.50        2950.75           2155          75.00       319.97
 1208.53        2951.00           2158          66.00       280.74
 1208.56        2951.25           2162          73.00       311.25
 1208.60        2951.50           2165          66.00       280.74
 1208.63        2951.75           2169          67.00       285.09
 1208.66        2952.00           2172          69.00       293.81
 1208.69        2952.25           2176          77.00       328.69
 1208.72        2952.50           2179          61.00       258.94
 1208.75        2952.75           2183          74.00       315.61
 1208.78        2953.00           2186          79.00       337.41
 1208.81        2953.25           2190          68.00       289.45
 1208.84        2953.50           2193          68.00       289.45
 1208.87        2953.75           2197          66.00       280.74
 1208.90        2954.00           2200          73.00       311.25
 1208.93        2954.25           2204          74.00       315.61
 1208.96        2954.50           2208          74.00       315.61
 1208.99        2954.75           2211          69.00       293.81
 1209.02        2955.00           2215          76.00       324.33
 1209.05        2955.25           2218          76.00       324.33
 1209.08        2955.50           2222          71.00       302.53
 1209.11        2955.75           2225          70.00       298.17
 1209.15        2956.00           2229          75.00       319.97
 1209.18        2956.25           2232          80.00       341.77
 1209.21        2956.50           2236          84.00       359.20
 1209.24        2956.75           2239          81.00       346.12
 1209.27        2957.00           2243          82.00       350.48
 1209.30        2957.25           2246          69.00       293.81
 1209.33        2957.50           2250          87.00       372.28
 1209.36        2957.75           2254          81.00       346.12
 1209.39        2958.00           2257          85.00       363.56
 1209.42        2958.25           2261          77.00       328.69
 1209.45        2958.50           2264          81.00       346.12
 1209.48        2958.75           2268          83.00       354.84
 1209.51        2959.00           2271          75.00       319.97
 1209.54        2959.25           2275          80.00       341.77
 1209.57        2959.50           2278          85.00       363.56
 1209.60        2959.75           2282          86.00       367.92
 1209.63        2960.00           2285          90.00       385.36
 1209.67        2960.25           2289          91.00       389.72
 1209.70        2960.50           2293         116.00       498.70
 1209.73        2960.75           2296         118.00       507.42
 1209.76        2961.00           2300         138.00       594.61
 1209.79        2961.25           2303         228.00       986.96
 1209.82        2961.50           2307         792.00      3445.91
 1209.85        2961.75           2310        1597.00      6956.31
 1209.88        2962.00           2314        2820.00     12291.10
 1209.91        2962.25           2317        3720.00     16218.18
 1209.94        2962.50           2321        4862.00     21202.72
 1209.97        2962.75           2324        5808.00     25333.06
 1210.00        2963.00           2328        6873.00     29984.35
 1210.03        2963.25           2331        7872.00     34348.72
 1210.06        2963.50           2335        9101.00     39719.69
 1210.09        2963.75           2339       10347.00     45166.96
 1210.12        2964.00           2342       11612.00     50699.36
 1210.15        2964.25           2346       13606.00     59424.22
 1210.19        2964.50           2349       14053.00     61380.80
 1210.22        2964.75           2353       15064.00     65807.06
 1210.25        2965.00           2356       15922.00     69564.52
 1210.28        2965.25           2360       17822.00     77888.65
 1210.31        2965.50           2363       18475.00     80750.61
 1210.34        2965.75           2367       19423.00     84906.48
 1210.37        2966.00           2370       20309.00     88791.62
 1210.40        2966.25           2374       21884.00     95700.60
 1210.43        2966.50           2378       22259.00     97346.07
 1210.46        2966.75           2381       22213.00     97144.22
 1210.49        2967.00           2385       22156.00     96894.10
 1210.52        2967.25           2388       22056.00     96455.30
 1210.55        2967.50           2392       22759.00     99540.33
 1210.58        2967.75           2395       22203.00     97100.34
 1210.61        2968.00           2399       21231.00     92835.74
 1210.64        2968.25           2402       20969.00     91686.42
 1210.67        2968.50           2406       19898.00     86989.25
 1210.71        2968.75           2409       18724.00     81842.07
 1210.74        2969.00           2413       17342.00     75785.27
 1210.77        2969.25           2417       16115.00     70409.86
 1210.80        2969.50           2420       15165.00     66249.32
 1210.83        2969.75           2424       13917.00     60785.49
 1210.86        2970.00           2427       12900.00     56334.48
 1210.89        2970.25           2431       11466.00     50060.73
 1210.92        2970.50           2434       10245.00     44720.96
 1210.95        2970.75           2438        9013.00     39335.05
 1210.98        2971.00           2441        8023.00     35008.52
 1211.01        2971.25           2445        6690.00     29185.01
 1211.04        2971.50           2449        5517.00     24062.40
 1211.07        2971.75           2452        4386.00     19124.90
 1211.10        2972.00           2456        3248.00     14158.51
 1211.13        2972.25           2459        2315.00     10088.03
 1211.16        2972.50           2463        1208.00      5259.88
 1211.19        2972.75           2466         596.00      2591.34
 1211.23        2973.00           2470         179.00       773.34
 1211.26        2973.25           2473         119.00       511.78
 1211.29        2973.50           2477          97.00       415.87
 1211.32        2973.75           2481          99.00       424.59
 1211.35        2974.00           2484          94.00       402.80
 1211.38        2974.25           2488         108.00       463.83
 1211.41        2974.50           2491          89.00       381.00
 1211.44        2974.75           2495          93.00       398.44
 1211.47        2975.00           2498          82.00       350.48
 1211.50        2975.25           2502          92.00       394.08
 1211.53        2975.50           2505         101.00       433.31
 1211.56        2975.75           2509          82.00       350.48
 1211.59        2976.00           2512          82.00       350.48
 1211.62        2976.25           2516          88.00       376.64
 1211.65        2976.50           2520          85.00       363.56
 1211.68        2976.75           2523          81.00       346.12
 1211.71        2977.00           2527          75.00       319.97
 1211.75        2977.25           2530          91.00       389.72
 1211.78        2977.50           2534          76.00       324.33
 1211.81        2977.75           2537          75.00       319.97
 1211.84        2978.00           2541          75.00       319.97
 1211.87        2978.25           2544          75.00       319.97
 1211.90        2978.50           2548          77.00       328.69
 1211.93        2978.75           2552          81.00       346.12
 1211.96        2979.00           2555          72.00       306.89
 1211.99        2979.25           2559          68.00       289.45
 1212.02        2979.50           2562          75.00       319.97
 1212.05        2979.75           2566          67.00       285.09
 1212.08        2980.00           2569          75.00       319.97
 1212.11        2980.25           2573          70.00       298.17
 1212.14        2980.50           2577          70.00       298.17
 1212.17        2980.75           2580          76.00       324.33
 1212.20        2981.00           2584          69.00       293.81
 1212.23        2981.25           2587          71.00       302.53
 1212.27        2981.50           2591          68.00       289.45
 1212.30        2981.75           2594          67.00       285.09
 1212.33        2982.00           2598          67.00       285.09
 1212.36        2982.25           2601          65.00       276.38
 1212.39        2982.50           2605          68.00       289.45
 1212.42        2982.75           2609          64.00       272.02
 1212.45        2983.00           2612          68.00       289.45
 1212.48        2983.25           2616          71.00       302.53
 1212.51        2983.50           2619          63.00       267.66
 1212.54        2983.75           2623          65.00       276.38
 1212.57        2984.00           2626          61.00       258.94
HS scan finished at 20:12:48
end
