************************************************************
  HS Scan of (1) Internal mercury lamp
************************************************************
Integration time is 0.2294 seconds per sample
dh110419Reading 51.44 .94 2.82pr1000
************************************************************
Dead Time -------------------------  3.4E-08 
Number of Cycles Used -------------  4 
Starting Wavelength (Angstroms) ---  2950 
Final Wavelength (Angstoms) -------  2984 
Wavelength Increment (Angstroms) --  .25 
Filter Wheel #1 Position ---------- (1) Ground quartz diffuser (ND=2.32)
Filter Wheel #2 Position ---------- (1) Neutral Density 0.494



************************************************************
HS scan start time = 02:38:08
Dark Count =  .5 


Time (GMT)  Wavelength (Ang)  Step Number  Raw Counts  Counts/Second

  159.03        2950.00           2144        1633.00      7118.11
  159.22        2950.25           2147        1592.00      6939.30
  159.25        2950.50           2151        1600.00      6974.19
  159.28        2950.75           2155        1642.00      7157.37
  159.32        2951.00           2158        1649.00      7187.89
  159.35        2951.25           2162        1649.00      7187.89
  159.38        2951.50           2165        1641.00      7153.00
  159.41        2951.75           2169        1677.00      7310.01
  159.44        2952.00           2172        1690.00      7366.71
  159.47        2952.25           2176        1660.00      7235.87
  159.50        2952.50           2179        1673.00      7292.57
  159.53        2952.75           2183        1707.00      7440.85
  159.56        2953.00           2186        1651.00      7196.62
  159.59        2953.25           2190        1685.00      7344.90
  159.62        2953.50           2193        1724.00      7515.00
  159.65        2953.75           2197        1687.00      7353.63
  159.68        2954.00           2200        1693.00      7379.79
  159.71        2954.25           2204        1696.00      7392.88
  159.74        2954.50           2208        1718.00      7488.83
  159.77        2954.75           2211        1740.00      7584.78
  159.80        2955.00           2215        1793.00      7815.94
  159.84        2955.25           2218        1803.00      7859.55
  159.87        2955.50           2222        1787.00      7789.77
  159.90        2955.75           2225        1798.00      7837.75
  159.93        2956.00           2229        1832.00      7986.04
  159.96        2956.25           2232        1857.00      8095.08
  159.99        2956.50           2236        1870.00      8151.78
  160.02        2956.75           2239        1920.00      8369.86
  160.05        2957.00           2243        1913.00      8339.33
  160.08        2957.25           2246        1896.00      8265.18
  160.11        2957.50           2250        1914.00      8343.69
  160.14        2957.75           2254        1902.00      8291.35
  160.17        2958.00           2257        1959.00      8539.97
  160.20        2958.25           2261        1955.00      8522.52
  160.23        2958.50           2264        1953.00      8513.80
  160.26        2958.75           2268        1967.00      8574.86
  160.29        2959.00           2271        2045.00      8915.08
  160.32        2959.25           2275        2045.00      8915.08
  160.36        2959.50           2278        2105.00      9176.80
  160.39        2959.75           2282        2106.00      9181.16
  160.42        2960.00           2285        2178.00      9495.22
  160.45        2960.25           2289        2229.00      9717.68
  160.48        2960.50           2293        2256.00      9835.46
  160.51        2960.75           2296        2361.00     10293.49
  160.54        2961.00           2300        2797.00     12195.55
  160.57        2961.25           2303        4967.00     21665.91
  160.60        2961.50           2307       15866.00     69324.06
  160.63        2961.75           2310       30992.00    135722.90
  160.66        2962.00           2314       57525.00    252926.40
  160.69        2962.25           2317       82967.00    366198.60
  160.72        2962.50           2321      114408.00    507403.40
  160.75        2962.75           2324      136144.00    605827.80
  160.78        2963.00           2328      166143.00    742771.30
  160.81        2963.25           2331      188378.00    845112.60
  160.84        2963.50           2335      220646.00    994930.70
  160.88        2963.75           2339      253646.00   1149771.00
  160.91        2964.00           2342      277278.00   1261686.00
  160.94        2964.25           2346      308490.00   1410846.00
  160.97        2964.50           2349      331095.00   1519850.00
  161.00        2964.75           2353      360612.00   1663446.00
  161.03        2965.00           2356      382687.00   1771789.00
  161.06        2965.25           2360      408048.00   1897286.00
  161.09        2965.50           2363      428068.00   1997141.00
  161.12        2965.75           2367      455852.00   2136896.00
  161.15        2966.00           2370      476311.00   2240696.00
  161.18        2966.25           2374      500956.00   2366755.00
  161.21        2966.50           2378      510717.00   2416996.00
  161.24        2966.75           2381      512746.00   2427462.00
  161.27        2967.00           2385      513340.00   2430527.00
  161.30        2967.25           2388      514157.00   2434745.00
  161.33        2967.50           2392      512545.00   2426425.00
  161.36        2967.75           2395      507974.00   2402859.00
  161.39        2968.00           2399      492087.00   2321260.00
  161.43        2968.25           2402      472978.00   2223734.00
  161.46        2968.50           2406      447636.00   2095425.00
  161.49        2968.75           2409      429346.00   2003539.00
  161.52        2969.00           2413      402693.00   1870694.00
  161.55        2969.25           2417      371801.00   1718258.00
  161.58        2969.50           2420      344454.00   1584661.00
  161.61        2969.75           2424      319092.00   1461867.00
  161.64        2970.00           2427      297577.00   1358517.00
  161.67        2970.25           2431      270012.00   1227184.00
  161.70        2970.50           2434      249129.00   1128478.00
  161.73        2970.75           2438      218660.00    985664.90
  161.76        2971.00           2441      194426.00    873075.20
  161.79        2971.25           2445      162210.00    724743.70
  161.82        2971.50           2449      128510.00    571183.90
  161.85        2971.75           2452      105023.00    465111.20
  161.88        2972.00           2456       75710.00    333799.60
  161.91        2972.25           2459       54964.00    241572.80
  161.95        2972.50           2463       31703.00    138851.40
  161.98        2972.75           2466       15047.00     65737.44
  162.01        2973.00           2470        4904.00     21390.88
  162.04        2973.25           2473        2929.00     12771.46
  162.07        2973.50           2477        2402.00     10472.34
  162.10        2973.75           2481        2370.00     10332.75
  162.13        2974.00           2484        2310.00     10071.02
  162.16        2974.25           2488        2236.00      9748.22
  162.19        2974.50           2491        2208.00      9626.08
  162.22        2974.75           2495        2157.00      9403.62
  162.25        2975.00           2498        2106.00      9181.16
  162.28        2975.25           2502        2069.00      9019.77
  162.31        2975.50           2505        2066.00      9006.68
  162.34        2975.75           2509        2054.00      8954.34
  162.37        2976.00           2512        2008.00      8753.69
  162.40        2976.25           2516        2006.00      8744.97
  162.44        2976.50           2520        1936.00      8439.65
  162.47        2976.75           2523        1947.00      8487.63
  162.50        2977.00           2527        1888.00      8230.29
  162.53        2977.25           2530        1903.00      8295.71
  162.56        2977.50           2534        1874.00      8169.23
  162.59        2977.75           2537        1854.00      8081.99
  162.62        2978.00           2541        1825.00      7955.51
  162.65        2978.25           2544        1829.00      7972.95
  162.68        2978.50           2548        1813.00      7903.17
  162.71        2978.75           2552        1816.00      7916.25
  162.74        2979.00           2555        1787.00      7789.77
  162.77        2979.25           2559        1761.00      7676.37
  162.80        2979.50           2562        1826.00      7959.87
  162.83        2979.75           2566        1718.00      7488.83
  162.86        2980.00           2569        1695.00      7388.52
  162.89        2980.25           2573        1731.00      7545.53
  162.92        2980.50           2577        1677.00      7310.01
  162.95        2980.75           2580        1651.00      7196.62
  162.99        2981.00           2584        1685.00      7344.90
  163.02        2981.25           2587        1659.00      7231.51
  163.05        2981.50           2591        1677.00      7310.01
  163.08        2981.75           2594        1656.00      7218.42
  163.11        2982.00           2598        1648.00      7183.53
  163.14        2982.25           2601        1666.00      7262.04
  163.17        2982.50           2605        1640.00      7148.64
  163.20        2982.75           2609        1624.00      7078.86
  163.23        2983.00           2612        1662.00      7244.59
  163.26        2983.25           2616        1662.00      7244.59
  163.29        2983.50           2619        1606.00      7000.36
  163.32        2983.75           2623        1642.00      7157.37
  163.35        2984.00           2626        1622.00      7070.14
HS scan finished at 02:43:35
end
************************************************************
  HS Scan of (1) Internal mercury lamp
************************************************************
Integration time is 0.2294 seconds per sample
dh110419Reading 51.44 .94 3.19pr1000
************************************************************
Dead Time -------------------------  3.4E-08 
Number of Cycles Used -------------  4 
Starting Wavelength (Angstroms) ---  2950 
Final Wavelength (Angstoms) -------  2984 
Wavelength Increment (Angstroms) --  .25 
Filter Wheel #1 Position ---------- (1) Ground quartz diffuser (ND=2.32)
Filter Wheel #2 Position ---------- (1) Neutral Density 0.494



************************************************************
HS scan start time = 19:39:55
Dark Count =  1.4 


Time (GMT)  Wavelength (Ang)  Step Number  Raw Counts  Counts/Second

 1180.81        2950.00           2144        1429.00      6224.51
 1181.01        2950.25           2147        1404.00      6115.48
 1181.04        2950.50           2151        1375.00      5989.01
 1181.07        2950.75           2155        1428.00      6220.15
 1181.10        2951.00           2158        1394.00      6071.87
 1181.13        2951.25           2162        1443.00      6285.56
 1181.16        2951.50           2165        1421.00      6189.62
 1181.19        2951.75           2169        1425.00      6207.06
 1181.22        2952.00           2172        1444.00      6289.92
 1181.25        2952.25           2176        1435.00      6250.67
 1181.28        2952.50           2179        1434.00      6246.31
 1181.31        2952.75           2183        1433.00      6241.95
 1181.34        2953.00           2186        1453.00      6329.17
 1181.37        2953.25           2190        1473.00      6416.40
 1181.40        2953.50           2193        1482.00      6455.65
 1181.43        2953.75           2197        1483.00      6460.01
 1181.47        2954.00           2200        1467.00      6390.23
 1181.50        2954.25           2204        1495.00      6512.34
 1181.53        2954.50           2208        1474.00      6420.76
 1181.56        2954.75           2211        1510.00      6577.76
 1181.59        2955.00           2215        1519.00      6617.01
 1181.62        2955.25           2218        1514.00      6595.20
 1181.65        2955.50           2222        1502.00      6542.87
 1181.68        2955.75           2225        1537.00      6695.51
 1181.71        2956.00           2229        1515.00      6599.56
 1181.74        2956.25           2232        1513.00      6590.84
 1181.77        2956.50           2236        1603.00      6983.35
 1181.80        2956.75           2239        1601.00      6974.63
 1181.83        2957.00           2243        1595.00      6948.46
 1181.86        2957.25           2246        1598.00      6961.54
 1181.89        2957.50           2250        1624.00      7074.94
 1181.92        2957.75           2254        1643.00      7157.80
 1181.95        2958.00           2257        1634.00      7118.55
 1181.99        2958.25           2261        1637.00      7131.63
 1182.02        2958.50           2264        1680.00      7319.17
 1182.05        2958.75           2268        1701.00      7410.76
 1182.08        2959.00           2271        1717.00      7480.54
 1182.11        2959.25           2275        1730.00      7537.24
 1182.14        2959.50           2278        1738.00      7572.13
 1182.17        2959.75           2282        1830.00      7973.39
 1182.20        2960.00           2285        1785.00      7777.12
 1182.23        2960.25           2289        1811.00      7890.52
 1182.26        2960.50           2293        1871.00      8152.22
 1182.29        2960.75           2296        1888.00      8226.36
 1182.32        2961.00           2300        1971.00      8588.38
 1182.35        2961.25           2303        2427.00     10577.47
 1182.38        2961.50           2307        5830.00     25430.00
 1182.41        2961.75           2310       13999.00     61145.30
 1182.44        2962.00           2314       31395.00    137492.20
 1182.47        2962.25           2317       47185.00    207136.30
 1182.51        2962.50           2321       72273.00    318476.10
 1182.54        2962.75           2324       92460.00    408684.90
 1182.57        2963.00           2328      116616.00    517367.30
 1182.60        2963.25           2331      135038.00    600799.40
 1182.63        2963.50           2335      160007.00    714651.50
 1182.66        2963.75           2339      183874.00    824319.40
 1182.69        2964.00           2342      202937.00    912512.90
 1182.72        2964.25           2346      228484.00   1031553.00
 1182.75        2964.50           2349      247166.00   1119230.00
 1182.78        2964.75           2353      271316.00   1233365.00
 1182.81        2965.00           2356      288519.00   1315223.00
 1182.84        2965.25           2360      310845.00   1422159.00
 1182.87        2965.50           2363      325775.00   1494117.00
 1182.90        2965.75           2367      349772.00   1610539.00
 1182.93        2966.00           2370      366942.00   1694425.00
 1182.96        2966.25           2374      388720.00   1801538.00
 1182.99        2966.50           2378      405820.00   1886211.00
 1183.02        2966.75           2381      411392.00   1913911.00
 1183.06        2967.00           2385      414136.00   1927572.00
 1183.09        2967.25           2388      414432.00   1929047.00
 1183.12        2967.50           2392      414811.00   1930935.00
 1183.15        2967.75           2395      414546.00   1929615.00
 1183.18        2968.00           2399      411571.00   1914802.00
 1183.21        2968.25           2402      403079.00   1872605.00
 1183.24        2968.50           2406      384147.00   1778979.00
 1183.27        2968.75           2409      367659.00   1697938.00
 1183.30        2969.00           2413      347557.00   1599753.00
 1183.33        2969.25           2417      321659.00   1474243.00
 1183.36        2969.50           2420      309977.00   1417987.00
 1183.39        2969.75           2424      285511.00   1300877.00
 1183.42        2970.00           2427      265674.00   1206620.00
 1183.45        2970.25           2431      241327.00   1091770.00
 1183.48        2970.50           2434      223176.00   1006739.00
 1183.51        2970.75           2438      199422.00    896210.60
 1183.55        2971.00           2441      179437.00    803868.70
 1183.58        2971.25           2445      152461.00    680149.60
 1183.61        2971.50           2449      126550.00    562298.40
 1183.64        2971.75           2452      107870.00    477923.80
 1183.67        2972.00           2456       84103.00    371272.80
 1183.70        2972.25           2459       65878.00    290014.80
 1183.73        2972.50           2463       43072.00    188963.40
 1183.76        2972.75           2466       27047.00    118372.60
 1183.79        2973.00           2470        9260.00     40415.57
 1183.82        2973.25           2473        3908.00     17039.51
 1183.85        2973.50           2477        2247.00      9792.27
 1183.88        2973.75           2481        1972.00      8592.75
 1183.91        2974.00           2484        1966.00      8566.58
 1183.94        2974.25           2488        1873.00      8160.94
 1183.97        2974.50           2491        1836.00      7999.56
 1184.00        2974.75           2495        1847.00      8047.54
 1184.03        2975.00           2498        1796.00      7825.10
 1184.06        2975.25           2502        1762.00      7676.81
 1184.10        2975.50           2505        1709.00      7445.65
 1184.13        2975.75           2509        1732.00      7545.96
 1184.16        2976.00           2512        1679.00      7314.81
 1184.19        2976.25           2516        1708.00      7441.29
 1184.22        2976.50           2520        1644.00      7162.16
 1184.25        2976.75           2523        1627.00      7088.02
 1184.28        2977.00           2527        1612.00      7022.60
 1184.31        2977.25           2530        1586.00      6909.21
 1184.34        2977.50           2534        1563.00      6808.90
 1184.37        2977.75           2537        1538.00      6699.87
 1184.40        2978.00           2541        1573.00      6852.51
 1184.43        2978.25           2544        1534.00      6682.43
 1184.46        2978.50           2548        1529.00      6660.62
 1184.49        2978.75           2552        1499.00      6529.78
 1184.52        2979.00           2555        1479.00      6442.56
 1184.55        2979.25           2559        1454.00      6333.54
 1184.58        2979.50           2562        1475.00      6425.12
 1184.62        2979.75           2566        1426.00      6211.43
 1184.65        2980.00           2569        1430.00      6228.87
 1184.68        2980.25           2573        1427.00      6215.79
 1184.71        2980.50           2577        1420.00      6185.26
 1184.74        2980.75           2580        1427.00      6215.79
 1184.77        2981.00           2584        1419.00      6180.90
 1184.80        2981.25           2587        1442.00      6281.20
 1184.83        2981.50           2591        1395.00      6076.23
 1184.86        2981.75           2594        1419.00      6180.90
 1184.89        2982.00           2598        1405.00      6119.84
 1184.92        2982.25           2601        1413.00      6154.73
 1184.95        2982.50           2605        1362.00      5932.32
 1184.98        2982.75           2609        1384.00      6028.26
 1185.01        2983.00           2612        1370.00      5967.21
 1185.04        2983.25           2616        1376.00      5993.38
 1185.07        2983.50           2619        1384.00      6028.26
 1185.10        2983.75           2623        1357.00      5910.52
 1185.14        2984.00           2626        1365.00      5945.40
HS scan finished at 19:45:21
end
