************************************************************
  HS Scan of 
************************************************************
Integration time is 0.2294 seconds per sample
dh170417Reading 51.44 .94 3pr1000
************************************************************
Dead Time -------------------------  3.4E-08 
Number of Cycles Used -------------  4 
Starting Wavelength (Angstroms) ---  2950 
Final Wavelength (Angstoms) -------  2984 
Wavelength Increment (Angstroms) --  .25 
Filter Wheel #1 Position ---------- (1) Ground quartz diffuser (ND=2.32)
Filter Wheel #2 Position ---------- (1) Neutral Density 0.494



************************************************************
HS scan start time = 01:15:28
Dark Count =  1 


Time (GMT)  Wavelength (Ang)  Step Number  Raw Counts  Counts/Second

   76.37        2950.00           2144         678.00      2951.47
   76.56        2950.25           2147         704.00      3064.84
   76.59        2950.50           2151         694.00      3021.23
   76.62        2950.75           2155         708.00      3082.28
   76.65        2951.00           2158         713.00      3104.08
   76.69        2951.25           2162         703.00      3060.48
   76.72        2951.50           2165         707.00      3077.92
   76.75        2951.75           2169         728.00      3169.48
   76.78        2952.00           2172         729.00      3173.84
   76.81        2952.25           2176         740.00      3221.80
   76.84        2952.50           2179         724.00      3152.04
   76.87        2952.75           2183         716.00      3117.16
   76.90        2953.00           2186         746.00      3247.96
   76.93        2953.25           2190         729.00      3173.84
   76.96        2953.50           2193         719.00      3130.24
   76.99        2953.75           2197         740.00      3221.80
   77.02        2954.00           2200         762.00      3317.72
   77.05        2954.25           2204         760.00      3309.00
   77.08        2954.50           2208         756.00      3291.56
   77.11        2954.75           2211         733.00      3191.28
   77.14        2955.00           2215         759.00      3304.64
   77.17        2955.25           2218         810.00      3527.01
   77.21        2955.50           2222         776.00      3378.77
   77.24        2955.75           2225         775.00      3374.41
   77.27        2956.00           2229         795.00      3461.61
   77.30        2956.25           2232         786.00      3422.37
   77.33        2956.50           2236         801.00      3487.77
   77.37        2956.75           2239         811.00      3531.37
   77.40        2957.00           2243         815.00      3548.82
   77.43        2957.25           2246         816.00      3553.18
   77.47        2957.50           2250         859.00      3740.67
   77.50        2957.75           2254         834.00      3631.66
   77.53        2958.00           2257         870.00      3788.63
   77.56        2958.25           2261         845.00      3679.62
   77.59        2958.50           2264         860.00      3745.03
   77.62        2958.75           2268         884.00      3849.68
   77.65        2959.00           2271         890.00      3875.84
   77.68        2959.25           2275         891.00      3880.20
   77.71        2959.50           2278         911.00      3967.41
   77.74        2959.75           2282         939.00      4089.50
   77.77        2960.00           2285         950.00      4137.46
   77.80        2960.25           2289         932.00      4058.97
   77.83        2960.50           2293         997.00      4342.40
   77.86        2960.75           2296        1022.00      4451.42
   77.89        2961.00           2300        1061.00      4621.48
   77.92        2961.25           2303        1415.00      6165.20
   77.95        2961.50           2307        4329.00     18878.72
   77.99        2961.75           2310        9830.00     42909.12
   78.02        2962.00           2314       22204.00     97107.36
   78.05        2962.25           2317       32319.00    141560.30
   78.08        2962.50           2321       46287.00    203168.40
   78.11        2962.75           2324       55753.00    245067.50
   78.14        2963.00           2328       68777.00    302911.90
   78.17        2963.25           2331       79028.00    348601.80
   78.20        2963.50           2335       93406.00    412927.70
   78.23        2963.75           2339      107364.00    475646.90
   78.26        2964.00           2342      117506.00    521388.90
   78.29        2964.25           2346      131867.00    586405.90
   78.32        2964.50           2349      142332.00    633967.90
   78.35        2964.75           2353      155715.00    695019.50
   78.38        2965.00           2356      165378.00    739260.80
   78.41        2965.25           2360      177625.00    795527.20
   78.44        2965.50           2363      186473.00    836313.80
   78.47        2965.75           2367      201731.00    906919.30
   78.50        2966.00           2370      212576.00    957314.10
   78.54        2966.25           2374      225644.00   1018273.00
   78.57        2966.50           2378      232973.00   1052574.00
   78.60        2966.75           2381      235359.00   1063759.00
   78.63        2967.00           2385      235575.00   1064771.00
   78.66        2967.25           2388      235560.00   1064701.00
   78.69        2967.50           2392      235291.00   1063440.00
   78.72        2967.75           2395      233705.00   1056004.00
   78.75        2968.00           2399      228092.00   1029721.00
   78.78        2968.25           2402      219541.00    989772.10
   78.81        2968.50           2406      207977.00    935921.90
   78.84        2968.75           2409      198607.00    892435.20
   78.87        2969.00           2413      186086.00    834527.50
   78.90        2969.25           2417      174353.00    780473.30
   78.93        2969.50           2420      164140.00    733585.10
   78.96        2969.75           2424      149192.00    665230.30
   78.99        2970.00           2427      137965.00    614101.60
   79.02        2970.25           2431      124411.00    552613.80
   79.06        2970.50           2434      114252.00    506697.20
   79.09        2970.75           2438      100566.00    445067.00
   79.12        2971.00           2441       90372.00    399330.30
   79.15        2971.25           2445       75831.00    334337.00
   79.18        2971.50           2449       61175.00    269120.90
   79.21        2971.75           2452       50819.00    223213.30
   79.24        2972.00           2456       38147.00    167234.20
   79.27        2972.25           2459       28122.00    123099.20
   79.30        2972.50           2463       15804.00     69050.33
   79.33        2972.75           2466        8605.00     37554.46
   79.36        2973.00           2470        2805.00     12228.27
   79.39        2973.25           2473        1407.00      6130.31
   79.42        2973.50           2477        1056.00      4599.67
   79.45        2973.75           2481        1011.00      4403.45
   79.48        2974.00           2484        1034.00      4503.74
   79.51        2974.25           2488         972.00      4233.39
   79.54        2974.50           2491         945.00      4115.66
   79.58        2974.75           2495         938.00      4085.14
   79.61        2975.00           2498         913.00      3976.13
   79.64        2975.25           2502         945.00      4115.66
   79.67        2975.50           2505         877.00      3819.15
   79.70        2975.75           2509         903.00      3932.52
   79.73        2976.00           2512         850.00      3701.43
   79.76        2976.25           2516         844.00      3675.26
   79.79        2976.50           2520         828.00      3605.50
   79.82        2976.75           2523         825.00      3592.42
   79.85        2977.00           2527         808.00      3518.29
   79.89        2977.25           2530         797.00      3470.33
   79.92        2977.50           2534         787.00      3426.73
   79.95        2977.75           2537         793.00      3452.89
   79.98        2978.00           2541         796.00      3465.97
   80.01        2978.25           2544         798.00      3474.69
   80.04        2978.50           2548         796.00      3465.97
   80.07        2978.75           2552         761.00      3313.36
   80.10        2979.00           2555         733.00      3191.28
   80.13        2979.25           2559         749.00      3261.04
   80.16        2979.50           2562         728.00      3169.48
   80.19        2979.75           2566         762.00      3317.72
   80.22        2980.00           2569         730.00      3178.20
   80.25        2980.25           2573         766.00      3335.16
   80.29        2980.50           2577         742.00      3230.52
   80.32        2980.75           2580         710.00      3091.00
   80.35        2981.00           2584         718.00      3125.88
   80.38        2981.25           2587         692.00      3012.51
   80.41        2981.50           2591         675.00      2938.39
   80.44        2981.75           2594         688.00      2995.07
   80.47        2982.00           2598         692.00      3012.51
   80.50        2982.25           2601         676.00      2942.75
   80.53        2982.50           2605         687.00      2990.71
   80.56        2982.75           2609         681.00      2964.55
   80.59        2983.00           2612         684.00      2977.63
   80.62        2983.25           2616         691.00      3008.15
   80.65        2983.50           2619         704.00      3064.84
   80.68        2983.75           2623         679.00      2955.83
   80.71        2984.00           2626         657.00      2859.91
HS scan finished at 01:20:56
end
************************************************************
  HS Scan of 
************************************************************
Integration time is 0.2294 seconds per sample
dh170417Reading 51.44 .94 3.09pr1000
************************************************************
Dead Time -------------------------  3.4E-08 
Number of Cycles Used -------------  4 
Starting Wavelength (Angstroms) ---  2950 
Final Wavelength (Angstoms) -------  2984 
Wavelength Increment (Angstroms) --  .25 
Filter Wheel #1 Position ---------- (1) Ground quartz diffuser (ND=2.32)
Filter Wheel #2 Position ---------- (1) Neutral Density 0.494



************************************************************
HS scan start time = 20:07:23
Dark Count =  1.5 


Time (GMT)  Wavelength (Ang)  Step Number  Raw Counts  Counts/Second

 1208.28        2950.00           2144         637.00      2770.53
 1208.48        2950.25           2147         652.00      2835.93
 1208.51        2950.50           2151         667.00      2901.33
 1208.54        2950.75           2155         670.00      2914.41
 1208.57        2951.00           2158         645.00      2805.41
 1208.60        2951.25           2162         646.00      2809.77
 1208.63        2951.50           2165         662.00      2879.53
 1208.66        2951.75           2169         658.00      2862.09
 1208.69        2952.00           2172         662.00      2879.53
 1208.72        2952.25           2176         654.00      2844.65
 1208.75        2952.50           2179         673.00      2927.49
 1208.78        2952.75           2183         671.00      2918.77
 1208.81        2953.00           2186         671.00      2918.77
 1208.85        2953.25           2190         686.00      2984.17
 1208.88        2953.50           2193         658.00      2862.09
 1208.91        2953.75           2197         685.00      2979.81
 1208.94        2954.00           2200         677.00      2944.93
 1208.97        2954.25           2204         669.00      2910.05
 1209.00        2954.50           2208         648.00      2818.49
 1209.03        2954.75           2211         694.00      3019.05
 1209.06        2955.00           2215         709.00      3084.46
 1209.09        2955.25           2218         685.00      2979.81
 1209.12        2955.50           2222         716.00      3114.98
 1209.15        2955.75           2225         695.00      3023.41
 1209.18        2956.00           2229         728.00      3167.30
 1209.21        2956.25           2232         703.00      3058.30
 1209.24        2956.50           2236         747.00      3250.14
 1209.27        2956.75           2239         748.00      3254.50
 1209.30        2957.00           2243         723.00      3145.50
 1209.33        2957.25           2246         751.00      3267.58
 1209.37        2957.50           2250         763.00      3319.90
 1209.40        2957.75           2254         750.00      3263.22
 1209.43        2958.00           2257         767.00      3337.34
 1209.46        2958.25           2261         776.00      3376.59
 1209.49        2958.50           2264         798.00      3472.51
 1209.52        2958.75           2268         784.00      3411.47
 1209.55        2959.00           2271         812.00      3533.55
 1209.58        2959.25           2275         808.00      3516.11
 1209.62        2959.50           2278         824.00      3585.88
 1209.65        2959.75           2282         818.00      3559.72
 1209.68        2960.00           2285         842.00      3664.36
 1209.71        2960.25           2289         859.00      3738.49
 1209.74        2960.50           2293         893.00      3886.74
 1209.77        2960.75           2296         924.00      4021.91
 1209.80        2961.00           2300         972.00      4231.21
 1209.83        2961.25           2303        1201.00      5229.79
 1209.86        2961.50           2307        3841.00     16746.67
 1209.89        2961.75           2310        9554.00     41700.32
 1209.92        2962.00           2314       20212.00     88366.66
 1209.95        2962.25           2317       28977.00    126855.90
 1209.98        2962.50           2321       40221.00    176379.30
 1210.01        2962.75           2324       49020.00    215250.90
 1210.04        2963.00           2328       61117.00    268861.10
 1210.07        2963.25           2331       71141.00    313433.60
 1210.11        2963.50           2335       83454.00    368370.90
 1210.14        2963.75           2339       96032.00    424704.70
 1210.17        2964.00           2342      105351.00    466582.70
 1210.20        2964.25           2346      117278.00    520356.80
 1210.23        2964.50           2349      126022.00    559906.30
 1210.26        2964.75           2353      138684.00    617368.30
 1210.29        2965.00           2356      149055.00    664603.10
 1210.32        2965.25           2360      160706.00    717851.20
 1210.35        2965.50           2363      169216.00    756868.00
 1210.38        2965.75           2367      180209.00    807424.50
 1210.41        2966.00           2370      188951.00    847754.90
 1210.44        2966.25           2374      199240.00    895366.60
 1210.47        2966.50           2378      206445.00    928800.60
 1210.50        2966.75           2381      208326.00    937541.90
 1210.53        2967.00           2385      208782.00    939661.90
 1210.56        2967.25           2388      209011.00    940726.60
 1210.59        2967.50           2392      209240.00    941791.40
 1210.63        2967.75           2395      208495.00    938327.60
 1210.66        2968.00           2399      205004.00    922107.60
 1210.69        2968.25           2402      199709.00    897540.60
 1210.72        2968.50           2406      188724.00    846706.20
 1210.75        2968.75           2409      180110.00    806968.40
 1210.78        2969.00           2413      168532.00    753728.00
 1210.81        2969.25           2417      156305.00    697714.60
 1210.84        2969.50           2420      148490.00    662025.80
 1210.87        2969.75           2424      138319.00    615708.70
 1210.90        2970.00           2427      128835.00    572652.60
 1210.93        2970.25           2431      114897.00    509606.00
 1210.96        2970.50           2434      105534.00    467406.30
 1210.99        2970.75           2438       93071.00    411423.50
 1211.02        2971.00           2441       84121.00    371352.80
 1211.05        2971.25           2445       72295.00    318573.70
 1211.08        2971.50           2449       60052.00    264133.50
 1211.11        2971.75           2452       51569.00    226531.00
 1211.15        2972.00           2456       40132.00    175986.70
 1211.18        2972.25           2459       31486.00    137892.10
 1211.21        2972.50           2463       19079.00     83398.75
 1211.24        2972.75           2466       10833.00     47292.64
 1211.27        2973.00           2470        3344.00     14577.84
 1211.30        2973.25           2473        1536.00      6690.71
 1211.33        2973.50           2477        1027.00      4471.04
 1211.36        2973.75           2481         937.00      4078.60
 1211.39        2974.00           2484         925.00      4026.27
 1211.42        2974.25           2488         928.00      4039.35
 1211.45        2974.50           2491         927.00      4034.99
 1211.48        2974.75           2495         894.00      3891.10
 1211.51        2975.00           2498         868.00      3777.73
 1211.54        2975.25           2502         830.00      3612.04
 1211.57        2975.50           2505         828.00      3603.32
 1211.60        2975.75           2509         825.00      3590.24
 1211.63        2976.00           2512         809.00      3520.47
 1211.66        2976.25           2516         783.00      3407.11
 1211.70        2976.50           2520         781.00      3398.39
 1211.73        2976.75           2523         752.00      3271.94
 1211.76        2977.00           2527         774.00      3367.87
 1211.79        2977.25           2530         748.00      3254.50
 1211.82        2977.50           2534         749.00      3258.86
 1211.85        2977.75           2537         752.00      3271.94
 1211.88        2978.00           2541         741.00      3223.98
 1211.91        2978.25           2544         749.00      3258.86
 1211.94        2978.50           2548         739.00      3215.26
 1211.97        2978.75           2552         709.00      3084.46
 1212.00        2979.00           2555         746.00      3245.78
 1212.03        2979.25           2559         735.00      3197.82
 1212.06        2979.50           2562         729.00      3171.66
 1212.09        2979.75           2566         711.00      3093.18
 1212.12        2980.00           2569         699.00      3040.85
 1212.15        2980.25           2573         689.00      2997.25
 1212.18        2980.50           2577         686.00      2984.17
 1212.22        2980.75           2580         680.00      2958.01
 1212.25        2981.00           2584         663.00      2883.89
 1212.28        2981.25           2587         708.00      3080.10
 1212.31        2981.50           2591         635.00      2761.81
 1212.34        2981.75           2594         655.00      2849.01
 1212.37        2982.00           2598         683.00      2971.09
 1212.40        2982.25           2601         682.00      2966.73
 1212.43        2982.50           2605         651.00      2831.57
 1212.46        2982.75           2609         667.00      2901.33
 1212.49        2983.00           2612         685.00      2979.81
 1212.52        2983.25           2616         667.00      2901.33
 1212.55        2983.50           2619         653.00      2840.29
 1212.58        2983.75           2623         616.00      2678.97
 1212.61        2984.00           2626         638.00      2774.89
HS scan finished at 20:12:50
end
