************************************************************
  HS Scan of (1) Internal mercury lamp
************************************************************
Integration time is 0.2294 seconds per sample
dh130419Reading 51.44 .94 2.8pr1000
************************************************************
Dead Time -------------------------  3.4E-08 
Number of Cycles Used -------------  4 
Starting Wavelength (Angstroms) ---  2950 
Final Wavelength (Angstoms) -------  2984 
Wavelength Increment (Angstroms) --  .25 
Filter Wheel #1 Position ---------- (1) Ground quartz diffuser (ND=2.32)
Filter Wheel #2 Position ---------- (1) Neutral Density 0.494



************************************************************
HS scan start time = 01:08:40
Dark Count =  .5 


Time (GMT)  Wavelength (Ang)  Step Number  Raw Counts  Counts/Second

   69.56        2950.00           2144        1699.00      7405.96
   69.75        2950.25           2147        1712.00      7462.66
   69.78        2950.50           2151        1709.00      7449.58
   69.81        2950.75           2155        1719.00      7493.19
   69.84        2951.00           2158        1729.00      7536.81
   69.87        2951.25           2162        1707.00      7440.85
   69.90        2951.50           2165        1765.00      7693.82
   69.94        2951.75           2169        1707.00      7440.85
   69.97        2952.00           2172        1771.00      7719.99
   70.00        2952.25           2176        1753.00      7641.48
   70.03        2952.50           2179        1739.00      7580.42
   70.06        2952.75           2183        1747.00      7615.31
   70.09        2953.00           2186        1744.00      7602.23
   70.12        2953.25           2190        1721.00      7501.91
   70.15        2953.50           2193        1719.00      7493.19
   70.18        2953.75           2197        1805.00      7868.28
   70.21        2954.00           2200        1767.00      7702.54
   70.24        2954.25           2204        1847.00      8051.46
   70.27        2954.50           2208        1797.00      7833.39
   70.30        2954.75           2211        1860.00      8108.16
   70.33        2955.00           2215        1857.00      8095.08
   70.36        2955.25           2218        1855.00      8086.36
   70.39        2955.50           2222        1846.00      8047.10
   70.42        2955.75           2225        1840.00      8020.93
   70.46        2956.00           2229        1870.00      8151.78
   70.49        2956.25           2232        1857.00      8095.08
   70.52        2956.50           2236        1883.00      8208.48
   70.55        2956.75           2239        1893.00      8252.10
   70.58        2957.00           2243        1927.00      8400.39
   70.61        2957.25           2246        1903.00      8295.71
   70.64        2957.50           2250        1923.00      8382.95
   70.67        2957.75           2254        1938.00      8448.37
   70.70        2958.00           2257        1953.00      8513.80
   70.73        2958.25           2261        1979.00      8627.20
   70.76        2958.50           2264        2089.00      9107.01
   70.79        2958.75           2268        2027.00      8836.57
   70.82        2959.00           2271        2053.00      8949.98
   70.85        2959.25           2275        2042.00      8902.00
   70.88        2959.50           2278        2090.00      9111.37
   70.91        2959.75           2282        2082.00      9076.47
   70.94        2960.00           2285        2143.00      9342.55
   70.98        2960.25           2289        2171.00      9464.68
   71.01        2960.50           2293        2277.00      9927.06
   71.04        2960.75           2296        2202.00      9599.91
   71.07        2961.00           2300        2436.00     10620.66
   71.10        2961.25           2303        3267.00     14246.22
   71.13        2961.50           2307        9533.00     41612.89
   71.16        2961.75           2310       20969.00     91691.24
   71.19        2962.00           2314       42691.00    187285.10
   71.22        2962.25           2317       60632.00    266712.40
   71.25        2962.50           2321       84390.00    372560.00
   71.28        2962.75           2324      102612.00    454266.10
   71.31        2963.00           2328      131485.00    584675.00
   71.34        2963.25           2331      155493.00    694006.90
   71.37        2963.50           2335      184233.00    825979.50
   71.40        2963.75           2339      210309.00    946767.60
   71.43        2964.00           2342      229277.00   1035268.00
   71.46        2964.25           2346      254434.00   1153489.00
   71.50        2964.50           2349      275631.00   1253858.00
   71.53        2964.75           2353      303304.00   1385955.00
   71.56        2965.00           2356      321745.00   1474663.00
   71.59        2965.25           2360      346250.00   1593396.00
   71.62        2965.50           2363      365144.00   1685622.00
   71.65        2965.75           2367      387445.00   1795249.00
   71.68        2966.00           2370      403171.00   1873066.00
   71.71        2966.25           2374      427631.00   1994953.00
   71.74        2966.50           2378      446734.00   2090880.00
   71.77        2966.75           2381      452114.00   2118013.00
   71.80        2967.00           2385      454060.00   2127841.00
   71.83        2967.25           2388      454292.00   2129013.00
   71.86        2967.50           2392      454035.00   2127714.00
   71.89        2967.75           2395      453044.00   2122709.00
   71.92        2968.00           2399      449435.00   2104496.00
   71.95        2968.25           2402      439931.00   2056644.00
   71.98        2968.50           2406      419126.00   1952453.00
   72.02        2968.75           2409      401025.00   1862422.00
   72.05        2969.00           2413      373125.00   1724758.00
   72.08        2969.25           2417      347648.00   1600200.00
   72.11        2969.50           2420      330489.00   1516917.00
   72.14        2969.75           2424      304543.00   1391898.00
   72.17        2970.00           2427      283422.00   1290926.00
   72.20        2970.25           2431      252732.00   1145460.00
   72.23        2970.50           2434      230893.00   1042833.00
   72.26        2970.75           2438      204028.00    917580.80
   72.29        2971.00           2441      183480.00    822506.40
   72.32        2971.25           2445      156255.00    697490.50
   72.35        2971.50           2449      128445.00    570889.30
   72.38        2971.75           2452      106733.00    472808.00
   72.41        2972.00           2456       77684.00    342605.50
   72.44        2972.25           2459       57731.00    253840.10
   72.47        2972.50           2463       34051.00    149187.70
   72.50        2972.75           2466       18684.00     81671.55
   72.54        2973.00           2470        6408.00     27958.13
   72.57        2973.25           2473        3364.00     14669.48
   72.60        2973.50           2477        2483.00     10825.69
   72.63        2973.75           2481        2331.00     10162.62
   72.66        2974.00           2484        2277.00      9927.06
   72.69        2974.25           2488        2208.00      9626.08
   72.72        2974.50           2491        2157.00      9403.62
   72.75        2974.75           2495        2169.00      9455.96
   72.78        2975.00           2498        2125.00      9264.03
   72.81        2975.25           2502        2060.00      8980.51
   72.84        2975.50           2505        2051.00      8941.25
   72.87        2975.75           2509        2052.00      8945.62
   72.90        2976.00           2512        1946.00      8483.27
   72.93        2976.25           2516        1944.00      8474.54
   72.96        2976.50           2520        1968.00      8579.22
   72.99        2976.75           2523        1947.00      8487.63
   73.02        2977.00           2527        1896.00      8265.18
   73.05        2977.25           2530        1889.00      8234.65
   73.09        2977.50           2534        1898.00      8273.91
   73.12        2977.75           2537        1835.00      7999.12
   73.15        2978.00           2541        1835.00      7999.12
   73.18        2978.25           2544        1803.00      7859.55
   73.21        2978.50           2548        1781.00      7763.60
   73.24        2978.75           2552        1841.00      8025.29
   73.27        2979.00           2555        1798.00      7837.75
   73.30        2979.25           2559        1746.00      7610.95
   73.33        2979.50           2562        1724.00      7515.00
   73.36        2979.75           2566        1750.00      7628.40
   73.39        2980.00           2569        1742.00      7593.50
   73.42        2980.25           2573        1745.00      7606.59
   73.45        2980.50           2577        1699.00      7405.96
   73.48        2980.75           2580        1689.00      7362.35
   73.51        2981.00           2584        1694.00      7384.16
   73.54        2981.25           2587        1678.00      7314.37
   73.57        2981.50           2591        1676.00      7305.65
   73.61        2981.75           2594        1672.00      7288.21
   73.64        2982.00           2598        1626.00      7087.58
   73.67        2982.25           2601        1657.00      7222.79
   73.70        2982.50           2605        1671.00      7283.84
   73.73        2982.75           2609        1670.00      7279.48
   73.76        2983.00           2612        1618.00      7052.69
   73.79        2983.25           2616        1619.00      7057.05
   73.82        2983.50           2619        1606.00      7000.36
   73.85        2983.75           2623        1610.00      7017.80
   73.88        2984.00           2626        1648.00      7183.53
HS scan finished at 01:14:06
end
************************************************************
  HS Scan of (1) Internal mercury lamp
************************************************************
Integration time is 0.2294 seconds per sample
dh130419Reading 51.44 .94 2.92pr1000
************************************************************
Dead Time -------------------------  3.4E-08 
Number of Cycles Used -------------  4 
Starting Wavelength (Angstroms) ---  2950 
Final Wavelength (Angstoms) -------  2984 
Wavelength Increment (Angstroms) --  .25 
Filter Wheel #1 Position ---------- (1) Ground quartz diffuser (ND=2.32)
Filter Wheel #2 Position ---------- (1) Neutral Density 0.494



************************************************************
HS scan start time = 19:37:22
Dark Count =  .5 


Time (GMT)  Wavelength (Ang)  Step Number  Raw Counts  Counts/Second

 1178.26        2950.00           2144        1401.00      6106.32
 1178.45        2950.25           2147        1430.00      6232.79
 1178.48        2950.50           2151        1380.00      6014.74
 1178.51        2950.75           2155        1439.00      6272.04
 1178.54        2951.00           2158        1412.00      6154.30
 1178.57        2951.25           2162        1428.00      6224.07
 1178.60        2951.50           2165        1450.00      6320.02
 1178.64        2951.75           2169        1443.00      6289.49
 1178.67        2952.00           2172        1416.00      6171.74
 1178.70        2952.25           2176        1419.00      6184.82
 1178.73        2952.50           2179        1400.00      6101.96
 1178.76        2952.75           2183        1436.00      6258.96
 1178.79        2953.00           2186        1439.00      6272.04
 1178.82        2953.25           2190        1472.00      6415.96
 1178.85        2953.50           2193        1467.00      6394.15
 1178.88        2953.75           2197        1427.00      6219.71
 1178.91        2954.00           2200        1463.00      6376.71
 1178.94        2954.25           2204        1482.00      6459.57
 1178.97        2954.50           2208        1497.00      6524.99
 1179.00        2954.75           2211        1468.00      6398.51
 1179.03        2955.00           2215        1474.00      6424.68
 1179.06        2955.25           2218        1509.00      6577.32
 1179.09        2955.50           2222        1513.00      6594.77
 1179.12        2955.75           2225        1518.00      6616.57
 1179.16        2956.00           2229        1520.00      6625.29
 1179.19        2956.25           2232        1528.00      6660.18
 1179.22        2956.50           2236        1552.00      6764.85
 1179.25        2956.75           2239        1566.00      6825.91
 1179.28        2957.00           2243        1560.00      6799.74
 1179.31        2957.25           2246        1562.00      6808.46
 1179.34        2957.50           2250        1607.00      7004.72
 1179.37        2957.75           2254        1597.00      6961.11
 1179.40        2958.00           2257        1607.00      7004.72
 1179.43        2958.25           2261        1617.00      7048.33
 1179.46        2958.50           2264        1646.00      7174.81
 1179.49        2958.75           2268        1681.00      7327.46
 1179.52        2959.00           2271        1632.00      7113.75
 1179.55        2959.25           2275        1680.00      7323.10
 1179.58        2959.50           2278        1717.00      7484.47
 1179.61        2959.75           2282        1739.00      7580.42
 1179.64        2960.00           2285        1747.00      7615.31
 1179.68        2960.25           2289        1787.00      7789.77
 1179.71        2960.50           2293        1802.00      7855.19
 1179.74        2960.75           2296        1848.00      8055.82
 1179.77        2961.00           2300        1913.00      8339.33
 1179.80        2961.25           2303        2224.00      9695.87
 1179.83        2961.50           2307        5669.00     24730.90
 1179.86        2961.75           2310       13226.00     57765.92
 1179.89        2962.00           2314       28231.00    123580.50
 1179.92        2962.25           2317       43065.00    188936.50
 1179.95        2962.50           2321       63220.00    278205.50
 1179.98        2962.75           2324       79079.00    348831.70
 1180.01        2963.00           2328       99893.00    442045.30
 1180.04        2963.25           2331      116028.00    514716.20
 1180.07        2963.50           2335      138516.00    616609.00
 1180.10        2963.75           2339      162080.00    724148.30
 1180.13        2964.00           2342      179313.00    803301.80
 1180.16        2964.25           2346      200315.00    900354.60
 1180.20        2964.50           2349      216446.00    975342.40
 1180.23        2964.75           2353      238193.00   1077057.00
 1180.26        2965.00           2356      254069.00   1151766.00
 1180.29        2965.25           2360      275717.00   1254267.00
 1180.32        2965.50           2363      291424.00   1329097.00
 1180.35        2965.75           2367      309847.00   1417366.00
 1180.38        2966.00           2370      323190.00   1481637.00
 1180.41        2966.25           2374      342389.00   1574623.00
 1180.44        2966.50           2378      359652.00   1658753.00
 1180.47        2966.75           2381      367636.00   1697830.00
 1180.50        2967.00           2385      370372.00   1711246.00
 1180.53        2967.25           2388      371221.00   1715412.00
 1180.56        2967.50           2392      371191.00   1715264.00
 1180.59        2967.75           2395      370880.00   1713738.00
 1180.62        2968.00           2399      368960.00   1704321.00
 1180.65        2968.25           2402      361949.00   1669984.00
 1180.68        2968.50           2406      346682.00   1595498.00
 1180.72        2968.75           2409      332090.00   1524667.00
 1180.75        2969.00           2413      310813.00   1422009.00
 1180.78        2969.25           2417      288438.00   1314841.00
 1180.81        2969.50           2420      272717.00   1240018.00
 1180.84        2969.75           2424      252421.00   1143993.00
 1180.87        2970.00           2427      236383.00   1068564.00
 1180.90        2970.25           2431      214036.00    964114.30
 1180.93        2970.50           2434      195178.00    876555.90
 1180.97        2970.75           2438      173178.00    775073.30
 1181.01        2971.00           2441      155693.00    694921.10
 1181.04        2971.25           2445      133306.00    592939.00
 1181.07        2971.50           2449      110467.00    489628.90
 1181.10        2971.75           2452       95398.00    421864.40
 1181.13        2972.00           2456       74592.00    328814.70
 1181.16        2972.25           2459       56792.00    249675.90
 1181.19        2972.50           2463       34189.00    149795.40
 1181.22        2972.75           2466       19977.00     87340.50
 1181.25        2973.00           2470        6936.00     30264.35
 1181.28        2973.25           2473        3294.00     14364.03
 1181.31        2973.50           2477        2179.00      9499.58
 1181.34        2973.75           2481        1890.00      8239.01
 1181.37        2974.00           2484        1861.00      8112.53
 1181.40        2974.25           2488        1825.00      7955.51
 1181.43        2974.50           2491        1811.00      7894.45
 1181.46        2974.75           2495        1778.00      7750.52
 1181.49        2975.00           2498        1721.00      7501.91
 1181.53        2975.25           2502        1709.00      7449.58
 1181.56        2975.50           2505        1672.00      7288.21
 1181.59        2975.75           2509        1717.00      7484.47
 1181.62        2976.00           2512        1645.00      7170.45
 1181.65        2976.25           2516        1629.00      7100.67
 1181.68        2976.50           2520        1629.00      7100.67
 1181.71        2976.75           2523        1603.00      6987.27
 1181.74        2977.00           2527        1551.00      6760.49
 1181.77        2977.25           2530        1551.00      6760.49
 1181.80        2977.50           2534        1579.00      6882.60
 1181.83        2977.75           2537        1562.00      6808.46
 1181.86        2978.00           2541        1496.00      6520.63
 1181.89        2978.25           2544        1487.00      6481.38
 1181.92        2978.50           2548        1500.00      6538.07
 1181.95        2978.75           2552        1493.00      6507.54
 1181.98        2979.00           2555        1472.00      6415.96
 1182.02        2979.25           2559        1459.00      6359.27
 1182.05        2979.50           2562        1465.00      6385.43
 1182.08        2979.75           2566        1433.00      6245.88
 1182.11        2980.00           2569        1416.00      6171.74
 1182.14        2980.25           2573        1419.00      6184.82
 1182.17        2980.50           2577        1415.00      6167.38
 1182.20        2980.75           2580        1372.00      5979.86
 1182.23        2981.00           2584        1368.00      5962.41
 1182.26        2981.25           2587        1396.00      6084.52
 1182.29        2981.50           2591        1370.00      5971.13
 1182.32        2981.75           2594        1383.00      6027.83
 1182.35        2982.00           2598        1363.00      5940.61
 1182.38        2982.25           2601        1373.00      5984.22
 1182.41        2982.50           2605        1373.00      5984.22
 1182.44        2982.75           2609        1325.00      5774.89
 1182.47        2983.00           2612        1348.00      5875.19
 1182.50        2983.25           2616        1305.00      5687.67
 1182.54        2983.50           2619        1331.00      5801.06
 1182.57        2983.75           2623        1309.00      5705.12
 1182.60        2984.00           2626        1338.00      5831.58
HS scan finished at 19:42:49
end
