************************************************************
  HS Scan of 
************************************************************
Integration time is 0.2294 seconds per sample
dh190417Reading 51.44 .94 2.88pr1000
************************************************************
Dead Time -------------------------  3.4E-08 
Number of Cycles Used -------------  4 
Starting Wavelength (Angstroms) ---  2950 
Final Wavelength (Angstoms) -------  2984 
Wavelength Increment (Angstroms) --  .25 
Filter Wheel #1 Position ---------- (1) Ground quartz diffuser (ND=2.32)
Filter Wheel #2 Position ---------- (1) Neutral Density 0.494



************************************************************
HS scan start time = 01:30:19
Dark Count =  .7 


Time (GMT)  Wavelength (Ang)  Step Number  Raw Counts  Counts/Second

   91.22        2950.00           2144         623.00      2712.98
   91.41        2950.25           2147         652.00      2839.42
   91.44        2950.50           2151         657.00      2861.22
   91.48        2950.75           2155         654.00      2848.14
   91.51        2951.00           2158         669.00      2913.54
   91.54        2951.25           2162         646.00      2813.26
   91.57        2951.50           2165         624.00      2717.34
   91.60        2951.75           2169         653.00      2843.78
   91.63        2952.00           2172         627.00      2730.42
   91.66        2952.25           2176         634.00      2760.94
   91.69        2952.50           2179         644.00      2804.54
   91.72        2952.75           2183         675.00      2939.70
   91.75        2953.00           2186         665.00      2896.10
   91.78        2953.25           2190         679.00      2957.14
   91.81        2953.50           2193         662.00      2883.02
   91.84        2953.75           2197         665.00      2896.10
   91.87        2954.00           2200         689.00      3000.74
   91.90        2954.25           2204         665.00      2896.10
   91.93        2954.50           2208         704.00      3066.14
   91.96        2954.75           2211         678.00      2952.78
   92.00        2955.00           2215         675.00      2939.70
   92.03        2955.25           2218         692.00      3013.82
   92.06        2955.50           2222         675.00      2939.70
   92.09        2955.75           2225         697.00      3035.62
   92.12        2956.00           2229         682.00      2970.22
   92.15        2956.25           2232         711.00      3096.66
   92.18        2956.50           2236         725.00      3157.71
   92.21        2956.75           2239         729.00      3175.15
   92.24        2957.00           2243         748.00      3257.99
   92.27        2957.25           2246         712.00      3101.02
   92.30        2957.50           2250         743.00      3236.19
   92.33        2957.75           2254         773.00      3366.99
   92.36        2958.00           2257         772.00      3362.63
   92.39        2958.25           2261         773.00      3366.99
   92.42        2958.50           2264         786.00      3423.68
   92.45        2958.75           2268         797.00      3471.64
   92.48        2959.00           2271         803.00      3497.80
   92.52        2959.25           2275         797.00      3471.64
   92.55        2959.50           2278         844.00      3676.57
   92.58        2959.75           2282         851.00      3707.09
   92.61        2960.00           2285         876.00      3816.10
   92.64        2960.25           2289         880.00      3833.54
   92.67        2960.50           2293         905.00      3942.55
   92.70        2960.75           2296         936.00      4077.72
   92.73        2961.00           2300        1078.00      4696.91
   92.76        2961.25           2303        1911.00      8329.73
   92.79        2961.50           2307        6793.00     29638.84
   92.82        2961.75           2310       13713.00     59896.49
   92.85        2962.00           2314       23657.00    103486.00
   92.88        2962.25           2317       32467.00    142213.00
   92.91        2962.50           2321       44235.00    194102.90
   92.94        2962.75           2324       53475.00    234974.80
   92.97        2963.00           2328       65988.00    290507.00
   93.00        2963.25           2331       76109.00    335578.20
   93.04        2963.50           2335       88615.00    391463.10
   93.07        2963.75           2339      100089.00    442925.00
   93.10        2964.00           2342      108511.00    480814.20
   93.13        2964.25           2346      121685.00    540280.00
   93.16        2964.50           2349      131383.00    584211.30
   93.19        2964.75           2353      143248.00    638139.80
   93.23        2965.00           2356      152045.00    678253.10
   93.26        2965.25           2360      163074.00    728701.20
   93.29        2965.50           2363      170812.00    764200.60
   93.32        2965.75           2367      181996.00    815663.20
   93.35        2966.00           2370      190570.00    855240.00
   93.38        2966.25           2374      200709.00    902180.60
   93.41        2966.50           2378      206269.00    927986.70
   93.44        2966.75           2381      207767.00    934947.20
   93.47        2967.00           2385      208241.00    937150.50
   93.50        2967.25           2388      208624.00    938930.90
   93.53        2967.50           2392      207837.00    935272.60
   93.56        2967.75           2395      207702.00    934645.10
   93.59        2968.00           2399      203468.00    914980.50
   93.62        2968.25           2402      195820.00    879527.00
   93.65        2968.50           2406      184436.00    826915.00
   93.68        2968.75           2409      175982.00    787967.40
   93.71        2969.00           2413      164638.00    735869.30
   93.74        2969.25           2417      153687.00    685752.80
   93.78        2969.50           2420      144572.00    644170.00
   93.81        2969.75           2424      132282.00    588290.40
   93.84        2970.00           2427      122710.00    544917.00
   93.87        2970.25           2431      110171.00    488293.90
   93.90        2970.50           2434      100469.00    444632.40
   93.93        2970.75           2438       88133.00    389305.20
   93.96        2971.00           2441       79239.00    349545.00
   93.99        2971.25           2445       65671.00    289097.60
   94.02        2971.50           2449       52098.00    228876.60
   94.05        2971.75           2452       42950.00    188427.80
   94.08        2972.00           2456       31286.00    137015.60
   94.11        2972.25           2459       22748.00     99496.01
   94.14        2972.50           2463       12475.00     54478.76
   94.17        2972.75           2466        5993.00     26144.85
   94.20        2973.00           2470        1926.00      8395.16
   94.23        2973.25           2473        1132.00      4932.39
   94.26        2973.50           2477         985.00      4291.39
   94.30        2973.75           2481         959.00      4178.01
   94.33        2974.00           2484         908.00      3955.63
   94.36        2974.25           2488         899.00      3916.39
   94.39        2974.50           2491         871.00      3794.30
   94.42        2974.75           2495         856.00      3728.90
   94.45        2975.00           2498         826.00      3598.09
   94.48        2975.25           2502         825.00      3593.73
   94.51        2975.50           2505         817.00      3558.84
   94.54        2975.75           2509         785.00      3419.32
   94.57        2976.00           2512         778.00      3388.80
   94.60        2976.25           2516         773.00      3366.99
   94.63        2976.50           2520         769.00      3349.55
   94.66        2976.75           2523         775.00      3375.71
   94.69        2977.00           2527         754.00      3284.15
   94.72        2977.25           2530         757.00      3297.23
   94.75        2977.50           2534         730.00      3179.51
   94.78        2977.75           2537         736.00      3205.67
   94.82        2978.00           2541         737.00      3210.03
   94.85        2978.25           2544         705.00      3070.50
   94.88        2978.50           2548         711.00      3096.66
   94.91        2978.75           2552         703.00      3061.78
   94.94        2979.00           2555         725.00      3157.71
   94.97        2979.25           2559         694.00      3022.54
   95.00        2979.50           2562         693.00      3018.18
   95.03        2979.75           2566         705.00      3070.50
   95.06        2980.00           2569         704.00      3066.14
   95.09        2980.25           2573         669.00      2913.54
   95.12        2980.50           2577         682.00      2970.22
   95.15        2980.75           2580         665.00      2896.10
   95.18        2981.00           2584         675.00      2939.70
   95.21        2981.25           2587         689.00      3000.74
   95.24        2981.50           2591         656.00      2856.86
   95.27        2981.75           2594         643.00      2800.18
   95.31        2982.00           2598         688.00      2996.38
   95.34        2982.25           2601         680.00      2961.50
   95.37        2982.50           2605         642.00      2795.82
   95.40        2982.75           2609         629.00      2739.14
   95.43        2983.00           2612         638.00      2778.38
   95.46        2983.25           2616         638.00      2778.38
   95.49        2983.50           2619         634.00      2760.94
   95.52        2983.75           2623         671.00      2922.26
   95.55        2984.00           2626         628.00      2734.78
HS scan finished at 01:35:47
end
************************************************************
  HS Scan of 
************************************************************
Integration time is 0.2294 seconds per sample
dh190417Reading 51.44 .94 3.31pr1000
************************************************************
Dead Time -------------------------  3.4E-08 
Number of Cycles Used -------------  4 
Starting Wavelength (Angstroms) ---  2950 
Final Wavelength (Angstoms) -------  2984 
Wavelength Increment (Angstroms) --  .25 
Filter Wheel #1 Position ---------- (1) Ground quartz diffuser (ND=2.32)
Filter Wheel #2 Position ---------- (1) Neutral Density 0.494



************************************************************
HS scan start time = 20:07:17
Dark Count =  2.2 


Time (GMT)  Wavelength (Ang)  Step Number  Raw Counts  Counts/Second

 1208.18        2950.00           2144         570.00      2475.36
 1208.38        2950.25           2147         570.00      2475.36
 1208.41        2950.50           2151         588.00      2553.84
 1208.44        2950.75           2155         576.00      2501.52
 1208.47        2951.00           2158         579.00      2514.60
 1208.50        2951.25           2162         585.00      2540.76
 1208.53        2951.50           2165         586.00      2545.12
 1208.56        2951.75           2169         596.00      2588.72
 1208.59        2952.00           2172         583.00      2532.04
 1208.62        2952.25           2176         579.00      2514.60
 1208.65        2952.50           2179         589.00      2558.20
 1208.68        2952.75           2183         604.00      2623.60
 1208.71        2953.00           2186         633.00      2750.04
 1208.74        2953.25           2190         593.00      2575.64
 1208.78        2953.50           2193         627.00      2723.88
 1208.81        2953.75           2197         614.00      2667.20
 1208.84        2954.00           2200         654.00      2841.60
 1208.87        2954.25           2204         627.00      2723.88
 1208.90        2954.50           2208         655.00      2845.96
 1208.93        2954.75           2211         634.00      2754.40
 1208.96        2955.00           2215         652.00      2832.88
 1208.99        2955.25           2218         634.00      2754.40
 1209.02        2955.50           2222         629.00      2732.60
 1209.05        2955.75           2225         628.00      2728.24
 1209.08        2956.00           2229         649.00      2819.80
 1209.11        2956.25           2232         692.00      3007.28
 1209.14        2956.50           2236         665.00      2889.56
 1209.17        2956.75           2239         654.00      2841.60
 1209.20        2957.00           2243         666.00      2893.92
 1209.23        2957.25           2246         691.00      3002.92
 1209.26        2957.50           2250         708.00      3077.04
 1209.30        2957.75           2254         670.00      2911.36
 1209.33        2958.00           2257         714.00      3103.20
 1209.36        2958.25           2261         716.00      3111.92
 1209.39        2958.50           2264         745.00      3238.37
 1209.42        2958.75           2268         726.00      3155.53
 1209.45        2959.00           2271         772.00      3356.09
 1209.48        2959.25           2275         754.00      3277.61
 1209.51        2959.50           2278         758.00      3295.05
 1209.54        2959.75           2282         747.00      3247.09
 1209.57        2960.00           2285         771.00      3351.73
 1209.60        2960.25           2289         816.00      3547.94
 1209.63        2960.50           2293         791.00      3438.94
 1209.66        2960.75           2296         845.00      3674.39
 1209.69        2961.00           2300         904.00      3931.65
 1209.72        2961.25           2303        1238.00      5388.08
 1209.75        2961.50           2307        3982.00     17358.98
 1209.78        2961.75           2310        9386.00     40962.85
 1209.82        2962.00           2314       20081.00     87789.11
 1209.85        2962.25           2317       28817.00    126149.30
 1209.88        2962.50           2321       40914.00    179434.00
 1209.91        2962.75           2324       49442.00    217114.70
 1209.94        2963.00           2328       59957.00    263708.70
 1209.97        2963.25           2331       69145.00    304544.30
 1210.00        2963.50           2335       82481.00    364019.00
 1210.03        2963.75           2339       94873.00    419501.50
 1210.06        2964.00           2342      103826.00    459718.30
 1210.09        2964.25           2346      115940.00    514311.20
 1210.12        2964.50           2349      124209.00    551694.00
 1210.15        2964.75           2353      135441.00    602626.40
 1210.18        2965.00           2356      144094.00    641985.80
 1210.21        2965.25           2360      156282.00    697606.10
 1210.24        2965.50           2363      165753.00    740974.90
 1210.27        2965.75           2367      176155.00    788756.50
 1210.30        2966.00           2370      183853.00    824218.80
 1210.33        2966.25           2374      193042.00    866663.70
 1210.37        2966.50           2378      198721.00    892957.80
 1210.40        2966.75           2381      200464.00    901037.60
 1210.43        2967.00           2385      200825.00    902711.70
 1210.46        2967.25           2388      200253.00    900059.40
 1210.49        2967.50           2392      200345.00    900485.90
 1210.52        2967.75           2395      199810.00    898005.50
 1210.55        2968.00           2399      195244.00    876853.40
 1210.58        2968.25           2402      189102.00    848449.20
 1210.61        2968.50           2406      179560.00    804431.60
 1210.64        2968.75           2409      171866.00    769035.80
 1210.67        2969.00           2413      159829.00    713833.10
 1210.70        2969.25           2417      148254.00    660946.20
 1210.73        2969.50           2420      140752.00    626771.60
 1210.76        2969.75           2424      129680.00    576480.40
 1210.79        2970.00           2427      121224.00    538188.30
 1210.82        2970.25           2431      108341.00    480041.70
 1210.86        2970.50           2434       99317.00    439450.10
 1210.89        2970.75           2438       87371.00    385887.70
 1210.92        2971.00           2441       78129.00    344583.80
 1210.95        2971.25           2445       65728.00    289344.30
 1210.98        2971.50           2449       54387.00    239008.50
 1211.01        2971.75           2452       45865.00    201298.10
 1211.04        2972.00           2456       34773.00    152360.00
 1211.07        2972.25           2459       26902.00    117731.90
 1211.10        2972.50           2463       16473.00     71975.40
 1211.13        2972.75           2466        8807.00     38432.05
 1211.16        2973.00           2470        2587.00     11271.98
 1211.19        2973.25           2473        1232.00      5361.92
 1211.22        2973.50           2477         923.00      4014.50
 1211.25        2973.75           2481         877.00      3813.92
 1211.28        2974.00           2484         891.00      3874.97
 1211.31        2974.25           2488         813.00      3534.86
 1211.34        2974.50           2491         804.00      3495.62
 1211.37        2974.75           2495         800.00      3478.18
 1211.41        2975.00           2498         809.00      3517.42
 1211.44        2975.25           2502         755.00      3281.97
 1211.47        2975.50           2505         782.00      3399.70
 1211.50        2975.75           2509         747.00      3247.09
 1211.53        2976.00           2512         739.00      3212.21
 1211.56        2976.25           2516         744.00      3234.01
 1211.59        2976.50           2520         712.00      3094.48
 1211.62        2976.75           2523         699.00      3037.80
 1211.65        2977.00           2527         689.00      2994.20
 1211.68        2977.25           2530         695.00      3020.36
 1211.71        2977.50           2534         690.00      2998.56
 1211.74        2977.75           2537         689.00      2994.20
 1211.78        2978.00           2541         669.00      2907.00
 1211.82        2978.25           2544         663.00      2880.84
 1211.85        2978.50           2548         633.00      2750.04
 1211.88        2978.75           2552         640.00      2780.56
 1211.91        2979.00           2555         662.00      2876.48
 1211.94        2979.25           2559         652.00      2832.88
 1211.97        2979.50           2562         649.00      2819.80
 1212.00        2979.75           2566         664.00      2885.20
 1212.03        2980.00           2569         651.00      2828.52
 1212.06        2980.25           2573         627.00      2723.88
 1212.09        2980.50           2577         642.00      2789.28
 1212.12        2980.75           2580         624.00      2710.80
 1212.15        2981.00           2584         616.00      2675.92
 1212.19        2981.25           2587         615.00      2671.56
 1212.22        2981.50           2591         628.00      2728.24
 1212.25        2981.75           2594         604.00      2623.60
 1212.28        2982.00           2598         627.00      2723.88
 1212.31        2982.25           2601         586.00      2545.12
 1212.34        2982.50           2605         607.00      2636.68
 1212.37        2982.75           2609         590.00      2562.56
 1212.40        2983.00           2612         579.00      2514.60
 1212.43        2983.25           2616         608.00      2641.04
 1212.46        2983.50           2619         614.00      2667.20
 1212.49        2983.75           2623         623.00      2706.44
 1212.52        2984.00           2626         596.00      2588.72
HS scan finished at 20:12:45
end
