************************************************************
  HS Scan of 
************************************************************
Integration time is 0.2294 seconds per sample
dh140417Reading 51.44 .94 3.07pr1000
************************************************************
Dead Time -------------------------  3.4E-08 
Number of Cycles Used -------------  4 
Starting Wavelength (Angstroms) ---  2950 
Final Wavelength (Angstoms) -------  2984 
Wavelength Increment (Angstroms) --  .25 
Filter Wheel #1 Position ---------- (1) Ground quartz diffuser (ND=2.32)
Filter Wheel #2 Position ---------- (1) Neutral Density 0.494



************************************************************
HS scan start time = 01:08:10
Dark Count =  1.1 


Time (GMT)  Wavelength (Ang)  Step Number  Raw Counts  Counts/Second

   69.07        2950.00           2144         656.00      2855.12
   69.26        2950.25           2147         641.00      2789.72
   69.29        2950.50           2151         651.00      2833.32
   69.32        2950.75           2155         657.00      2859.48
   69.35        2951.00           2158         611.00      2658.92
   69.38        2951.25           2162         646.00      2811.52
   69.41        2951.50           2165         666.00      2898.72
   69.44        2951.75           2169         666.00      2898.72
   69.47        2952.00           2172         654.00      2846.40
   69.50        2952.25           2176         679.00      2955.40
   69.54        2952.50           2179         666.00      2898.72
   69.57        2952.75           2183         678.00      2951.04
   69.60        2953.00           2186         664.00      2890.00
   69.63        2953.25           2190         676.00      2942.32
   69.66        2953.50           2193         684.00      2977.20
   69.69        2953.75           2197         667.00      2903.08
   69.72        2954.00           2200         708.00      3081.84
   69.75        2954.25           2204         705.00      3068.76
   69.78        2954.50           2208         701.00      3051.32
   69.81        2954.75           2211         696.00      3029.52
   69.84        2955.00           2215         702.00      3055.68
   69.87        2955.25           2218         709.00      3086.20
   69.90        2955.50           2222         688.00      2994.64
   69.93        2955.75           2225         724.00      3151.60
   69.96        2956.00           2229         749.00      3260.61
   69.99        2956.25           2232         720.00      3134.16
   70.03        2956.50           2236         742.00      3230.08
   70.06        2956.75           2239         744.00      3238.81
   70.09        2957.00           2243         742.00      3230.08
   70.12        2957.25           2246         731.00      3182.12
   70.15        2957.50           2250         778.00      3387.05
   70.18        2957.75           2254         789.00      3435.01
   70.21        2958.00           2257         773.00      3365.25
   70.24        2958.25           2261         771.00      3356.53
   70.27        2958.50           2264         787.00      3426.29
   70.30        2958.75           2268         799.00      3478.62
   70.33        2959.00           2271         812.00      3535.30
   70.36        2959.25           2275         831.00      3618.14
   70.39        2959.50           2278         857.00      3731.51
   70.42        2959.75           2282         849.00      3696.63
   70.45        2960.00           2285         833.00      3626.86
   70.48        2960.25           2289         886.00      3857.96
   70.51        2960.50           2293         909.00      3958.25
   70.55        2960.75           2296         935.00      4071.62
   70.58        2961.00           2300        1068.00      4651.56
   70.61        2961.25           2303        1283.00      5589.12
   70.64        2961.50           2307        3932.00     17145.56
   70.67        2961.75           2310       10051.00     43874.91
   70.70        2962.00           2314       21360.00     93403.83
   70.73        2962.25           2317       30678.00    134338.90
   70.76        2962.50           2321       42356.00    185803.50
   70.79        2962.75           2324       51527.00    226346.80
   70.82        2963.00           2328       64329.00    283130.50
   70.85        2963.25           2331       73269.00    322915.20
   70.88        2963.50           2335       86474.00    381878.70
   70.91        2963.75           2339       99711.00    441224.90
   70.94        2964.00           2342      110824.00    491235.50
   70.97        2964.25           2346      124943.00    555022.00
   71.00        2964.50           2349      134900.00    600174.10
   71.03        2964.75           2353      147221.00    656240.80
   71.06        2965.00           2356      156349.00    697917.60
   71.10        2965.25           2360      168541.00    753771.30
   71.13        2965.50           2363      178534.00    799711.70
   71.16        2965.75           2367      191462.00    859361.90
   71.19        2966.00           2370      199604.00    897055.60
   71.22        2966.25           2374      211543.00    952506.10
   71.25        2966.50           2378      218614.00    985447.60
   71.28        2966.75           2381      219942.00    991642.70
   71.31        2967.00           2385      221000.00    996580.20
   71.34        2967.25           2388      221415.00    998517.30
   71.38        2967.50           2392      221019.00    996668.90
   71.42        2967.75           2395      220103.00    992394.00
   71.45        2968.00           2399      214480.00    966179.40
   71.48        2968.25           2402      206947.00    931134.90
   71.51        2968.50           2406      195493.00    878011.20
   71.54        2968.75           2409      186803.00    837836.80
   71.57        2969.00           2413      175589.00    786157.60
   71.60        2969.25           2417      163004.00    728378.60
   71.63        2969.50           2420      153694.00    685783.00
   71.66        2969.75           2424      139181.00    619630.20
   71.69        2970.00           2427      128342.00    570419.70
   71.72        2970.25           2431      116702.00    517757.00
   71.75        2970.50           2434      108412.00    480366.50
   71.78        2970.75           2438       95291.00    421381.60
   71.81        2971.00           2441       83990.00    370768.90
   71.85        2971.25           2445       69985.00    308288.20
   71.88        2971.50           2449       56776.00    249602.30
   71.91        2971.75           2452       47641.00    209153.80
   71.94        2972.00           2456       35782.00    156809.80
   71.97        2972.25           2459       26378.00    115434.30
   72.00        2972.50           2463       13308.00     58122.16
   72.03        2972.75           2466        5919.00     25819.95
   72.06        2973.00           2470        1853.00      8075.02
   72.09        2973.25           2473        1214.00      5288.22
   72.12        2973.50           2477        1032.00      4494.58
   72.15        2973.75           2481         987.00      4298.36
   72.18        2974.00           2484         921.00      4010.57
   72.21        2974.25           2488         910.00      3962.61
   72.24        2974.50           2491         889.00      3871.04
   72.27        2974.75           2495         880.00      3831.80
   72.30        2975.00           2498         862.00      3753.31
   72.33        2975.25           2502         856.00      3727.15
   72.36        2975.50           2505         851.00      3705.35
   72.40        2975.75           2509         858.00      3735.87
   72.43        2976.00           2512         837.00      3644.31
   72.46        2976.25           2516         849.00      3696.63
   72.49        2976.50           2520         806.00      3509.14
   72.52        2976.75           2523         810.00      3526.58
   72.55        2977.00           2527         781.00      3400.13
   72.58        2977.25           2530         782.00      3404.49
   72.61        2977.50           2534         779.00      3391.41
   72.64        2977.75           2537         743.00      3234.44
   72.67        2978.00           2541         757.00      3295.49
   72.70        2978.25           2544         756.00      3291.13
   72.73        2978.50           2548         767.00      3339.09
   72.76        2978.75           2552         735.00      3199.56
   72.79        2979.00           2555         718.00      3125.44
   72.82        2979.25           2559         730.00      3177.76
   72.85        2979.50           2562         727.00      3164.68
   72.89        2979.75           2566         717.00      3121.08
   72.92        2980.00           2569         715.00      3112.36
   72.95        2980.25           2573         700.00      3046.96
   72.98        2980.50           2577         694.00      3020.80
   73.01        2980.75           2580         681.00      2964.12
   73.04        2981.00           2584         683.00      2972.84
   73.07        2981.25           2587         727.00      3164.68
   73.10        2981.50           2591         670.00      2916.16
   73.13        2981.75           2594         675.00      2937.96
   73.16        2982.00           2598         671.00      2920.52
   73.19        2982.25           2601         673.00      2929.24
   73.22        2982.50           2605         667.00      2903.08
   73.25        2982.75           2609         663.00      2885.64
   73.28        2983.00           2612         676.00      2942.32
   73.31        2983.25           2616         660.00      2872.56
   73.34        2983.50           2619         678.00      2951.04
   73.37        2983.75           2623         639.00      2781.00
   73.41        2984.00           2626         646.00      2811.52
HS scan finished at 01:13:38
end
************************************************************
  HS Scan of 
************************************************************
Integration time is 0.2294 seconds per sample
dh140417Reading 51.44 .94 3.19pr1000
************************************************************
Dead Time -------------------------  3.4E-08 
Number of Cycles Used -------------  4 
Starting Wavelength (Angstroms) ---  2950 
Final Wavelength (Angstoms) -------  2984 
Wavelength Increment (Angstroms) --  .25 
Filter Wheel #1 Position ---------- (1) Ground quartz diffuser (ND=2.32)
Filter Wheel #2 Position ---------- (1) Neutral Density 0.494



************************************************************
HS scan start time = 20:07:21
Dark Count =  1.7 


Time (GMT)  Wavelength (Ang)  Step Number  Raw Counts  Counts/Second

 1208.25        2950.00           2144         617.00      2682.46
 1208.44        2950.25           2147         625.00      2717.34
 1208.47        2950.50           2151         635.00      2760.94
 1208.50        2950.75           2155         657.00      2856.86
 1208.53        2951.00           2158         610.00      2651.94
 1208.56        2951.25           2162         663.00      2883.02
 1208.59        2951.50           2165         631.00      2743.50
 1208.62        2951.75           2169         636.00      2765.30
 1208.66        2952.00           2172         631.00      2743.50
 1208.69        2952.25           2176         648.00      2817.62
 1208.72        2952.50           2179         659.00      2865.58
 1208.75        2952.75           2183         681.00      2961.50
 1208.78        2953.00           2186         634.00      2756.58
 1208.81        2953.25           2190         642.00      2791.46
 1208.84        2953.50           2193         681.00      2961.50
 1208.87        2953.75           2197         686.00      2983.30
 1208.90        2954.00           2200         669.00      2909.18
 1208.93        2954.25           2204         677.00      2944.06
 1208.96        2954.50           2208         701.00      3048.70
 1208.99        2954.75           2211         663.00      2883.02
 1209.02        2955.00           2215         706.00      3070.50
 1209.05        2955.25           2218         692.00      3009.46
 1209.08        2955.50           2222         690.00      3000.74
 1209.11        2955.75           2225         701.00      3048.70
 1209.14        2956.00           2229         688.00      2992.02
 1209.18        2956.25           2232         738.00      3210.03
 1209.21        2956.50           2236         717.00      3118.46
 1209.24        2956.75           2239         712.00      3096.66
 1209.27        2957.00           2243         719.00      3127.19
 1209.30        2957.25           2246         703.00      3057.42
 1209.33        2957.50           2250         758.00      3297.23
 1209.36        2957.75           2254         748.00      3253.63
 1209.39        2958.00           2257         742.00      3227.47
 1209.42        2958.25           2261         785.00      3414.96
 1209.45        2958.50           2264         770.00      3349.55
 1209.48        2958.75           2268         768.00      3340.83
 1209.51        2959.00           2271         809.00      3519.60
 1209.54        2959.25           2275         770.00      3349.55
 1209.57        2959.50           2278         810.00      3523.96
 1209.60        2959.75           2282         828.00      3602.45
 1209.63        2960.00           2285         826.00      3593.73
 1209.66        2960.25           2289         852.00      3707.09
 1209.70        2960.50           2293         840.00      3654.77
 1209.73        2960.75           2296         902.00      3925.11
 1209.76        2961.00           2300         944.00      4108.25
 1209.79        2961.25           2303        1291.00      5621.39
 1209.82        2961.50           2307        4436.00     19342.71
 1209.85        2961.75           2310       10145.00     44283.28
 1209.88        2962.00           2314       19878.00     86901.12
 1209.91        2962.25           2317       28158.00    123254.30
 1209.94        2962.50           2321       39320.00    172403.90
 1209.97        2962.75           2324       47630.00    209102.50
 1210.00        2963.00           2328       58618.00    257769.30
 1210.03        2963.25           2331       67709.00    298156.80
 1210.06        2963.50           2335       80868.00    356814.80
 1210.09        2963.75           2339       94537.00    417996.60
 1210.12        2964.00           2342      104008.00    460539.20
 1210.15        2964.25           2346      115204.00    510990.70
 1210.18        2964.50           2349      123365.00    547876.30
 1210.22        2964.75           2353      135130.00    601215.90
 1210.25        2965.00           2356      144873.00    645536.80
 1210.28        2965.25           2360      156689.00    699469.50
 1210.31        2965.50           2363      164793.00    736575.30
 1210.34        2965.75           2367      175724.00    786775.90
 1210.37        2966.00           2370      184463.00    827034.90
 1210.40        2966.25           2374      193934.00    870792.90
 1210.43        2966.50           2378      202893.00    912307.20
 1210.46        2966.75           2381      206189.00    927610.30
 1210.49        2967.00           2385      206793.00    930416.40
 1210.52        2967.25           2388      207391.00    933195.10
 1210.55        2967.50           2392      207207.00    932340.20
 1210.58        2967.75           2395      206861.00    930732.50
 1210.61        2968.00           2399      204949.00    921851.20
 1210.64        2968.25           2402      200386.00    900678.30
 1210.67        2968.50           2406      191108.00    857722.30
 1210.70        2968.75           2409      181724.00    814404.80
 1210.73        2969.00           2413      168892.00    755379.60
 1210.77        2969.25           2417      156054.00    696566.00
 1210.80        2969.50           2420      147498.00    657500.90
 1210.83        2969.75           2424      135741.00    603991.40
 1210.86        2970.00           2427      126028.00    559932.60
 1210.89        2970.25           2431      112673.00    499570.30
 1210.92        2970.50           2434      103377.00    457700.90
 1210.95        2970.75           2438       91031.00    402279.40
 1210.98        2971.00           2441       82897.00    365880.30
 1211.01        2971.25           2445       70445.00    310333.50
 1211.04        2971.50           2449       58040.00    255205.30
 1211.07        2971.75           2452       49712.00    218311.50
 1211.10        2972.00           2456       36934.00    161883.80
 1211.13        2972.25           2459       27254.00    119281.00
 1211.16        2972.50           2463       15557.00     67965.51
 1211.19        2972.75           2466        8375.00     36546.26
 1211.22        2973.00           2470        2733.00     11911.10
 1211.26        2973.25           2473        1435.00      6249.37
 1211.29        2973.50           2477        1026.00      4465.81
 1211.32        2973.75           2481         916.00      3986.16
 1211.35        2974.00           2484         892.00      3881.51
 1211.38        2974.25           2488         902.00      3925.11
 1211.41        2974.50           2491         864.00      3759.42
 1211.44        2974.75           2495         885.00      3850.98
 1211.47        2975.00           2498         854.00      3715.81
 1211.50        2975.25           2502         840.00      3654.77
 1211.53        2975.50           2505         834.00      3628.61
 1211.56        2975.75           2509         798.00      3471.64
 1211.59        2976.00           2512         764.00      3323.39
 1211.62        2976.25           2516         776.00      3375.71
 1211.65        2976.50           2520         780.00      3393.16
 1211.68        2976.75           2523         783.00      3406.24
 1211.71        2977.00           2527         752.00      3271.07
 1211.74        2977.25           2530         771.00      3353.91
 1211.78        2977.50           2534         736.00      3201.31
 1211.81        2977.75           2537         747.00      3249.27
 1211.84        2978.00           2541         710.00      3087.94
 1211.87        2978.25           2544         713.00      3101.02
 1211.90        2978.50           2548         742.00      3227.47
 1211.93        2978.75           2552         695.00      3022.54
 1211.96        2979.00           2555         696.00      3026.90
 1211.99        2979.25           2559         685.00      2978.94
 1212.02        2979.50           2562         697.00      3031.26
 1212.05        2979.75           2566         670.00      2913.54
 1212.08        2980.00           2569         715.00      3109.74
 1212.11        2980.25           2573         663.00      2883.02
 1212.14        2980.50           2577         674.00      2930.98
 1212.17        2980.75           2580         669.00      2909.18
 1212.20        2981.00           2584         653.00      2839.42
 1212.23        2981.25           2587         660.00      2869.94
 1212.26        2981.50           2591         645.00      2804.54
 1212.30        2981.75           2594         682.00      2965.86
 1212.33        2982.00           2598         650.00      2826.34
 1212.36        2982.25           2601         643.00      2795.82
 1212.39        2982.50           2605         665.00      2891.74
 1212.42        2982.75           2609         633.00      2752.22
 1212.45        2983.00           2612         639.00      2778.38
 1212.48        2983.25           2616         658.00      2861.22
 1212.51        2983.50           2619         656.00      2852.50
 1212.54        2983.75           2623         610.00      2651.94
 1212.57        2984.00           2626         640.00      2782.74
HS scan finished at 20:12:48
end
