************************************************************
  HS Scan of (1) Internal mercury lamp
************************************************************
Integration time is 0.2294 seconds per sample
dh170418Reading 51.44 .94 3.25pr1000
************************************************************
Dead Time -------------------------  3.4E-08 
Number of Cycles Used -------------  4 
Starting Wavelength (Angstroms) ---  2950 
Final Wavelength (Angstoms) -------  2984 
Wavelength Increment (Angstroms) --  .25 
Filter Wheel #1 Position ---------- (1) Ground quartz diffuser (ND=2.32)
Filter Wheel #2 Position ---------- (1) Neutral Density 0.494



************************************************************
HS scan start time = 01:15:39
Dark Count =  1.6 


Time (GMT)  Wavelength (Ang)  Step Number  Raw Counts  Counts/Second

   76.56        2950.00           2144          63.00       267.66
   76.75        2950.25           2147          64.00       272.02
   76.78        2950.50           2151          68.00       289.45
   76.81        2950.75           2155          62.00       263.30
   76.84        2951.00           2158          67.00       285.09
   76.87        2951.25           2162          66.00       280.74
   76.90        2951.50           2165          60.00       254.58
   76.93        2951.75           2169          68.00       289.45
   76.96        2952.00           2172          63.00       267.66
   76.99        2952.25           2176          62.00       263.30
   77.02        2952.50           2179          63.00       267.66
   77.05        2952.75           2183          68.00       289.45
   77.09        2953.00           2186          62.00       263.30
   77.12        2953.25           2190          67.00       285.09
   77.15        2953.50           2193          65.00       276.38
   77.18        2953.75           2197          62.00       263.30
   77.21        2954.00           2200          68.00       289.45
   77.24        2954.25           2204          72.00       306.89
   77.27        2954.50           2208          74.00       315.61
   77.30        2954.75           2211          64.00       272.02
   77.33        2955.00           2215          62.00       263.30
   77.36        2955.25           2218          69.00       293.81
   77.39        2955.50           2222          71.00       302.53
   77.42        2955.75           2225          80.00       341.77
   77.45        2956.00           2229          74.00       315.61
   77.48        2956.25           2232          68.00       289.45
   77.51        2956.50           2236          76.00       324.33
   77.54        2956.75           2239          68.00       289.45
   77.57        2957.00           2243          75.00       319.97
   77.61        2957.25           2246          75.00       319.97
   77.64        2957.50           2250          79.00       337.41
   77.67        2957.75           2254          83.00       354.84
   77.70        2958.00           2257          80.00       341.77
   77.73        2958.25           2261          78.00       333.05
   77.76        2958.50           2264          73.00       311.25
   77.79        2958.75           2268          84.00       359.20
   77.82        2959.00           2271          77.00       328.69
   77.85        2959.25           2275          85.00       363.56
   77.88        2959.50           2278          81.00       346.12
   77.91        2959.75           2282          84.00       359.20
   77.94        2960.00           2285          81.00       346.12
   77.97        2960.25           2289          83.00       354.84
   78.00        2960.50           2293          88.00       376.64
   78.03        2960.75           2296          98.00       420.23
   78.06        2961.00           2300         112.00       481.26
   78.09        2961.25           2303         226.00       978.24
   78.13        2961.50           2307         621.00      2700.34
   78.16        2961.75           2310        1237.00      5386.34
   78.19        2962.00           2314        2543.00     11082.64
   78.22        2962.25           2317        3533.00     15402.14
   78.25        2962.50           2321        4814.00     20993.19
   78.28        2962.75           2324        5632.00     24564.54
   78.31        2963.00           2328        6897.00     30089.18
   78.34        2963.25           2331        7854.00     34270.08
   78.37        2963.50           2335        9236.00     40309.79
   78.40        2963.75           2339       10274.00     44847.76
   78.43        2964.00           2342       11397.00     49758.92
   78.46        2964.25           2346       12916.00     56404.50
   78.49        2964.50           2349       14070.00     61455.22
   78.52        2964.75           2353       15444.00     67471.09
   78.55        2965.00           2356       16502.00     72105.07
   78.58        2965.25           2360       17641.00     77095.46
   78.61        2965.50           2363       18567.00     81153.87
   78.65        2965.75           2367       20114.00     87936.46
   78.68        2966.00           2370       21143.00     92449.68
   78.71        2966.25           2374       22157.00     96898.49
   78.74        2966.50           2378       22691.00     99241.89
   78.77        2966.75           2381       22911.00    100207.40
   78.80        2967.00           2385       22753.00     99514.00
   78.83        2967.25           2388       22732.00     99421.82
   78.86        2967.50           2392       22651.00     99066.34
   78.89        2967.75           2395       22475.00     98293.96
   78.92        2968.00           2399       21833.00     95476.83
   78.95        2968.25           2402       20865.00     91230.24
   78.98        2968.50           2406       19511.00     85292.32
   79.01        2968.75           2409       18703.00     81750.03
   79.04        2969.00           2413       17490.00     76433.78
   79.07        2969.25           2417       16373.00     71539.98
   79.10        2969.50           2420       15424.00     67383.50
   79.13        2969.75           2424       14083.00     61512.13
   79.17        2970.00           2427       12882.00     56255.71
   79.20        2970.25           2431       11307.00     49365.27
   79.23        2970.50           2434       10418.00     45477.42
   79.26        2970.75           2438        9124.00     39820.23
   79.29        2971.00           2441        8155.00     35585.32
   79.32        2971.25           2445        6689.00     29180.64
   79.35        2971.50           2449        5230.00     22809.31
   79.38        2971.75           2452        4131.00     18011.90
   79.41        2972.00           2456        2972.00     12954.27
   79.44        2972.25           2459        2136.00      9307.22
   79.47        2972.50           2463        1121.00      4880.50
   79.50        2972.75           2466         498.00      2164.07
   79.53        2973.00           2470         147.00       633.84
   79.56        2973.25           2473         110.00       472.54
   79.59        2973.50           2477         118.00       507.42
   79.62        2973.75           2481          97.00       415.87
   79.65        2974.00           2484          96.00       411.51
   79.68        2974.25           2488          81.00       346.12
   79.72        2974.50           2491          84.00       359.20
   79.75        2974.75           2495          91.00       389.72
   79.78        2975.00           2498          87.00       372.28
   79.81        2975.25           2502          82.00       350.48
   79.84        2975.50           2505          86.00       367.92
   79.87        2975.75           2509          87.00       372.28
   79.90        2976.00           2512          83.00       354.84
   79.93        2976.25           2516          79.00       337.41
   79.96        2976.50           2520          74.00       315.61
   79.99        2976.75           2523          76.00       324.33
   80.02        2977.00           2527          81.00       346.12
   80.05        2977.25           2530          76.00       324.33
   80.08        2977.50           2534          71.00       302.53
   80.11        2977.75           2537          74.00       315.61
   80.14        2978.00           2541          67.00       285.09
   80.17        2978.25           2544          66.00       280.74
   80.20        2978.50           2548          73.00       311.25
   80.24        2978.75           2552          68.00       289.45
   80.27        2979.00           2555          65.00       276.38
   80.30        2979.25           2559          66.00       280.74
   80.33        2979.50           2562          74.00       315.61
   80.36        2979.75           2566          69.00       293.81
   80.39        2980.00           2569          68.00       289.45
   80.42        2980.25           2573          65.00       276.38
   80.45        2980.50           2577          76.00       324.33
   80.48        2980.75           2580          62.00       263.30
   80.51        2981.00           2584          67.00       285.09
   80.54        2981.25           2587          68.00       289.45
   80.57        2981.50           2591          66.00       280.74
   80.60        2981.75           2594          66.00       280.74
   80.63        2982.00           2598          66.00       280.74
   80.66        2982.25           2601          68.00       289.45
   80.69        2982.50           2605          71.00       302.53
   80.72        2982.75           2609          68.00       289.45
   80.76        2983.00           2612          65.00       276.38
   80.79        2983.25           2616          72.00       306.89
   80.82        2983.50           2619          65.00       276.38
   80.85        2983.75           2623          66.00       280.74
   80.88        2984.00           2626          64.00       272.02
HS scan finished at 01:21:06
end
************************************************************
  HS Scan of (1) Internal mercury lamp
************************************************************
Integration time is 0.2294 seconds per sample
dh170418Reading 51.44 .94 3.37pr1000
************************************************************
Dead Time -------------------------  3.4E-08 
Number of Cycles Used -------------  4 
Starting Wavelength (Angstroms) ---  2950 
Final Wavelength (Angstoms) -------  2984 
Wavelength Increment (Angstroms) --  .25 
Filter Wheel #1 Position ---------- (1) Ground quartz diffuser (ND=2.32)
Filter Wheel #2 Position ---------- (1) Neutral Density 0.494



************************************************************
HS scan start time = 20:07:25
Dark Count =  2.3 


Time (GMT)  Wavelength (Ang)  Step Number  Raw Counts  Counts/Second

 1208.32        2950.00           2144          55.00       229.73
 1208.52        2950.25           2147          56.00       234.09
 1208.55        2950.50           2151          59.00       247.17
 1208.58        2950.75           2155          57.00       238.45
 1208.61        2951.00           2158          62.00       260.25
 1208.64        2951.25           2162          56.00       234.09
 1208.67        2951.50           2165          55.00       229.73
 1208.70        2951.75           2169          58.00       242.81
 1208.73        2952.00           2172          61.00       255.89
 1208.76        2952.25           2176          59.00       247.17
 1208.79        2952.50           2179          60.00       251.53
 1208.82        2952.75           2183          54.00       225.37
 1208.85        2953.00           2186          54.00       225.37
 1208.88        2953.25           2190          56.00       234.09
 1208.91        2953.50           2193          63.00       264.61
 1208.94        2953.75           2197          54.00       225.37
 1208.97        2954.00           2200          62.00       260.25
 1209.01        2954.25           2204          62.00       260.25
 1209.04        2954.50           2208          58.00       242.81
 1209.07        2954.75           2211          58.00       242.81
 1209.10        2955.00           2215          55.00       229.73
 1209.13        2955.25           2218          60.00       251.53
 1209.16        2955.50           2222          62.00       260.25
 1209.19        2955.75           2225          59.00       247.17
 1209.22        2956.00           2229          67.00       282.04
 1209.25        2956.25           2232          67.00       282.04
 1209.28        2956.50           2236          64.00       268.96
 1209.31        2956.75           2239          62.00       260.25
 1209.34        2957.00           2243          63.00       264.61
 1209.37        2957.25           2246          69.00       290.76
 1209.40        2957.50           2250          72.00       303.84
 1209.43        2957.75           2254          61.00       255.89
 1209.46        2958.00           2257          62.00       260.25
 1209.49        2958.25           2261          62.00       260.25
 1209.52        2958.50           2264          61.00       255.89
 1209.56        2958.75           2268          71.00       299.48
 1209.59        2959.00           2271          71.00       299.48
 1209.62        2959.25           2275          79.00       334.35
 1209.65        2959.50           2278          74.00       312.56
 1209.68        2959.75           2282          73.00       308.20
 1209.71        2960.00           2285          93.00       395.38
 1209.74        2960.25           2289          85.00       360.51
 1209.77        2960.50           2293          77.00       325.64
 1209.80        2960.75           2296          85.00       360.51
 1209.83        2961.00           2300         161.00       691.82
 1209.86        2961.25           2303         293.00      1267.27
 1209.89        2961.50           2307         906.00      3939.94
 1209.92        2961.75           2310        1596.00      6948.90
 1209.95        2962.00           2314        2637.00     11489.67
 1209.98        2962.25           2317        3468.00     15115.44
 1210.01        2962.50           2321        4753.00     20723.84
 1210.05        2962.75           2324        5565.00     24268.93
 1210.08        2963.00           2328        6685.00     29160.11
 1210.11        2963.25           2331        7446.00     32484.42
 1210.14        2963.50           2335        8638.00     37693.00
 1210.17        2963.75           2339        9961.00     43476.17
 1210.21        2964.00           2342       11299.00     49327.22
 1210.24        2964.25           2346       12569.00     54883.05
 1210.27        2964.50           2349       13472.00     58834.67
 1210.31        2964.75           2353       14700.00     64210.22
 1210.34        2965.00           2356       15584.00     68081.13
 1210.37        2965.25           2360       16566.00     72382.36
 1210.40        2965.50           2363       17594.00     76886.44
 1210.43        2965.75           2367       18812.00     82224.75
 1210.46        2966.00           2370       19537.00     85403.25
 1210.49        2966.25           2374       20531.00     89762.19
 1210.52        2966.50           2378       20814.00     91003.47
 1210.55        2966.75           2381       20961.00     91648.25
 1210.58        2967.00           2385       21031.00     91955.31
 1210.61        2967.25           2388       20873.00     91262.25
 1210.64        2967.50           2392       20770.00     90810.46
 1210.67        2967.75           2395       20745.00     90700.81
 1210.70        2968.00           2399       19878.00     86898.48
 1210.73        2968.25           2402       19083.00     83412.78
 1210.76        2968.50           2406       18018.00     78744.54
 1210.79        2968.75           2409       17199.00     75155.63
 1210.82        2969.00           2413       16204.00     70796.63
 1210.86        2969.25           2417       14726.00     64324.05
 1210.89        2969.50           2420       13917.00     60782.42
 1210.92        2969.75           2424       12759.00     55714.42
 1210.95        2970.00           2427       11766.00     51369.94
 1210.98        2970.25           2431       10457.00     45644.90
 1211.01        2970.50           2434        9598.00     41889.18
 1211.04        2970.75           2438        8334.00     36364.47
 1211.07        2971.00           2441        7249.00     31623.78
 1211.10        2971.25           2445        5939.00     25902.05
 1211.13        2971.50           2449        4799.00     20924.65
 1211.16        2971.75           2452        3927.00     17118.51
 1211.19        2972.00           2456        2904.00     12654.53
 1211.22        2972.25           2459        2085.00      9081.71
 1211.25        2972.50           2463        1083.00      4711.74
 1211.28        2972.75           2466         507.00      2200.25
 1211.31        2973.00           2470         169.00       726.70
 1211.35        2973.25           2473         100.00       425.90
 1211.38        2973.50           2477          97.00       412.82
 1211.41        2973.75           2481          91.00       386.67
 1211.44        2974.00           2484          97.00       412.82
 1211.47        2974.25           2488          86.00       364.87
 1211.50        2974.50           2491          88.00       373.59
 1211.53        2974.75           2495          79.00       334.35
 1211.56        2975.00           2498          76.00       321.28
 1211.59        2975.25           2502          69.00       290.76
 1211.62        2975.50           2505          73.00       308.20
 1211.65        2975.75           2509          78.00       329.99
 1211.68        2976.00           2512          66.00       277.68
 1211.71        2976.25           2516          79.00       334.35
 1211.74        2976.50           2520          72.00       303.84
 1211.77        2976.75           2523          72.00       303.84
 1211.80        2977.00           2527          69.00       290.76
 1211.83        2977.25           2530          67.00       282.04
 1211.87        2977.50           2534          66.00       277.68
 1211.90        2977.75           2537          67.00       282.04
 1211.93        2978.00           2541          68.00       286.40
 1211.96        2978.25           2544          63.00       264.61
 1211.99        2978.50           2548          67.00       282.04
 1212.02        2978.75           2552          72.00       303.84
 1212.05        2979.00           2555          73.00       308.20
 1212.08        2979.25           2559          71.00       299.48
 1212.11        2979.50           2562          59.00       247.17
 1212.14        2979.75           2566          56.00       234.09
 1212.17        2980.00           2569          63.00       264.61
 1212.20        2980.25           2573          67.00       282.04
 1212.23        2980.50           2577          59.00       247.17
 1212.26        2980.75           2580          62.00       260.25
 1212.29        2981.00           2584          62.00       260.25
 1212.32        2981.25           2587          63.00       264.61
 1212.35        2981.50           2591          60.00       251.53
 1212.38        2981.75           2594          58.00       242.81
 1212.42        2982.00           2598          63.00       264.61
 1212.45        2982.25           2601          58.00       242.81
 1212.48        2982.50           2605          63.00       264.61
 1212.51        2982.75           2609          58.00       242.81
 1212.54        2983.00           2612          57.00       238.45
 1212.57        2983.25           2616          54.00       225.37
 1212.60        2983.50           2619          55.00       229.73
 1212.63        2983.75           2623          61.00       255.89
 1212.66        2984.00           2626          56.00       234.09
HS scan finished at 20:12:53
end
