************************************************************
  HS Scan of (1) Internal mercury lamp
************************************************************
Integration time is 0.2294 seconds per sample
dh120419Reading 51.44 .94 2.7pr1000
************************************************************
Dead Time -------------------------  3.4E-08 
Number of Cycles Used -------------  4 
Starting Wavelength (Angstroms) ---  2950 
Final Wavelength (Angstoms) -------  2984 
Wavelength Increment (Angstroms) --  .25 
Filter Wheel #1 Position ---------- (1) Ground quartz diffuser (ND=2.32)
Filter Wheel #2 Position ---------- (1) Neutral Density 0.494



************************************************************
HS scan start time = 01:32:05
Dark Count =  .3 


Time (GMT)  Wavelength (Ang)  Step Number  Raw Counts  Counts/Second

   92.98        2950.00           2144        1733.00      7555.12
   93.18        2950.25           2147        1779.00      7755.75
   93.21        2950.50           2151        1741.00      7590.01
   93.24        2950.75           2155        1762.00      7681.61
   93.27        2951.00           2158        1708.00      7446.09
   93.30        2951.25           2162        1745.00      7607.46
   93.33        2951.50           2165        1718.00      7489.70
   93.36        2951.75           2169        1750.00      7629.27
   93.39        2952.00           2172        1752.00      7637.99
   93.42        2952.25           2176        1720.00      7498.42
   93.45        2952.50           2179        1740.00      7585.65
   93.48        2952.75           2183        1780.00      7760.11
   93.51        2953.00           2186        1788.00      7795.00
   93.54        2953.25           2190        1747.00      7616.18
   93.58        2953.50           2193        1778.00      7751.39
   93.61        2953.75           2197        1770.00      7716.50
   93.64        2954.00           2200        1798.00      7838.62
   93.67        2954.25           2204        1791.00      7808.09
   93.70        2954.50           2208        1816.00      7917.13
   93.73        2954.75           2211        1826.00      7960.74
   93.76        2955.00           2215        1800.00      7847.34
   93.79        2955.25           2218        1844.00      8039.25
   93.82        2955.50           2222        1902.00      8292.22
   93.85        2955.75           2225        1911.00      8331.48
   93.88        2956.00           2229        1905.00      8305.31
   93.91        2956.25           2232        1879.00      8191.91
   93.94        2956.50           2236        1887.00      8226.80
   93.97        2956.75           2239        1929.00      8409.99
   94.00        2957.00           2243        1931.00      8418.71
   94.03        2957.25           2246        1977.00      8619.35
   94.06        2957.50           2250        1983.00      8645.52
   94.10        2957.75           2254        1993.00      8689.14
   94.13        2958.00           2257        2018.00      8798.19
   94.16        2958.25           2261        2007.00      8750.21
   94.19        2958.50           2264        2025.00      8828.72
   94.22        2958.75           2268        2038.00      8885.42
   94.25        2959.00           2271        2054.00      8955.21
   94.28        2959.25           2275        2081.00      9072.98
   94.31        2959.50           2278        2106.00      9182.03
   94.34        2959.75           2282        2166.00      9443.75
   94.37        2960.00           2285        2185.00      9526.63
   94.40        2960.25           2289        2236.00      9749.09
   94.43        2960.50           2293        2241.00      9770.90
   94.46        2960.75           2296        2305.00     10050.08
   94.49        2961.00           2300        2583.00     11262.81
   94.52        2961.25           2303        3896.00     16991.94
   94.55        2961.50           2307       12639.00     55198.10
   94.58        2961.75           2310       25700.00    112459.30
   94.62        2962.00           2314       49176.00    215946.30
   94.65        2962.25           2317       67507.00    297264.40
   94.68        2962.50           2321       91581.00    404750.30
   94.71        2962.75           2324      111586.00    494674.60
   94.74        2963.00           2328      140439.00    625356.10
   94.77        2963.25           2331      162614.00    726595.40
   94.80        2963.50           2335      191409.00    859120.50
   94.83        2963.75           2339      216703.00    976541.10
   94.86        2964.00           2342      236557.00   1069381.00
   94.89        2964.25           2346      262952.00   1193739.00
   94.92        2964.50           2349      282699.00   1287483.00
   94.95        2964.75           2353      310190.00   1419016.00
   94.98        2965.00           2356      329118.00   1510284.00
   95.01        2965.25           2360      353399.00   1628223.00
   95.04        2965.50           2363      370210.00   1710452.00
   95.07        2965.75           2367      393149.00   1823426.00
   95.10        2966.00           2370      410652.00   1910235.00
   95.14        2966.25           2374      432862.00   2021158.00
   95.17        2966.50           2378      448868.00   2101637.00
   95.20        2966.75           2381      454094.00   2128013.00
   95.23        2967.00           2385      454910.00   2132136.00
   95.26        2967.25           2388      455286.00   2134036.00
   95.29        2967.50           2392      455548.00   2135361.00
   95.32        2967.75           2395      457922.00   2147365.00
   95.35        2968.00           2399      447308.00   2093773.00
   95.38        2968.25           2402      435230.00   2033035.00
   95.41        2968.50           2406      411433.00   1914121.00
   95.44        2968.75           2409      391537.00   1815458.00
   95.47        2969.00           2413      370057.00   1709702.00
   95.50        2969.25           2417      346178.00   1593047.00
   95.53        2969.50           2420      327581.00   1502851.00
   95.56        2969.75           2424      298665.00   1363726.00
   95.59        2970.00           2427      275497.00   1253222.00
   95.62        2970.25           2431      245558.00   1111668.00
   95.66        2970.50           2434      223601.00   1008729.00
   95.69        2970.75           2438      196728.00    883733.50
   95.72        2971.00           2441      175067.00    783760.10
   95.75        2971.25           2445      148152.00    660489.70
   95.78        2971.50           2449      121712.00    540404.00
   95.81        2971.75           2452      100666.00    445519.50
   95.84        2972.00           2456       73625.00    324505.30
   95.87        2972.25           2459       53836.00    236575.70
   95.90        2972.50           2463       29025.00    127072.20
   95.93        2972.75           2466       15114.00     66031.69
   95.96        2973.00           2470        5328.00     23242.86
   95.99        2973.25           2473        3165.00     13802.03
   96.02        2973.50           2477        2387.00     10407.78
   96.05        2973.75           2481        2303.00     10041.35
   96.08        2974.00           2484        2266.00      9879.95
   96.11        2974.25           2488        2231.00      9727.28
   96.14        2974.50           2491        2163.00      9430.66
   96.18        2974.75           2495        2154.00      9391.40
   96.21        2975.00           2498        2079.00      9064.26
   96.24        2975.25           2502        2042.00      8902.87
   96.27        2975.50           2505        2089.00      9107.88
   96.30        2975.75           2509        1998.00      8710.95
   96.33        2976.00           2512        2025.00      8828.72
   96.36        2976.25           2516        2006.00      8745.84
   96.39        2976.50           2520        1953.00      8514.67
   96.42        2976.75           2523        1957.00      8532.12
   96.45        2977.00           2527        1914.00      8344.56
   96.48        2977.25           2530        1923.00      8383.82
   96.51        2977.50           2534        1908.00      8318.39
   96.54        2977.75           2537        1855.00      8087.23
   96.57        2978.00           2541        1867.00      8139.57
   96.60        2978.25           2544        1857.00      8095.95
   96.63        2978.50           2548        1829.00      7973.83
   96.66        2978.75           2552        1808.00      7882.23
   96.70        2979.00           2555        1829.00      7973.83
   96.73        2979.25           2559        1838.00      8013.08
   96.76        2979.50           2562        1757.00      7659.80
   96.79        2979.75           2566        1720.00      7498.42
   96.82        2980.00           2569        1757.00      7659.80
   96.85        2980.25           2573        1680.00      7323.97
   96.88        2980.50           2577        1750.00      7629.27
   96.91        2980.75           2580        1753.00      7642.35
   96.94        2981.00           2584        1741.00      7590.01
   96.97        2981.25           2587        1708.00      7446.09
   97.00        2981.50           2591        1718.00      7489.70
   97.03        2981.75           2594        1693.00      7380.67
   97.06        2982.00           2598        1644.00      7166.96
   97.09        2982.25           2601        1644.00      7166.96
   97.12        2982.50           2605        1665.00      7258.55
   97.15        2982.75           2609        1679.00      7319.61
   97.18        2983.00           2612        1661.00      7241.10
   97.22        2983.25           2616        1682.00      7332.69
   97.25        2983.50           2619        1675.00      7302.16
   97.28        2983.75           2623        1655.00      7214.93
   97.31        2984.00           2626        1646.00      7175.68
HS scan finished at 01:37:32
end
************************************************************
  HS Scan of (1) Internal mercury lamp
************************************************************
Integration time is 0.2294 seconds per sample
dh120419Reading 51.44 .94 3.05pr1000
************************************************************
Dead Time -------------------------  3.4E-08 
Number of Cycles Used -------------  4 
Starting Wavelength (Angstroms) ---  2950 
Final Wavelength (Angstoms) -------  2984 
Wavelength Increment (Angstroms) --  .25 
Filter Wheel #1 Position ---------- (1) Ground quartz diffuser (ND=2.32)
Filter Wheel #2 Position ---------- (1) Neutral Density 0.494



************************************************************
HS scan start time = 19:37:24
Dark Count =  1 


Time (GMT)  Wavelength (Ang)  Step Number  Raw Counts  Counts/Second

 1178.30        2950.00           2144        1346.00      5864.29
 1178.49        2950.25           2147        1341.00      5842.49
 1178.52        2950.50           2151        1384.00      6030.01
 1178.56        2950.75           2155        1377.00      5999.48
 1178.59        2951.00           2158        1368.00      5960.23
 1178.62        2951.25           2162        1342.00      5846.85
 1178.65        2951.50           2165        1375.00      5990.76
 1178.68        2951.75           2169        1345.00      5859.93
 1178.71        2952.00           2172        1374.00      5986.40
 1178.74        2952.25           2176        1353.00      5894.82
 1178.77        2952.50           2179        1369.00      5964.59
 1178.80        2952.75           2183        1414.00      6160.84
 1178.83        2953.00           2186        1413.00      6156.48
 1178.86        2953.25           2190        1418.00      6178.28
 1178.89        2953.50           2193        1389.00      6051.81
 1178.92        2953.75           2197        1416.00      6169.56
 1178.95        2954.00           2200        1422.00      6195.73
 1178.98        2954.25           2204        1433.00      6243.70
 1179.01        2954.50           2208        1434.00      6248.06
 1179.04        2954.75           2211        1402.00      6108.50
 1179.08        2955.00           2215        1447.00      6304.75
 1179.11        2955.25           2218        1455.00      6339.64
 1179.14        2955.50           2222        1485.00      6470.47
 1179.17        2955.75           2225        1487.00      6479.20
 1179.20        2956.00           2229        1489.00      6487.92
 1179.23        2956.25           2232        1455.00      6339.64
 1179.26        2956.50           2236        1528.00      6658.00
 1179.29        2956.75           2239        1509.00      6575.14
 1179.32        2957.00           2243        1539.00      6705.98
 1179.35        2957.25           2246        1532.00      6675.45
 1179.38        2957.50           2250        1571.00      6845.53
 1179.41        2957.75           2254        1574.00      6858.62
 1179.44        2958.00           2257        1533.00      6679.81
 1179.47        2958.25           2261        1586.00      6910.95
 1179.50        2958.50           2264        1606.00      6998.18
 1179.53        2958.75           2268        1589.00      6924.04
 1179.56        2959.00           2271        1620.00      7059.24
 1179.59        2959.25           2275        1622.00      7067.96
 1179.63        2959.50           2278        1658.00      7224.97
 1179.66        2959.75           2282        1660.00      7233.69
 1179.69        2960.00           2285        1744.00      7600.05
 1179.72        2960.25           2289        1725.00      7517.18
 1179.75        2960.50           2293        1793.00      7813.76
 1179.78        2960.75           2296        1848.00      8053.64
 1179.81        2961.00           2300        1912.00      8332.79
 1179.84        2961.25           2303        2370.00     10330.57
 1179.87        2961.50           2307        6680.00     29143.95
 1179.90        2961.75           2310       15535.00     67872.22
 1179.93        2962.00           2314       33643.00    147388.90
 1179.96        2962.25           2317       48352.00    212298.50
 1179.99        2962.50           2321       67522.00    297328.00
 1180.02        2962.75           2324       83532.00    368721.80
 1180.05        2963.00           2328      104788.00    464051.50
 1180.08        2963.25           2331      122849.00    545544.50
 1180.11        2963.50           2335      147666.00    658270.30
 1180.15        2963.75           2339      170967.00    764911.20
 1180.18        2964.00           2342      186959.00    838557.40
 1180.21        2964.25           2346      208843.00    939947.80
 1180.24        2964.50           2349      224879.00   1014698.00
 1180.27        2964.75           2353      247390.00   1120287.00
 1180.30        2965.00           2356      265050.00   1203666.00
 1180.33        2965.25           2360      286869.00   1307354.00
 1180.36        2965.50           2363      302220.00   1380755.00
 1180.39        2965.75           2367      322780.00   1479655.00
 1180.42        2966.00           2370      337291.00   1549871.00
 1180.45        2966.25           2374      355116.00   1636597.00
 1180.48        2966.50           2378      370172.00   1710263.00
 1180.51        2966.75           2381      377098.00   1744278.00
 1180.54        2967.00           2385      379621.00   1756689.00
 1180.57        2967.25           2388      380019.00   1758648.00
 1180.60        2967.50           2392      379948.00   1758299.00
 1180.64        2967.75           2395      379909.00   1758107.00
 1180.67        2968.00           2399      376907.00   1743339.00
 1180.70        2968.25           2402      369687.00   1707883.00
 1180.73        2968.50           2406      352047.00   1621627.00
 1180.76        2968.75           2409      336680.00   1546907.00
 1180.79        2969.00           2413      316658.00   1450135.00
 1180.82        2969.25           2417      294759.00   1345033.00
 1180.85        2969.50           2420      277856.00   1264432.00
 1180.88        2969.75           2424      257252.00   1166789.00
 1180.91        2970.00           2427      238367.00   1077871.00
 1180.94        2970.25           2431      214015.00    964014.20
 1180.97        2970.50           2434      197018.00    885073.50
 1181.00        2970.75           2438      174079.00    779213.40
 1181.03        2971.00           2441      156279.00    697598.00
 1181.06        2971.25           2445      133183.00    592378.40
 1181.09        2971.50           2449      111144.00    492678.50
 1181.12        2971.75           2452       94088.00    415986.00
 1181.15        2972.00           2456       69699.00    307015.50
 1181.19        2972.25           2459       51772.00    227431.90
 1181.22        2972.50           2463       30278.00    132579.70
 1181.25        2972.75           2466       16659.00     72795.47
 1181.28        2973.00           2470        6001.00     26178.48
 1181.31        2973.25           2473        2953.00     12873.99
 1181.34        2973.50           2477        2011.00      8764.60
 1181.37        2973.75           2481        1885.00      8215.02
 1181.40        2974.00           2484        1813.00      7900.99
 1181.43        2974.25           2488        1780.00      7757.06
 1181.46        2974.50           2491        1794.00      7818.12
 1181.49        2974.75           2495        1729.00      7534.62
 1181.52        2975.00           2498        1714.00      7469.20
 1181.55        2975.25           2502        1671.00      7281.66
 1181.58        2975.50           2505        1619.00      7054.87
 1181.61        2975.75           2509        1617.00      7046.15
 1181.64        2976.00           2512        1623.00      7072.32
 1181.67        2976.25           2516        1587.00      6915.31
 1181.71        2976.50           2520        1558.00      6788.84
 1181.74        2976.75           2523        1545.00      6732.14
 1181.77        2977.00           2527        1506.00      6562.06
 1181.80        2977.25           2530        1499.00      6531.53
 1181.83        2977.50           2534        1522.00      6631.84
 1181.86        2977.75           2537        1493.00      6505.36
 1181.89        2978.00           2541        1452.00      6326.56
 1181.92        2978.25           2544        1436.00      6256.78
 1181.95        2978.50           2548        1462.00      6370.17
 1181.98        2978.75           2552        1474.00      6422.50
 1182.01        2979.00           2555        1431.00      6234.97
 1182.04        2979.25           2559        1393.00      6069.26
 1182.07        2979.50           2562        1394.00      6073.62
 1182.10        2979.75           2566        1382.00      6021.29
 1182.13        2980.00           2569        1400.00      6099.78
 1182.16        2980.25           2573        1362.00      5934.07
 1182.19        2980.50           2577        1374.00      5986.40
 1182.23        2980.75           2580        1356.00      5907.90
 1182.26        2981.00           2584        1382.00      6021.29
 1182.29        2981.25           2587        1362.00      5934.07
 1182.32        2981.50           2591        1342.00      5846.85
 1182.35        2981.75           2594        1334.00      5811.96
 1182.38        2982.00           2598        1371.00      5973.31
 1182.41        2982.25           2601        1307.00      5694.22
 1182.44        2982.50           2605        1279.00      5572.11
 1182.47        2982.75           2609        1299.00      5659.33
 1182.50        2983.00           2612        1309.00      5702.94
 1182.53        2983.25           2616        1301.00      5668.05
 1182.56        2983.50           2619        1315.00      5729.10
 1182.59        2983.75           2623        1312.00      5716.02
 1182.62        2984.00           2626        1305.00      5685.49
HS scan finished at 19:42:51
end
