************************************************************
  HS Scan of (1) Internal mercury lamp
************************************************************
Integration time is 0.2294 seconds per sample
dh200418Reading 51.44 .94 3.64pr1000
************************************************************
Dead Time -------------------------  3.4E-08 
Number of Cycles Used -------------  4 
Starting Wavelength (Angstroms) ---  2950 
Final Wavelength (Angstoms) -------  2984 
Wavelength Increment (Angstroms) --  .25 
Filter Wheel #1 Position ---------- (1) Ground quartz diffuser (ND=2.32)
Filter Wheel #2 Position ---------- (1) Neutral Density 0.494



************************************************************
HS scan start time = 01:06:52
Dark Count =  4 


Time (GMT)  Wavelength (Ang)  Step Number  Raw Counts  Counts/Second

   67.76        2950.00           2144          71.00       292.07
   67.95        2950.25           2147          62.00       252.84
   67.98        2950.50           2151          64.00       261.55
   68.01        2950.75           2155          63.00       257.19
   68.04        2951.00           2158          62.00       252.84
   68.08        2951.25           2162          71.00       292.07
   68.11        2951.50           2165          68.00       278.99
   68.14        2951.75           2169          67.00       274.63
   68.17        2952.00           2172          68.00       278.99
   68.20        2952.25           2176          62.00       252.84
   68.23        2952.50           2179          67.00       274.63
   68.26        2952.75           2183          63.00       257.19
   68.29        2953.00           2186          63.00       257.19
   68.32        2953.25           2190          63.00       257.19
   68.35        2953.50           2193          65.00       265.91
   68.38        2953.75           2197          62.00       252.84
   68.41        2954.00           2200          70.00       287.71
   68.44        2954.25           2204          66.00       270.27
   68.47        2954.50           2208          62.00       252.84
   68.50        2954.75           2211          68.00       278.99
   68.53        2955.00           2215          77.00       318.22
   68.56        2955.25           2218          68.00       278.99
   68.60        2955.50           2222          72.00       296.43
   68.63        2955.75           2225          71.00       292.07
   68.66        2956.00           2229          71.00       292.07
   68.69        2956.25           2232          69.00       283.35
   68.72        2956.50           2236          68.00       278.99
   68.75        2956.75           2239          78.00       322.58
   68.78        2957.00           2243          81.00       335.66
   68.81        2957.25           2246          74.00       305.15
   68.84        2957.50           2250          74.00       305.15
   68.87        2957.75           2254          80.00       331.30
   68.90        2958.00           2257          75.00       309.51
   68.93        2958.25           2261          84.00       348.74
   68.96        2958.50           2264          92.00       383.61
   68.99        2958.75           2268          87.00       361.82
   69.02        2959.00           2271         111.00       466.44
   69.05        2959.25           2275          88.00       366.18
   69.08        2959.50           2278          88.00       366.18
   69.12        2959.75           2282          95.00       396.69
   69.15        2960.00           2285          96.00       401.05
   69.18        2960.25           2289          87.00       361.82
   69.21        2960.50           2293         120.00       505.68
   69.24        2960.75           2296          99.00       414.13
   69.27        2961.00           2300         146.00       619.02
   69.30        2961.25           2303         349.00      1504.00
   69.33        2961.50           2307        1085.00      4713.05
   69.36        2961.75           2310        2006.00      8729.71
   69.39        2962.00           2314        3364.00     14654.21
   69.42        2962.25           2317        4470.00     19481.08
   69.45        2962.50           2321        6023.00     26261.45
   69.48        2962.75           2324        7274.00     31725.57
   69.51        2963.00           2328        8681.00     37873.50
   69.54        2963.25           2331        9690.00     42283.94
   69.57        2963.50           2335       11333.00     49468.49
   69.60        2963.75           2339       12959.00     56582.16
   69.64        2964.00           2342       14233.00     62158.25
   69.67        2964.25           2346       15647.00     68349.60
   69.70        2964.50           2349       16731.00     73097.75
   69.73        2964.75           2353       18243.00     79723.22
   69.76        2965.00           2356       19295.00     84334.77
   69.79        2965.25           2360       20823.00     91035.49
   69.82        2965.50           2363       21750.00     95102.12
   69.85        2965.75           2367       23243.00    101654.10
   69.88        2966.00           2370       24300.00    106294.50
   69.91        2966.25           2374       25250.00    110466.40
   69.94        2966.50           2378       25760.00    112706.60
   69.97        2966.75           2381       25719.00    112526.50
   70.00        2967.00           2385       25975.00    113651.10
   70.03        2967.25           2388       25747.00    112649.50
   70.06        2967.50           2392       25482.00    111485.40
   70.09        2967.75           2395       25385.00    111059.40
   70.12        2968.00           2399       24221.00    105947.70
   70.16        2968.25           2402       23370.00    102211.60
   70.19        2968.50           2406       22140.00     96813.37
   70.22        2968.75           2409       21189.00     92640.96
   70.25        2969.00           2413       19630.00     85803.57
   70.28        2969.25           2417       18060.00     78921.18
   70.31        2969.50           2420       16976.00     74171.12
   70.34        2969.75           2424       15881.00     69374.43
   70.37        2970.00           2427       14895.00     65056.56
   70.40        2970.25           2431       13394.00     58485.84
   70.43        2970.50           2434       12154.00     53059.90
   70.46        2970.75           2438       10730.00     46831.27
   70.49        2971.00           2441        9475.00     41344.04
   70.52        2971.25           2445        7830.00     34154.72
   70.55        2971.50           2449        6395.00     27886.06
   70.58        2971.75           2452        5215.00     22733.35
   70.61        2972.00           2456        3792.00     16521.92
   70.64        2972.25           2459        2840.00     12367.89
   70.68        2972.50           2463        1490.00      6479.20
   70.71        2972.75           2466         698.00      3025.59
   70.74        2973.00           2470         199.00       850.07
   70.77        2973.25           2473         122.00       514.39
   70.80        2973.50           2477         103.00       431.57
   70.83        2973.75           2481         100.00       418.49
   70.86        2974.00           2484         108.00       453.36
   70.89        2974.25           2488          92.00       383.61
   70.92        2974.50           2491          86.00       357.46
   70.95        2974.75           2495          92.00       383.61
   70.98        2975.00           2498          85.00       353.10
   71.01        2975.25           2502          98.00       409.77
   71.04        2975.50           2505          87.00       361.82
   71.07        2975.75           2509          85.00       353.10
   71.10        2976.00           2512          86.00       357.46
   71.13        2976.25           2516          84.00       348.74
   71.16        2976.50           2520          82.00       340.02
   71.19        2976.75           2523          83.00       344.38
   71.23        2977.00           2527          85.00       353.10
   71.26        2977.25           2530          84.00       348.74
   71.29        2977.50           2534          85.00       353.10
   71.32        2977.75           2537          76.00       313.87
   71.35        2978.00           2541          76.00       313.87
   71.38        2978.25           2544          69.00       283.35
   71.41        2978.50           2548          82.00       340.02
   71.44        2978.75           2552          79.00       326.94
   71.47        2979.00           2555          68.00       278.99
   71.50        2979.25           2559          67.00       274.63
   71.53        2979.50           2562          69.00       283.35
   71.57        2979.75           2566          78.00       322.58
   71.60        2980.00           2569          72.00       296.43
   71.63        2980.25           2573          75.00       309.51
   71.66        2980.50           2577          69.00       283.35
   71.69        2980.75           2580          74.00       305.15
   71.72        2981.00           2584          66.00       270.27
   71.75        2981.25           2587          68.00       278.99
   71.78        2981.50           2591          66.00       270.27
   71.81        2981.75           2594          63.00       257.19
   71.84        2982.00           2598          68.00       278.99
   71.87        2982.25           2601          65.00       265.91
   71.91        2982.50           2605          61.00       248.48
   71.94        2982.75           2609          68.00       278.99
   71.97        2983.00           2612          60.00       244.12
   72.00        2983.25           2616          63.00       257.19
   72.03        2983.50           2619          74.00       305.15
   72.06        2983.75           2623          71.00       292.07
   72.09        2984.00           2626          64.00       261.55
HS scan finished at 01:12:19
end
************************************************************
  HS Scan of (1) Internal mercury lamp
************************************************************
Integration time is 0.2294 seconds per sample
dh200418Reading 51.44 .94 3.86pr1000
************************************************************
Dead Time -------------------------  3.4E-08 
Number of Cycles Used -------------  4 
Starting Wavelength (Angstroms) ---  2950 
Final Wavelength (Angstoms) -------  2984 
Wavelength Increment (Angstroms) --  .25 
Filter Wheel #1 Position ---------- (1) Ground quartz diffuser (ND=2.32)
Filter Wheel #2 Position ---------- (1) Neutral Density 0.494



************************************************************
HS scan start time = 20:07:29
Dark Count =  7.6 


Time (GMT)  Wavelength (Ang)  Step Number  Raw Counts  Counts/Second

 1208.38        2950.00           2144          55.00       206.63
 1208.58        2950.25           2147          58.00       219.71
 1208.61        2950.50           2151          59.00       224.06
 1208.64        2950.75           2155          60.00       228.42
 1208.67        2951.00           2158          58.00       219.71
 1208.70        2951.25           2162          60.00       228.42
 1208.73        2951.50           2165          59.00       224.06
 1208.76        2951.75           2169          60.00       228.42
 1208.79        2952.00           2172          60.00       228.42
 1208.82        2952.25           2176          65.00       250.22
 1208.85        2952.50           2179          61.00       232.78
 1208.88        2952.75           2183          55.00       206.63
 1208.91        2953.00           2186          60.00       228.42
 1208.94        2953.25           2190          60.00       228.42
 1208.98        2953.50           2193          69.00       267.66
 1209.01        2953.75           2197          65.00       250.22
 1209.04        2954.00           2200          68.00       263.30
 1209.07        2954.25           2204          65.00       250.22
 1209.10        2954.50           2208          62.00       237.14
 1209.13        2954.75           2211          58.00       219.71
 1209.16        2955.00           2215          69.00       267.66
 1209.19        2955.25           2218          66.00       254.58
 1209.22        2955.50           2222          72.00       280.74
 1209.25        2955.75           2225          74.00       289.45
 1209.28        2956.00           2229          67.00       258.94
 1209.31        2956.25           2232          67.00       258.94
 1209.34        2956.50           2236          65.00       250.22
 1209.37        2956.75           2239          67.00       258.94
 1209.40        2957.00           2243          67.00       258.94
 1209.43        2957.25           2246          66.00       254.58
 1209.46        2957.50           2250          72.00       280.74
 1209.50        2957.75           2254          75.00       293.81
 1209.53        2958.00           2257          78.00       306.89
 1209.56        2958.25           2261          70.00       272.02
 1209.59        2958.50           2264          81.00       319.97
 1209.62        2958.75           2268          67.00       258.94
 1209.65        2959.00           2271          72.00       280.74
 1209.68        2959.25           2275          79.00       311.25
 1209.71        2959.50           2278          74.00       289.45
 1209.74        2959.75           2282          83.00       328.69
 1209.77        2960.00           2285          85.00       337.41
 1209.80        2960.25           2289          76.00       298.17
 1209.83        2960.50           2293          85.00       337.41
 1209.86        2960.75           2296          79.00       311.25
 1209.89        2961.00           2300         158.00       655.64
 1209.92        2961.25           2303         308.00      1309.56
 1209.95        2961.50           2307        1027.00      4444.44
 1209.99        2961.75           2310        1709.00      7418.61
 1210.02        2962.00           2314        2761.00     12007.52
 1210.05        2962.25           2317        3734.00     16253.10
 1210.08        2962.50           2321        4888.00     21290.03
 1210.11        2962.75           2324        5766.00     25123.46
 1210.14        2963.00           2328        7022.00     30609.00
 1210.17        2963.25           2331        7727.00     33688.96
 1210.20        2963.50           2335        9013.00     39308.83
 1210.23        2963.75           2339       10306.00     44961.44
 1210.26        2964.00           2342       11330.00     49439.63
 1210.29        2964.25           2346       12389.00     54072.30
 1210.32        2964.50           2349       13255.00     57861.76
 1210.35        2964.75           2353       14534.00     63460.24
 1210.38        2965.00           2356       15283.00     66739.77
 1210.41        2965.25           2360       16295.00     71172.02
 1210.44        2965.50           2363       17370.00     75881.66
 1210.47        2965.75           2367       19055.00     83266.79
 1210.51        2966.00           2370       19954.00     87208.52
 1210.54        2966.25           2374       20794.00     90892.50
 1210.57        2966.50           2378       21514.00     94050.92
 1210.60        2966.75           2381       21288.00     93059.46
 1210.63        2967.00           2385       21430.00     93682.41
 1210.66        2967.25           2388       21357.00     93362.15
 1210.69        2967.50           2392       21201.00     92677.81
 1210.72        2967.75           2395       21118.00     92313.69
 1210.75        2968.00           2399       20550.00     89822.29
 1210.78        2968.25           2402       19299.00     84336.51
 1210.81        2968.50           2406       18656.00     81517.69
 1210.84        2968.75           2409       17786.00     77704.60
 1210.87        2969.00           2413       16369.00     71496.18
 1210.90        2969.25           2417       15181.00     66293.11
 1210.93        2969.50           2420       14292.00     62400.78
 1210.96        2969.75           2424       13046.00     56947.13
 1210.99        2970.00           2427       12195.00     53223.52
 1211.03        2970.25           2431       10941.00     47738.28
 1211.06        2970.50           2434       10003.00     43636.63
 1211.09        2970.75           2438        8798.00     38369.12
 1211.12        2971.00           2441        7821.00     34099.67
 1211.15        2971.25           2445        6470.00     28197.90
 1211.18        2971.50           2449        5239.00     22822.41
 1211.21        2971.75           2452        4252.00     18513.83
 1211.24        2972.00           2456        3015.00     13115.70
 1211.27        2972.25           2459        2205.00      9582.02
 1211.30        2972.50           2463        1117.00      4836.89
 1211.33        2972.75           2466         537.00      2307.94
 1211.36        2973.00           2470         156.00       646.92
 1211.39        2973.25           2473          95.00       381.00
 1211.42        2973.50           2477          93.00       372.28
 1211.45        2973.75           2481          86.00       341.77
 1211.48        2974.00           2484          92.00       367.92
 1211.51        2974.25           2488          85.00       337.41
 1211.54        2974.50           2491          79.00       311.25
 1211.58        2974.75           2495          80.00       315.61
 1211.61        2975.00           2498          78.00       306.89
 1211.64        2975.25           2502          81.00       319.97
 1211.67        2975.50           2505          84.00       333.05
 1211.70        2975.75           2509          78.00       306.89
 1211.73        2976.00           2512          84.00       333.05
 1211.76        2976.25           2516          78.00       306.89
 1211.79        2976.50           2520          78.00       306.89
 1211.82        2976.75           2523          71.00       276.38
 1211.85        2977.00           2527          64.00       245.86
 1211.88        2977.25           2530          65.00       250.22
 1211.91        2977.50           2534          69.00       267.66
 1211.94        2977.75           2537          67.00       258.94
 1211.97        2978.00           2541          67.00       258.94
 1212.00        2978.25           2544          63.00       241.50
 1212.03        2978.50           2548          74.00       289.45
 1212.06        2978.75           2552          70.00       272.02
 1212.10        2979.00           2555          64.00       245.86
 1212.13        2979.25           2559          70.00       272.02
 1212.16        2979.50           2562          69.00       267.66
 1212.19        2979.75           2566          61.00       232.78
 1212.22        2980.00           2569          67.00       258.94
 1212.25        2980.25           2573          68.00       263.30
 1212.28        2980.50           2577          65.00       250.22
 1212.31        2980.75           2580          63.00       241.50
 1212.34        2981.00           2584          60.00       228.42
 1212.37        2981.25           2587          65.00       250.22
 1212.40        2981.50           2591          61.00       232.78
 1212.43        2981.75           2594          65.00       250.22
 1212.46        2982.00           2598          57.00       215.35
 1212.49        2982.25           2601          58.00       219.71
 1212.52        2982.50           2605          64.00       245.86
 1212.55        2982.75           2609          56.00       210.99
 1212.59        2983.00           2612          57.00       215.35
 1212.62        2983.25           2616          53.00       197.91
 1212.65        2983.50           2619          61.00       232.78
 1212.68        2983.75           2623          61.00       232.78
 1212.71        2984.00           2626          63.00       241.50
HS scan finished at 20:12:56
end
