************************************************************
  HS Scan of (1) Internal mercury lamp
************************************************************
Integration time is 0.2294 seconds per sample
dh240418Reading 51.44 .94 3.23pr1000
************************************************************
Dead Time -------------------------  3.4E-08 
Number of Cycles Used -------------  4 
Starting Wavelength (Angstroms) ---  2950 
Final Wavelength (Angstoms) -------  2984 
Wavelength Increment (Angstroms) --  .25 
Filter Wheel #1 Position ---------- (1) Ground quartz diffuser (ND=2.32)
Filter Wheel #2 Position ---------- (1) Neutral Density 0.494



************************************************************
HS scan start time = 01:14:08
Dark Count =  1.4 


Time (GMT)  Wavelength (Ang)  Step Number  Raw Counts  Counts/Second

   75.04        2950.00           2144          83.00       355.71
   75.23        2950.25           2147          89.00       381.87
   75.26        2950.50           2151          79.00       338.28
   75.29        2950.75           2155         107.00       460.34
   75.32        2951.00           2158         109.00       469.06
   75.35        2951.25           2162          83.00       355.71
   75.38        2951.50           2165          94.00       403.67
   75.41        2951.75           2169          84.00       360.07
   75.44        2952.00           2172          85.00       364.43
   75.47        2952.25           2176          91.00       390.59
   75.51        2952.50           2179          84.00       360.07
   75.54        2952.75           2183          91.00       390.59
   75.57        2953.00           2186          80.00       342.64
   75.60        2953.25           2190          82.00       351.36
   75.63        2953.50           2193          95.00       408.03
   75.66        2953.75           2197          88.00       377.51
   75.69        2954.00           2200          91.00       390.59
   75.72        2954.25           2204          80.00       342.64
   75.75        2954.50           2208          91.00       390.59
   75.78        2954.75           2211          87.00       373.15
   75.81        2955.00           2215          91.00       390.59
   75.84        2955.25           2218          93.00       399.31
   75.87        2955.50           2222         116.00       499.57
   75.90        2955.75           2225          88.00       377.51
   75.93        2956.00           2229          94.00       403.67
   75.96        2956.25           2232          91.00       390.59
   75.99        2956.50           2236         117.00       503.93
   76.03        2956.75           2239          97.00       416.75
   76.06        2957.00           2243         114.00       490.85
   76.09        2957.25           2246         102.00       438.54
   76.12        2957.50           2250          91.00       390.59
   76.15        2957.75           2254          92.00       394.95
   76.18        2958.00           2257         102.00       438.54
   76.21        2958.25           2261         105.00       451.62
   76.24        2958.50           2264         125.00       538.81
   76.27        2958.75           2268         122.00       525.73
   76.30        2959.00           2271         101.00       434.18
   76.33        2959.25           2275         106.00       455.98
   76.36        2959.50           2278         102.00       438.54
   76.39        2959.75           2282         142.00       612.92
   76.42        2960.00           2285         144.00       621.63
   76.45        2960.25           2289         130.00       560.60
   76.48        2960.50           2293         123.00       530.09
   76.51        2960.75           2296         165.00       713.18
   76.55        2961.00           2300         162.00       700.10
   76.58        2961.25           2303         372.00      1615.61
   76.61        2961.50           2307        1282.00      5583.45
   76.64        2961.75           2310        2444.00     10651.64
   76.67        2962.00           2314        4035.00     17593.78
   76.70        2962.25           2317        5279.00     23024.12
   76.73        2962.50           2321        6737.00     29391.17
   76.76        2962.75           2324        7952.00     34699.15
   76.79        2963.00           2328        9575.00     41792.56
   76.82        2963.25           2331       10904.00     47603.58
   76.85        2963.50           2335       12651.00     55245.79
   76.88        2963.75           2339       14401.00     62905.11
   76.91        2964.00           2342       15876.00     69363.93
   76.94        2964.25           2346       17740.00     77530.18
   76.97        2964.50           2349       19201.00     83934.04
   77.00        2964.75           2353       20909.00     91424.11
   77.03        2965.00           2356       22008.00     96245.56
   77.07        2965.25           2360       23848.00    104321.40
   77.10        2965.50           2363       25091.00    109779.50
   77.13        2965.75           2367       26880.00    117638.70
   77.16        2966.00           2370       28275.00    123770.00
   77.19        2966.25           2374       29917.00    130990.10
   77.22        2966.50           2378       30403.00    133127.80
   77.25        2966.75           2381       30561.00    133822.90
   77.28        2967.00           2385       30709.00    134473.90
   77.31        2967.25           2388       30399.00    133110.20
   77.34        2967.50           2392       30084.00    131724.60
   77.37        2967.75           2395       29834.00    130625.10
   77.40        2968.00           2399       28394.00    124293.10
   77.43        2968.25           2402       27382.00    119844.80
   77.46        2968.50           2406       26238.00    114817.90
   77.49        2968.75           2409       24794.00    108475.20
   77.52        2969.00           2413       23306.00    101942.10
   77.55        2969.25           2417       21359.00     93398.13
   77.58        2969.50           2420       20131.00     88011.89
   77.62        2969.75           2424       18128.00     79230.59
   77.65        2970.00           2427       16675.00     72863.81
   77.68        2970.25           2431       14840.00     64827.13
   77.71        2970.50           2434       13620.00     59486.36
   77.74        2970.75           2438       11856.00     51767.59
   77.77        2971.00           2441       10410.00     45443.31
   77.80        2971.25           2445        8592.00     37495.90
   77.83        2971.50           2449        6828.00     29788.66
   77.86        2971.75           2452        5565.00     24272.86
   77.89        2972.00           2456        4000.00     17441.03
   77.92        2972.25           2459        2784.00     12134.91
   77.95        2972.50           2463        1432.00      6237.59
   77.98        2972.75           2466         581.00      2526.81
   78.01        2973.00           2470         198.00       857.04
   78.04        2973.25           2473         160.00       691.39
   78.07        2973.50           2477         145.00       625.99
   78.10        2973.75           2481         150.00       647.79
   78.14        2974.00           2484         143.00       617.28
   78.17        2974.25           2488         119.00       512.65
   78.20        2974.50           2491         137.00       591.12
   78.23        2974.75           2495         124.00       534.45
   78.26        2975.00           2498         109.00       469.06
   78.29        2975.25           2502         119.00       512.65
   78.32        2975.50           2505         106.00       455.98
   78.35        2975.75           2509         106.00       455.98
   78.38        2976.00           2512         108.00       464.70
   78.41        2976.25           2516         144.00       621.63
   78.44        2976.50           2520          96.00       412.39
   78.47        2976.75           2523         100.00       429.82
   78.50        2977.00           2527         102.00       438.54
   78.53        2977.25           2530          99.00       425.46
   78.56        2977.50           2534          90.00       386.23
   78.59        2977.75           2537          95.00       408.03
   78.62        2978.00           2541          96.00       412.39
   78.66        2978.25           2544          92.00       394.95
   78.69        2978.50           2548          92.00       394.95
   78.72        2978.75           2552          98.00       421.10
   78.75        2979.00           2555         101.00       434.18
   78.78        2979.25           2559         108.00       464.70
   78.81        2979.50           2562          98.00       421.10
   78.84        2979.75           2566          88.00       377.51
   78.87        2980.00           2569          89.00       381.87
   78.90        2980.25           2573          87.00       373.15
   78.93        2980.50           2577          79.00       338.28
   78.96        2980.75           2580          86.00       368.79
   78.99        2981.00           2584          89.00       381.87
   79.02        2981.25           2587          84.00       360.07
   79.05        2981.50           2591          87.00       373.15
   79.08        2981.75           2594          83.00       355.71
   79.11        2982.00           2598          78.00       333.92
   79.14        2982.25           2601          82.00       351.36
   79.18        2982.50           2605          92.00       394.95
   79.21        2982.75           2609          80.00       342.64
   79.24        2983.00           2612         104.00       447.26
   79.27        2983.25           2616          78.00       333.92
   79.30        2983.50           2619          82.00       351.36
   79.33        2983.75           2623          81.00       347.00
   79.36        2984.00           2626          82.00       351.36
HS scan finished at 01:19:35
end
************************************************************
  HS Scan of (1) Internal mercury lamp
************************************************************
Integration time is 0.2294 seconds per sample
dh240418Reading 51.44 .94 3.25pr1000
************************************************************
Dead Time -------------------------  3.4E-08 
Number of Cycles Used -------------  4 
Starting Wavelength (Angstroms) ---  2950 
Final Wavelength (Angstoms) -------  2984 
Wavelength Increment (Angstroms) --  .25 
Filter Wheel #1 Position ---------- (1) Ground quartz diffuser (ND=2.32)
Filter Wheel #2 Position ---------- (1) Neutral Density 0.494



************************************************************
HS scan start time = 20:09:56
Dark Count =  1.6 


Time (GMT)  Wavelength (Ang)  Step Number  Raw Counts  Counts/Second

 1210.84        2950.00           2144          77.00       328.69
 1211.03        2950.25           2147          74.00       315.61
 1211.06        2950.50           2151          76.00       324.33
 1211.09        2950.75           2155          77.00       328.69
 1211.12        2951.00           2158          77.00       328.69
 1211.15        2951.25           2162          76.00       324.33
 1211.19        2951.50           2165          80.00       341.77
 1211.22        2951.75           2169          90.00       385.36
 1211.25        2952.00           2172          78.00       333.05
 1211.28        2952.25           2176          88.00       376.64
 1211.31        2952.50           2179          84.00       359.20
 1211.34        2952.75           2183          76.00       324.33
 1211.37        2953.00           2186          87.00       372.28
 1211.40        2953.25           2190          83.00       354.84
 1211.43        2953.50           2193          83.00       354.84
 1211.46        2953.75           2197          82.00       350.48
 1211.49        2954.00           2200          75.00       319.97
 1211.52        2954.25           2204          79.00       337.41
 1211.55        2954.50           2208          84.00       359.20
 1211.58        2954.75           2211          75.00       319.97
 1211.61        2955.00           2215          85.00       363.56
 1211.64        2955.25           2218          83.00       354.84
 1211.67        2955.50           2222          91.00       389.72
 1211.70        2955.75           2225          95.00       407.15
 1211.74        2956.00           2229          88.00       376.64
 1211.77        2956.25           2232          90.00       385.36
 1211.80        2956.50           2236          92.00       394.08
 1211.83        2956.75           2239          91.00       389.72
 1211.86        2957.00           2243          87.00       372.28
 1211.89        2957.25           2246          93.00       398.44
 1211.92        2957.50           2250          97.00       415.87
 1211.95        2957.75           2254          85.00       363.56
 1211.98        2958.00           2257         100.00       428.95
 1212.01        2958.25           2261          97.00       415.87
 1212.04        2958.50           2264         101.00       433.31
 1212.07        2958.75           2268          91.00       389.72
 1212.10        2959.00           2271         120.00       516.14
 1212.13        2959.25           2275         113.00       485.62
 1212.16        2959.50           2278         102.00       437.67
 1212.19        2959.75           2282         106.00       455.11
 1212.23        2960.00           2285         119.00       511.78
 1212.26        2960.25           2289         125.00       537.93
 1212.29        2960.50           2293         147.00       633.84
 1212.32        2960.75           2296         108.00       463.83
 1212.35        2961.00           2300         166.00       716.67
 1212.38        2961.25           2303         315.00      1366.24
 1212.41        2961.50           2307        1045.00      4549.09
 1212.44        2961.75           2310        1908.00      8312.72
 1212.47        2962.00           2314        3322.00     14481.41
 1212.50        2962.25           2317        4561.00     19888.77
 1212.53        2962.50           2321        6270.00     27350.62
 1212.56        2962.75           2324        7517.00     32797.67
 1212.59        2963.00           2328        9105.00     39737.17
 1212.62        2963.25           2331       10156.00     44331.82
 1212.65        2963.50           2335       11894.00     51932.95
 1212.68        2963.75           2339       13432.00     58662.66
 1212.71        2964.00           2342       15005.00     65548.71
 1212.75        2964.25           2346       16566.00     72385.43
 1212.78        2964.50           2349       17744.00     77546.83
 1212.81        2964.75           2353       19438.00     84972.25
 1212.84        2965.00           2356       20544.00     89822.29
 1212.87        2965.25           2360       22017.00     96284.18
 1212.90        2965.50           2363       23031.00    100734.10
 1212.93        2965.75           2367       24402.00    106753.00
 1212.96        2966.00           2370       25740.00    112629.30
 1212.99        2966.25           2374       27024.00    118270.60
 1213.02        2966.50           2378       27764.00    121522.90
 1213.05        2966.75           2381       27809.00    121720.70
 1213.08        2967.00           2385       27854.00    121918.50
 1213.11        2967.25           2388       28125.00    123109.70
 1213.14        2967.50           2392       27748.00    121452.50
 1213.17        2967.75           2395       27571.00    120674.60
 1213.20        2968.00           2399       26886.00    117664.20
 1213.23        2968.25           2402       25892.00    113297.00
 1213.26        2968.50           2406       24500.00    107183.30
 1213.30        2968.75           2409       23377.00    102252.90
 1213.33        2969.00           2413       21779.00     95239.91
 1213.36        2969.25           2417       19904.00     87015.57
 1213.39        2969.50           2420       18889.00     82565.38
 1213.42        2969.75           2424       17328.00     75723.91
 1213.45        2970.00           2427       16127.00     70462.43
 1213.48        2970.25           2431       14491.00     63298.25
 1213.51        2970.50           2434       13161.00     57476.65
 1213.54        2970.75           2438       11591.00     50607.49
 1213.57        2971.00           2441       10328.00     45083.88
 1213.60        2971.25           2445        8600.00     37529.99
 1213.64        2971.50           2449        6916.00     30172.18
 1213.67        2971.75           2452        5748.00     25071.06
 1213.70        2972.00           2456        4204.00     18330.52
 1213.73        2972.25           2459        3101.00     13517.11
 1213.76        2972.50           2463        1695.00      7383.72
 1213.79        2972.75           2466         797.00      3467.71
 1213.82        2973.00           2470         225.00       973.88
 1213.85        2973.25           2473         154.00       664.36
 1213.88        2973.50           2477         151.00       651.28
 1213.91        2973.75           2481         132.00       568.45
 1213.94        2974.00           2484         111.00       476.90
 1213.97        2974.25           2488         126.00       542.29
 1214.01        2974.50           2491         128.00       551.01
 1214.04        2974.75           2495         103.00       442.03
 1214.07        2975.00           2498         109.00       468.19
 1214.10        2975.25           2502         119.00       511.78
 1214.13        2975.50           2505         109.00       468.19
 1214.16        2975.75           2509          98.00       420.23
 1214.19        2976.00           2512         109.00       468.19
 1214.22        2976.25           2516         100.00       428.95
 1214.25        2976.50           2520          93.00       398.44
 1214.28        2976.75           2523          90.00       385.36
 1214.31        2977.00           2527          96.00       411.51
 1214.34        2977.25           2530          92.00       394.08
 1214.37        2977.50           2534          94.00       402.80
 1214.40        2977.75           2537          99.00       424.59
 1214.43        2978.00           2541          87.00       372.28
 1214.46        2978.25           2544          80.00       341.77
 1214.50        2978.50           2548          83.00       354.84
 1214.53        2978.75           2552          91.00       389.72
 1214.56        2979.00           2555          90.00       385.36
 1214.59        2979.25           2559          85.00       363.56
 1214.62        2979.50           2562          87.00       372.28
 1214.65        2979.75           2566         110.00       472.54
 1214.68        2980.00           2569          87.00       372.28
 1214.71        2980.25           2573          81.00       346.12
 1214.74        2980.50           2577          75.00       319.97
 1214.77        2980.75           2580          92.00       394.08
 1214.80        2981.00           2584          79.00       337.41
 1214.83        2981.25           2587          88.00       376.64
 1214.86        2981.50           2591          83.00       354.84
 1214.89        2981.75           2594          80.00       341.77
 1214.92        2982.00           2598          82.00       350.48
 1214.95        2982.25           2601          72.00       306.89
 1214.98        2982.50           2605          81.00       346.12
 1215.02        2982.75           2609          82.00       350.48
 1215.05        2983.00           2612          72.00       306.89
 1215.08        2983.25           2616          75.00       319.97
 1215.11        2983.50           2619          78.00       333.05
 1215.14        2983.75           2623          80.00       341.77
 1215.17        2984.00           2626          79.00       337.41
HS scan finished at 20:15:23
end
