************************************************************
  HS Scan of 
************************************************************
Integration time is 0.2294 seconds per sample
dh270417Reading 51.44 .94 2.64pr1000
************************************************************
Dead Time -------------------------  3.4E-08 
Number of Cycles Used -------------  4 
Starting Wavelength (Angstroms) ---  2950 
Final Wavelength (Angstoms) -------  2984 
Wavelength Increment (Angstroms) --  .25 
Filter Wheel #1 Position ---------- (1) Ground quartz diffuser (ND=2.32)
Filter Wheel #2 Position ---------- (1) Neutral Density 0.494



************************************************************
HS scan start time = 01:08:35
Dark Count =  .6 


Time (GMT)  Wavelength (Ang)  Step Number  Raw Counts  Counts/Second

   69.48        2950.00           2144         696.00      3031.70
   69.67        2950.25           2147         689.00      3001.18
   69.70        2950.50           2151         699.00      3044.78
   69.73        2950.75           2155         698.00      3040.42
   69.76        2951.00           2158         688.00      2996.82
   69.79        2951.25           2162         698.00      3040.42
   69.82        2951.50           2165         693.00      3018.62
   69.85        2951.75           2169         694.00      3022.98
   69.88        2952.00           2172         700.00      3049.14
   69.91        2952.25           2176         737.00      3210.46
   69.94        2952.50           2179         767.00      3341.27
   69.98        2952.75           2183         734.00      3197.38
   70.01        2953.00           2186         728.00      3171.22
   70.04        2953.25           2190         738.00      3214.82
   70.07        2953.50           2193         725.00      3158.14
   70.10        2953.75           2197         722.00      3145.06
   70.13        2954.00           2200         753.00      3280.23
   70.16        2954.25           2204         751.00      3271.51
   70.19        2954.50           2208         759.00      3306.39
   70.22        2954.75           2211         734.00      3197.38
   70.25        2955.00           2215         771.00      3358.71
   70.28        2955.25           2218         745.00      3245.35
   70.31        2955.50           2222         741.00      3227.90
   70.34        2955.75           2225         754.00      3284.59
   70.37        2956.00           2229         781.00      3402.31
   70.40        2956.25           2232         774.00      3371.79
   70.43        2956.50           2236         784.00      3415.39
   70.46        2956.75           2239         790.00      3441.55
   70.49        2957.00           2243         807.00      3515.68
   70.53        2957.25           2246         803.00      3498.24
   70.56        2957.50           2250         836.00      3642.13
   70.59        2957.75           2254         815.00      3550.56
   70.62        2958.00           2257         837.00      3646.49
   70.65        2958.25           2261         846.00      3685.73
   70.68        2958.50           2264         840.00      3659.57
   70.71        2958.75           2268         876.00      3816.54
   70.74        2959.00           2271         884.00      3851.42
   70.77        2959.25           2275         890.00      3877.58
   70.80        2959.50           2278         889.00      3873.22
   70.83        2959.75           2282         874.00      3807.82
   70.86        2960.00           2285         940.00      4095.60
   70.89        2960.25           2289         915.00      3986.59
   70.92        2960.50           2293         960.00      4182.81
   70.95        2960.75           2296         980.00      4270.02
   70.98        2961.00           2300        1043.00      4544.73
   71.02        2961.25           2303        1388.00      6049.20
   71.05        2961.50           2307        4571.00     19936.79
   71.08        2961.75           2310       10493.00     45809.75
   71.11        2962.00           2314       21152.00     92493.56
   71.14        2962.25           2317       29177.00    127739.30
   71.17        2962.50           2321       39598.00    173635.00
   71.20        2962.75           2324       48244.00    211822.60
   71.23        2963.00           2328       61322.00    269775.30
   71.26        2963.25           2331       71398.00    314582.20
   71.29        2963.50           2335       84282.00    372076.70
   71.32        2963.75           2339       95934.00    424268.90
   71.35        2964.00           2342      104344.00    462055.70
   71.38        2964.25           2346      116400.00    516395.50
   71.41        2964.50           2349      125893.00    559326.10
   71.44        2964.75           2353      137256.00    610880.60
   71.47        2965.00           2356      146790.00    654278.10
   71.50        2965.25           2360      158274.00    706724.40
   71.54        2965.50           2363      165873.00    741532.60
   71.57        2965.75           2367      177157.00    793374.90
   71.60        2966.00           2370      185436.00    831529.40
   71.63        2966.25           2374      197119.00    885543.20
   71.66        2966.50           2378      205069.00    922413.70
   71.69        2966.75           2381      207310.00    932823.90
   71.72        2967.00           2385      207541.00    933897.40
   71.76        2967.25           2388      207753.00    934882.70
   71.79        2967.50           2392      207995.00    936007.50
   71.82        2967.75           2395      208015.00    936100.50
   71.85        2968.00           2399      205495.00    924392.00
   71.88        2968.25           2402      199391.00    896070.60
   71.91        2968.50           2406      188995.00    847962.40
   71.94        2968.75           2409      180447.00    808525.10
   71.97        2969.00           2413      169516.00    758249.50
   72.00        2969.25           2417      158507.00    707790.40
   72.03        2969.50           2420      149981.00    668832.10
   72.06        2969.75           2424      136416.00    607063.20
   72.09        2970.00           2427      126150.00    560490.10
   72.12        2970.25           2431      112716.00    499769.20
   72.15        2970.50           2434      103472.00    458133.20
   72.18        2970.75           2438       91156.00    402844.50
   72.21        2971.00           2441       81098.00    357847.10
   72.25        2971.25           2445       68834.00    303167.30
   72.28        2971.50           2449       56717.00    249342.90
   72.31        2971.75           2452       46908.00    205915.30
   72.34        2972.00           2456       34530.00    151296.80
   72.37        2972.25           2459       26031.00    113912.00
   72.40        2972.50           2463       15041.00     65710.73
   72.43        2972.75           2466        7961.00     34741.98
   72.46        2973.00           2470        2649.00     11549.43
   72.49        2973.25           2473        1443.00      6289.05
   72.52        2973.50           2477        1050.00      4575.25
   72.55        2973.75           2481        1001.00      4361.59
   72.58        2974.00           2484         967.00      4213.33
   72.61        2974.25           2488         948.00      4130.48
   72.64        2974.50           2491         927.00      4038.92
   72.67        2974.75           2495         949.00      4134.84
   72.70        2975.00           2498         921.00      4012.75
   72.73        2975.25           2502         911.00      3969.15
   72.77        2975.50           2505         889.00      3873.22
   72.80        2975.75           2509         866.00      3772.93
   72.83        2976.00           2512         859.00      3742.41
   72.86        2976.25           2516         867.00      3777.29
   72.89        2976.50           2520         822.00      3581.08
   72.92        2976.75           2523         846.00      3685.73
   72.95        2977.00           2527         829.00      3611.60
   72.98        2977.25           2530         812.00      3537.48
   73.01        2977.50           2534         805.00      3506.96
   73.04        2977.75           2537         787.00      3428.47
   73.07        2978.00           2541         803.00      3498.24
   73.10        2978.25           2544         779.00      3393.59
   73.13        2978.50           2548         815.00      3550.56
   73.16        2978.75           2552         784.00      3415.39
   73.19        2979.00           2555         757.00      3297.67
   73.22        2979.25           2559         767.00      3341.27
   73.25        2979.50           2562         758.00      3302.03
   73.29        2979.75           2566         723.00      3149.42
   73.32        2980.00           2569         737.00      3210.46
   73.35        2980.25           2573         721.00      3140.70
   73.38        2980.50           2577         725.00      3158.14
   73.41        2980.75           2580         715.00      3114.54
   73.44        2981.00           2584         754.00      3284.59
   73.47        2981.25           2587         727.00      3166.86
   73.51        2981.50           2591         721.00      3140.70
   73.55        2981.75           2594         720.00      3136.34
   73.58        2982.00           2598         715.00      3114.54
   73.61        2982.25           2601         735.00      3201.74
   73.64        2982.50           2605         708.00      3084.02
   73.67        2982.75           2609         729.00      3175.58
   73.70        2983.00           2612         727.00      3166.86
   73.73        2983.25           2616         688.00      2996.82
   73.76        2983.50           2619         697.00      3036.06
   73.79        2983.75           2623         689.00      3001.18
   73.82        2984.00           2626         690.00      3005.54
HS scan finished at 01:14:03
end
************************************************************
  HS Scan of 
************************************************************
Integration time is 0.2294 seconds per sample
dh270417Reading 51.44 .94 2.98pr1000
************************************************************
Dead Time -------------------------  3.4E-08 
Number of Cycles Used -------------  4 
Starting Wavelength (Angstroms) ---  2950 
Final Wavelength (Angstoms) -------  2984 
Wavelength Increment (Angstroms) --  .25 
Filter Wheel #1 Position ---------- (1) Ground quartz diffuser (ND=2.32)
Filter Wheel #2 Position ---------- (1) Neutral Density 0.494



************************************************************
HS scan start time = 20:07:27
Dark Count =  .7 


Time (GMT)  Wavelength (Ang)  Step Number  Raw Counts  Counts/Second

 1208.36        2950.00           2144         595.00      2590.90
 1208.55        2950.25           2147         605.00      2634.50
 1208.58        2950.50           2151         574.00      2499.34
 1208.61        2950.75           2155         584.00      2542.94
 1208.64        2951.00           2158         600.00      2612.70
 1208.67        2951.25           2162         582.00      2534.22
 1208.70        2951.50           2165         595.00      2590.90
 1208.73        2951.75           2169         634.00      2760.94
 1208.76        2952.00           2172         643.00      2800.18
 1208.79        2952.25           2176         606.00      2638.86
 1208.82        2952.50           2179         626.00      2726.06
 1208.85        2952.75           2183         637.00      2774.02
 1208.88        2953.00           2186         665.00      2896.10
 1208.92        2953.25           2190         615.00      2678.10
 1208.95        2953.50           2193         636.00      2769.66
 1208.98        2953.75           2197         636.00      2769.66
 1209.01        2954.00           2200         617.00      2686.82
 1209.04        2954.25           2204         627.00      2730.42
 1209.07        2954.50           2208         640.00      2787.10
 1209.10        2954.75           2211         632.00      2752.22
 1209.13        2955.00           2215         655.00      2852.50
 1209.16        2955.25           2218         693.00      3018.18
 1209.19        2955.50           2222         629.00      2739.14
 1209.22        2955.75           2225         677.00      2948.42
 1209.25        2956.00           2229         671.00      2922.26
 1209.28        2956.25           2232         660.00      2874.30
 1209.31        2956.50           2236         687.00      2992.02
 1209.34        2956.75           2239         684.00      2978.94
 1209.37        2957.00           2243         705.00      3070.50
 1209.40        2957.25           2246         685.00      2983.30
 1209.44        2957.50           2250         686.00      2987.66
 1209.47        2957.75           2254         692.00      3013.82
 1209.50        2958.00           2257         729.00      3175.15
 1209.53        2958.25           2261         719.00      3131.55
 1209.56        2958.50           2264         725.00      3157.71
 1209.59        2958.75           2268         749.00      3262.35
 1209.62        2959.00           2271         721.00      3140.27
 1209.65        2959.25           2275         780.00      3397.52
 1209.68        2959.50           2278         759.00      3305.95
 1209.71        2959.75           2282         762.00      3319.03
 1209.74        2960.00           2285         795.00      3462.92
 1209.77        2960.25           2289         791.00      3445.48
 1209.80        2960.50           2293         806.00      3510.88
 1209.83        2960.75           2296         863.00      3759.42
 1209.86        2961.00           2300         907.00      3951.27
 1209.89        2961.25           2303        1145.00      4989.08
 1209.92        2961.50           2307        3726.00     16248.29
 1209.96        2961.75           2310        8731.00     38106.44
 1209.99        2962.00           2314       17765.00     77642.80
 1210.02        2962.25           2317       25455.00    111381.40
 1210.05        2962.50           2321       36675.00    160746.70
 1210.08        2962.75           2324       45071.00    197796.10
 1210.11        2963.00           2328       55826.00    245392.40
 1210.14        2963.25           2331       63854.00    281021.50
 1210.17        2963.50           2335       74561.00    328675.60
 1210.20        2963.75           2339       86250.00    380878.30
 1210.23        2964.00           2342       95199.00    420970.70
 1210.26        2964.25           2346      106893.00    473527.40
 1210.29        2964.50           2349      115083.00    510449.10
 1210.32        2964.75           2353      125636.00    558161.80
 1210.35        2965.00           2356      133471.00    593687.10
 1210.38        2965.25           2360      143725.00    640312.10
 1210.41        2965.50           2363      151800.00    677134.50
 1210.44        2965.75           2367      162458.00    725878.90
 1210.48        2966.00           2370      170072.00    760802.00
 1210.51        2966.25           2374      179554.00    804410.80
 1210.54        2966.50           2378      186073.00    834468.80
 1210.57        2966.75           2381      188250.00    844520.40
 1210.60        2967.00           2385      188813.00    847121.10
 1210.63        2967.25           2388      188580.00    846044.80
 1210.66        2967.50           2392      188962.00    847809.40
 1210.69        2967.75           2395      188234.00    844446.50
 1210.72        2968.00           2399      185648.00    832507.30
 1210.75        2968.25           2402      180090.00    806880.00
 1210.78        2968.50           2406      170802.00    764154.80
 1210.81        2968.75           2409      163119.00    728907.30
 1210.84        2969.00           2413      153306.00    684012.30
 1210.87        2969.25           2417      142377.00    634174.20
 1210.90        2969.50           2420      134398.00    597896.10
 1210.93        2969.75           2424      124190.00    551614.80
 1210.96        2970.00           2427      115609.00    512823.60
 1210.99        2970.25           2431      105100.00    465456.80
 1211.03        2970.50           2434       97113.00    429559.90
 1211.06        2970.75           2438       86219.00    380739.60
 1211.09        2971.00           2441       77650.00    342452.90
 1211.12        2971.25           2445       65517.00    288412.90
 1211.15        2971.50           2449       53334.00    234350.30
 1211.18        2971.75           2452       44584.00    195644.50
 1211.21        2972.00           2456       33450.00    146540.40
 1211.24        2972.25           2459       25609.00    112057.80
 1211.27        2972.50           2463       15530.00     67851.65
 1211.30        2972.75           2466        8592.00     37498.95
 1211.33        2973.00           2470        2653.00     11566.45
 1211.36        2973.25           2473        1230.00      5359.74
 1211.39        2973.50           2477         919.00      4003.60
 1211.42        2973.75           2481         840.00      3659.13
 1211.45        2974.00           2484         857.00      3733.26
 1211.48        2974.25           2488         845.00      3680.93
 1211.52        2974.50           2491         772.00      3362.63
 1211.55        2974.75           2495         797.00      3471.64
 1211.58        2975.00           2498         789.00      3436.76
 1211.61        2975.25           2502         745.00      3244.91
 1211.64        2975.50           2505         783.00      3410.60
 1211.67        2975.75           2509         749.00      3262.35
 1211.70        2976.00           2512         723.00      3148.99
 1211.73        2976.25           2516         738.00      3214.39
 1211.76        2976.50           2520         721.00      3140.27
 1211.79        2976.75           2523         736.00      3205.67
 1211.82        2977.00           2527         756.00      3292.87
 1211.85        2977.25           2530         706.00      3074.86
 1211.88        2977.50           2534         700.00      3048.70
 1211.91        2977.75           2537         672.00      2926.62
 1211.94        2978.00           2541         655.00      2852.50
 1211.97        2978.25           2544         679.00      2957.14
 1212.00        2978.50           2548         661.00      2878.66
 1212.04        2978.75           2552         646.00      2813.26
 1212.07        2979.00           2555         683.00      2974.58
 1212.10        2979.25           2559         664.00      2891.74
 1212.13        2979.50           2562         659.00      2869.94
 1212.16        2979.75           2566         654.00      2848.14
 1212.19        2980.00           2569         629.00      2739.14
 1212.22        2980.25           2573         657.00      2861.22
 1212.25        2980.50           2577         623.00      2712.98
 1212.28        2980.75           2580         635.00      2765.30
 1212.31        2981.00           2584         670.00      2917.90
 1212.34        2981.25           2587         671.00      2922.26
 1212.37        2981.50           2591         643.00      2800.18
 1212.40        2981.75           2594         596.00      2595.26
 1212.43        2982.00           2598         637.00      2774.02
 1212.46        2982.25           2601         610.00      2656.30
 1212.49        2982.50           2605         592.00      2577.82
 1212.52        2982.75           2609         592.00      2577.82
 1212.56        2983.00           2612         608.00      2647.58
 1212.59        2983.25           2616         568.00      2473.18
 1212.62        2983.50           2619         586.00      2551.66
 1212.65        2983.75           2623         593.00      2582.18
 1212.68        2984.00           2626         583.00      2538.58
HS scan finished at 20:12:54
end
