************************************************************
  HS Scan of 
************************************************************
Integration time is 0.2294 seconds per sample
dh260417Reading 51.44 .94 2.49pr1000
************************************************************
Dead Time -------------------------  3.4E-08 
Number of Cycles Used -------------  4 
Starting Wavelength (Angstroms) ---  2950 
Final Wavelength (Angstoms) -------  2984 
Wavelength Increment (Angstroms) --  .25 
Filter Wheel #1 Position ---------- (1) Ground quartz diffuser (ND=2.32)
Filter Wheel #2 Position ---------- (1) Neutral Density 0.494



************************************************************
HS scan start time = 01:34:51
Dark Count =  .4 


Time (GMT)  Wavelength (Ang)  Step Number  Raw Counts  Counts/Second

   95.75        2950.00           2144         647.00      2818.93
   95.95        2950.25           2147         654.00      2849.45
   95.98        2950.50           2151         671.00      2923.57
   96.01        2950.75           2155         675.00      2941.01
   96.04        2951.00           2158         672.00      2927.93
   96.07        2951.25           2162         687.00      2993.33
   96.10        2951.50           2165         662.00      2884.33
   96.13        2951.75           2169         687.00      2993.33
   96.16        2952.00           2172         695.00      3028.21
   96.19        2952.25           2176         665.00      2897.41
   96.22        2952.50           2179         673.00      2932.29
   96.25        2952.75           2183         671.00      2923.57
   96.28        2953.00           2186         682.00      2971.53
   96.31        2953.25           2190         698.00      3041.29
   96.34        2953.50           2193         694.00      3023.85
   96.37        2953.75           2197         692.00      3015.13
   96.41        2954.00           2200         719.00      3132.85
   96.44        2954.25           2204         684.00      2980.25
   96.47        2954.50           2208         740.00      3224.42
   96.50        2954.75           2211         733.00      3193.90
   96.53        2955.00           2215         741.00      3228.78
   96.56        2955.25           2218         727.00      3167.73
   96.59        2955.50           2222         740.00      3224.42
   96.62        2955.75           2225         718.00      3128.49
   96.65        2956.00           2229         726.00      3163.37
   96.68        2956.25           2232         736.00      3206.98
   96.71        2956.50           2236         746.00      3250.58
   96.74        2956.75           2239         763.00      3324.70
   96.77        2957.00           2243         761.00      3315.98
   96.80        2957.25           2246         748.00      3259.30
   96.83        2957.50           2250         789.00      3438.07
   96.86        2957.75           2254         795.00      3464.23
   96.90        2958.00           2257         786.00      3424.98
   96.93        2958.25           2261         813.00      3542.71
   96.96        2958.50           2264         800.00      3486.03
   96.99        2958.75           2268         828.00      3608.11
   97.02        2959.00           2271         824.00      3590.67
   97.05        2959.25           2275         856.00      3730.20
   97.08        2959.50           2278         811.00      3533.99
   97.11        2959.75           2282         863.00      3760.73
   97.14        2960.00           2285         853.00      3717.12
   97.17        2960.25           2289         873.00      3804.33
   97.20        2960.50           2293         886.00      3861.01
   97.23        2960.75           2296         932.00      4061.59
   97.26        2961.00           2300        1038.00      4523.80
   97.29        2961.25           2303        1833.00      7990.84
   97.32        2961.50           2307        6402.00     27932.36
   97.35        2961.75           2310       12562.00     54860.74
   97.38        2962.00           2314       22110.00     96697.52
   97.41        2962.25           2317       30028.00    131482.70
   97.45        2962.50           2321       41422.00    181683.80
   97.48        2962.75           2324       50646.00    222450.30
   97.51        2963.00           2328       61668.00    271312.50
   97.54        2963.25           2331       69619.00    306662.10
   97.57        2963.50           2335       80437.00    354895.70
   97.60        2963.75           2339       92789.00    410164.20
   97.63        2964.00           2342      101739.00    450341.70
   97.66        2964.25           2346      113300.00    502404.50
   97.69        2964.50           2349      121492.00    539408.50
   97.72        2964.75           2353      133080.00    591913.50
   97.75        2965.00           2356      141708.00    631130.30
   97.78        2965.25           2360      152973.00    682492.60
   97.81        2965.50           2363      161233.00    720269.40
   97.84        2965.75           2367      170467.00    762617.40
   97.87        2966.00           2370      177951.00    797030.60
   97.90        2966.25           2374      189199.00    848905.80
   97.93        2966.50           2378      191198.00    858144.40
   97.97        2966.75           2381      196643.00    883339.40
   98.00        2967.00           2385      197250.00    886150.80
   98.03        2967.25           2388      197317.00    886461.20
   98.06        2967.50           2392      197309.00    886424.10
   98.09        2967.75           2395      196698.00    883594.10
   98.12        2968.00           2399      192501.00    864169.60
   98.15        2968.25           2402      185280.00    830810.50
   98.18        2968.50           2406      174849.00    782757.00
   98.21        2968.75           2409      166526.00    744528.50
   98.24        2969.00           2413      153979.00    687088.20
   98.27        2969.25           2417      142311.00    633875.00
   98.30        2969.50           2420      134052.00    596326.30
   98.33        2969.75           2424      122751.00    545103.80
   98.36        2970.00           2427      114405.00    507390.40
   98.39        2970.25           2431      102363.00    453147.00
   98.42        2970.50           2434       93006.00    411137.00
   98.45        2970.75           2438       81219.00    358388.50
   98.49        2971.00           2441       72164.00    317995.00
   98.52        2971.25           2445       60347.00    265447.80
   98.55        2971.50           2449       49315.00    216560.80
   98.59        2971.75           2452       41250.00    180924.70
   98.62        2972.00           2456       30945.00    135516.60
   98.65        2972.25           2459       22418.00     98049.08
   98.68        2972.50           2463       10706.00     46742.06
   98.71        2972.75           2466        4709.00     20540.06
   98.75        2973.00           2470        1587.00      6917.93
   98.78        2973.25           2473        1162.00      5064.52
   98.81        2973.50           2477         980.00      4270.89
   98.84        2973.75           2481         946.00      4122.64
   98.87        2974.00           2484         935.00      4074.67
   98.90        2974.25           2488         886.00      3861.01
   98.93        2974.50           2491         878.00      3826.13
   98.96        2974.75           2495         867.00      3778.17
   98.99        2975.00           2498         887.00      3865.37
   99.02        2975.25           2502         830.00      3616.84
   99.05        2975.50           2505         833.00      3629.92
   99.08        2975.75           2509         836.00      3643.00
   99.11        2976.00           2512         846.00      3686.60
   99.14        2976.25           2516         795.00      3464.23
   99.17        2976.50           2520         772.00      3363.94
   99.20        2976.75           2523         757.00      3298.54
   99.23        2977.00           2527         797.00      3472.95
   99.27        2977.25           2530         770.00      3355.22
   99.30        2977.50           2534         741.00      3228.78
   99.33        2977.75           2537         751.00      3272.38
   99.36        2978.00           2541         765.00      3333.42
   99.39        2978.25           2544         755.00      3289.82
   99.42        2978.50           2548         730.00      3180.81
   99.45        2978.75           2552         755.00      3289.82
   99.48        2979.00           2555         720.00      3137.21
   99.51        2979.25           2559         714.00      3111.05
   99.54        2979.50           2562         692.00      3015.13
   99.57        2979.75           2566         711.00      3097.97
   99.60        2980.00           2569         697.00      3036.93
   99.63        2980.25           2573         698.00      3041.29
   99.66        2980.50           2577         701.00      3054.37
   99.69        2980.75           2580         693.00      3019.49
   99.72        2981.00           2584         705.00      3071.81
   99.75        2981.25           2587         691.00      3010.77
   99.79        2981.50           2591         676.00      2945.37
   99.82        2981.75           2594         694.00      3023.85
   99.85        2982.00           2598         670.00      2919.21
   99.88        2982.25           2601         683.00      2975.89
   99.91        2982.50           2605         646.00      2814.57
   99.94        2982.75           2609         670.00      2919.21
   99.97        2983.00           2612         647.00      2818.93
  100.00        2983.25           2616         672.00      2927.93
  100.03        2983.50           2619         661.00      2879.97
  100.06        2983.75           2623         661.00      2879.97
  100.09        2984.00           2626         662.00      2884.33
HS scan finished at 01:40:19
end
************************************************************
  HS Scan of 
************************************************************
Integration time is 0.2294 seconds per sample
dh260417Reading 51.44 .94 2.88pr1000
************************************************************
Dead Time -------------------------  3.4E-08 
Number of Cycles Used -------------  4 
Starting Wavelength (Angstroms) ---  2950 
Final Wavelength (Angstoms) -------  2984 
Wavelength Increment (Angstroms) --  .25 
Filter Wheel #1 Position ---------- (1) Ground quartz diffuser (ND=2.32)
Filter Wheel #2 Position ---------- (1) Neutral Density 0.494



************************************************************
HS scan start time = 20:07:24
Dark Count =  .6 


Time (GMT)  Wavelength (Ang)  Step Number  Raw Counts  Counts/Second

 1208.31        2950.00           2144         634.00      2761.38
 1208.50        2950.25           2147         617.00      2687.26
 1208.53        2950.50           2151         639.00      2783.18
 1208.56        2950.75           2155         610.00      2656.74
 1208.59        2951.00           2158         633.00      2757.02
 1208.62        2951.25           2162         634.00      2761.38
 1208.65        2951.50           2165         674.00      2935.78
 1208.68        2951.75           2169         653.00      2844.22
 1208.71        2952.00           2172         630.00      2743.94
 1208.74        2952.25           2176         673.00      2931.42
 1208.77        2952.50           2179         652.00      2839.86
 1208.80        2952.75           2183         661.00      2879.10
 1208.84        2953.00           2186         675.00      2940.14
 1208.87        2953.25           2190         658.00      2866.02
 1208.90        2953.50           2193         665.00      2896.54
 1208.93        2953.75           2197         657.00      2861.66
 1208.96        2954.00           2200         681.00      2966.30
 1208.99        2954.25           2204         648.00      2822.42
 1209.02        2954.50           2208         690.00      3005.54
 1209.05        2954.75           2211         686.00      2988.10
 1209.08        2955.00           2215         700.00      3049.14
 1209.11        2955.25           2218         664.00      2892.18
 1209.14        2955.50           2222         697.00      3036.06
 1209.17        2955.75           2225         706.00      3075.30
 1209.20        2956.00           2229         684.00      2979.38
 1209.23        2956.25           2232         700.00      3049.14
 1209.26        2956.50           2236         748.00      3258.43
 1209.29        2956.75           2239         727.00      3166.86
 1209.32        2957.00           2243         725.00      3158.14
 1209.36        2957.25           2246         700.00      3049.14
 1209.39        2957.50           2250         755.00      3288.95
 1209.42        2957.75           2254         751.00      3271.51
 1209.45        2958.00           2257         722.00      3145.06
 1209.48        2958.25           2261         751.00      3271.51
 1209.51        2958.50           2264         777.00      3384.87
 1209.54        2958.75           2268         783.00      3411.03
 1209.57        2959.00           2271         776.00      3380.51
 1209.60        2959.25           2275         787.00      3428.47
 1209.63        2959.50           2278         817.00      3559.28
 1209.66        2959.75           2282         791.00      3445.91
 1209.69        2960.00           2285         821.00      3576.72
 1209.72        2960.25           2289         817.00      3559.28
 1209.75        2960.50           2293         843.00      3672.65
 1209.78        2960.75           2296         890.00      3877.58
 1209.81        2961.00           2300         920.00      4008.39
 1209.84        2961.25           2303        1219.00      5312.21
 1209.87        2961.50           2307        3950.00     17226.31
 1209.91        2961.75           2310        8843.00     38596.39
 1209.94        2962.00           2314       17650.00     77139.28
 1209.97        2962.25           2317       25081.00    109739.10
 1210.00        2962.50           2321       35706.00    156477.20
 1210.03        2962.75           2324       44162.00    193780.80
 1210.06        2963.00           2328       54866.00    241138.10
 1210.09        2963.25           2331       62131.00    273367.80
 1210.12        2963.50           2335       72296.00    318582.20
 1210.15        2963.75           2339       84126.00    371379.20
 1210.18        2964.00           2342       93135.00    411714.50
 1210.21        2964.25           2346      104487.00    462699.00
 1210.24        2964.50           2349      112212.00    497496.10
 1210.27        2964.75           2353      123012.00    546283.90
 1210.30        2965.00           2356      130306.00    579326.50
 1210.33        2965.25           2360      141093.00    628330.60
 1210.36        2965.50           2363      148797.00    663430.30
 1210.40        2965.75           2367      159091.00    710462.70
 1210.43        2966.00           2370      166603.00    744880.90
 1210.46        2966.25           2374      175669.00    786527.90
 1210.49        2966.50           2378      182047.00    815898.70
 1210.52        2966.75           2381      183629.00    823193.10
 1210.55        2967.00           2385      184429.00    826883.20
 1210.59        2967.25           2388      184617.00    827750.50
 1210.62        2967.50           2392      184436.00    826915.50
 1210.66        2967.75           2395      184171.00    825693.10
 1210.69        2968.00           2399      181479.00    813280.80
 1210.72        2968.25           2402      176137.00    788681.10
 1210.75        2968.50           2406      166458.00    744215.70
 1210.78        2968.75           2409      159913.00    714225.00
 1210.81        2969.00           2413      150207.00    669863.50
 1210.84        2969.25           2417      139172.00    619591.60
 1210.87        2969.50           2420      131150.00    583154.80
 1210.90        2969.75           2424      120403.00    534483.00
 1210.93        2970.00           2427      112551.00    499025.00
 1210.96        2970.25           2431      101871.00    450934.20
 1210.99        2970.50           2434       93731.00    414386.80
 1211.02        2970.75           2438       83213.00    367297.70
 1211.05        2971.00           2441       74710.00    329340.30
 1211.08        2971.25           2445       63114.00    277734.10
 1211.11        2971.50           2449       51570.00    226539.40
 1211.14        2971.75           2452       43768.00    192040.60
 1211.17        2972.00           2456       33082.00    144920.70
 1211.21        2972.25           2459       25369.00    111004.10
 1211.24        2972.50           2463       15135.00     66122.34
 1211.27        2972.75           2466        8581.00     37451.32
 1211.30        2973.00           2470        2482.00     10820.89
 1211.33        2973.25           2473        1216.00      5299.12
 1211.36        2973.50           2477         922.00      4017.11
 1211.39        2973.75           2481         876.00      3816.54
 1211.42        2974.00           2484         848.00      3694.45
 1211.45        2974.25           2488         845.00      3681.37
 1211.48        2974.50           2491         839.00      3655.21
 1211.51        2974.75           2495         821.00      3576.72
 1211.54        2975.00           2498         815.00      3550.56
 1211.57        2975.25           2502         786.00      3424.11
 1211.60        2975.50           2505         812.00      3537.48
 1211.63        2975.75           2509         791.00      3445.91
 1211.66        2976.00           2512         772.00      3363.07
 1211.70        2976.25           2516         727.00      3166.86
 1211.73        2976.50           2520         723.00      3149.42
 1211.76        2976.75           2523         723.00      3149.42
 1211.79        2977.00           2527         723.00      3149.42
 1211.82        2977.25           2530         732.00      3188.66
 1211.85        2977.50           2534         699.00      3044.78
 1211.88        2977.75           2537         711.00      3097.10
 1211.91        2978.00           2541         673.00      2931.42
 1211.94        2978.25           2544         738.00      3214.82
 1211.97        2978.50           2548         700.00      3049.14
 1212.00        2978.75           2552         683.00      2975.02
 1212.03        2979.00           2555         690.00      3005.54
 1212.06        2979.25           2559         661.00      2879.10
 1212.09        2979.50           2562         657.00      2861.66
 1212.12        2979.75           2566         655.00      2852.94
 1212.15        2980.00           2569         641.00      2791.90
 1212.18        2980.25           2573         659.00      2870.38
 1212.22        2980.50           2577         634.00      2761.38
 1212.25        2980.75           2580         645.00      2809.34
 1212.28        2981.00           2584         629.00      2739.58
 1212.31        2981.25           2587         653.00      2844.22
 1212.34        2981.50           2591         639.00      2783.18
 1212.37        2981.75           2594         653.00      2844.22
 1212.40        2982.00           2598         624.00      2717.78
 1212.43        2982.25           2601         623.00      2713.42
 1212.46        2982.50           2605         640.00      2787.54
 1212.49        2982.75           2609         620.00      2700.34
 1212.52        2983.00           2612         620.00      2700.34
 1212.55        2983.25           2616         627.00      2730.86
 1212.58        2983.50           2619         604.00      2630.58
 1212.61        2983.75           2623         639.00      2783.18
 1212.64        2984.00           2626         639.00      2783.18
HS scan finished at 20:12:52
end
