************************************************************
  HS Scan of 
************************************************************
Integration time is 0.2294 seconds per sample
dh200417Reading 51.44 .94 2.92pr1000
************************************************************
Dead Time -------------------------  3.4E-08 
Number of Cycles Used -------------  4 
Starting Wavelength (Angstroms) ---  2950 
Final Wavelength (Angstoms) -------  2984 
Wavelength Increment (Angstroms) --  .25 
Filter Wheel #1 Position ---------- (1) Ground quartz diffuser (ND=2.32)
Filter Wheel #2 Position ---------- (1) Neutral Density 0.494



************************************************************
HS scan start time = 01:06:43
Dark Count =  1 


Time (GMT)  Wavelength (Ang)  Step Number  Raw Counts  Counts/Second

   67.61        2950.00           2144         656.00      2855.55
   67.80        2950.25           2147         633.00      2755.27
   67.83        2950.50           2151         668.00      2907.87
   67.86        2950.75           2155         644.00      2803.23
   67.90        2951.00           2158         641.00      2790.15
   67.93        2951.25           2162         619.00      2694.23
   67.96        2951.50           2165         659.00      2868.63
   67.99        2951.75           2169         658.00      2864.27
   68.02        2952.00           2172         691.00      3008.15
   68.05        2952.25           2176         661.00      2877.35
   68.08        2952.50           2179         667.00      2903.51
   68.11        2952.75           2183         663.00      2886.07
   68.14        2953.00           2186         690.00      3003.79
   68.17        2953.25           2190         683.00      2973.27
   68.20        2953.50           2193         715.00      3112.80
   68.23        2953.75           2197         681.00      2964.55
   68.26        2954.00           2200         680.00      2960.19
   68.29        2954.25           2204         707.00      3077.92
   68.32        2954.50           2208         701.00      3051.76
   68.35        2954.75           2211         704.00      3064.84
   68.38        2955.00           2215         716.00      3117.16
   68.42        2955.25           2218         688.00      2995.07
   68.45        2955.50           2222         695.00      3025.59
   68.48        2955.75           2225         713.00      3104.08
   68.51        2956.00           2229         722.00      3143.32
   68.54        2956.25           2232         746.00      3247.96
   68.57        2956.50           2236         754.00      3282.84
   68.60        2956.75           2239         744.00      3239.24
   68.63        2957.00           2243         723.00      3147.68
   68.66        2957.25           2246         750.00      3265.40
   68.69        2957.50           2250         749.00      3261.04
   68.72        2957.75           2254         742.00      3230.52
   68.75        2958.00           2257         789.00      3435.45
   68.78        2958.25           2261         812.00      3535.73
   68.81        2958.50           2264         793.00      3452.89
   68.84        2958.75           2268         833.00      3627.30
   68.87        2959.00           2271         809.00      3522.65
   68.90        2959.25           2275         839.00      3653.46
   68.94        2959.50           2278         853.00      3714.51
   68.97        2959.75           2282         815.00      3548.82
   69.00        2960.00           2285         874.00      3806.07
   69.03        2960.25           2289         883.00      3845.32
   69.06        2960.50           2293         905.00      3941.24
   69.09        2960.75           2296         926.00      4032.81
   69.12        2961.00           2300        1036.00      4512.46
   69.15        2961.25           2303        1794.00      7818.12
   69.18        2961.50           2307        6301.00     27488.63
   69.21        2961.75           2310       12725.00     55571.34
   69.24        2962.00           2314       23518.00    102874.50
   69.27        2962.25           2317       33350.00    146098.80
   69.30        2962.50           2321       46073.00    202222.60
   69.33        2962.75           2324       55175.00    242505.70
   69.36        2963.00           2328       67852.00    298796.10
   69.39        2963.25           2331       76893.00    339074.10
   69.42        2963.50           2335       90165.00    398403.00
   69.45        2963.75           2339      104020.00    460596.30
   69.49        2964.00           2342      113493.00    503272.50
   69.52        2964.25           2346      126497.00    562060.10
   69.55        2964.50           2349      136024.00    605280.30
   69.58        2964.75           2353      147589.00    657919.10
   69.61        2965.00           2356      156458.00    698416.40
   69.64        2965.25           2360      168381.00    753037.30
   69.67        2965.50           2363      177630.00    795550.30
   69.70        2965.75           2367      189208.00    848944.50
   69.73        2966.00           2370      197497.00    887292.20
   69.76        2966.25           2374      207895.00    935540.90
   69.79        2966.50           2378      212684.00    957816.90
   69.82        2966.75           2381      213914.00    963543.80
   69.85        2967.00           2385      214510.00    966319.60
   69.88        2967.25           2388      213820.00    963106.10
   69.91        2967.50           2392      214182.00    964791.90
   69.94        2967.75           2395      213612.00    962137.50
   69.97        2968.00           2399      206940.00    931102.70
   70.01        2968.25           2402      200391.00    900704.80
   70.04        2968.50           2406      190279.00    853893.60
   70.07        2968.75           2409      182147.00    816357.90
   70.10        2969.00           2413      169635.00    758793.90
   70.13        2969.25           2417      157237.00    701978.90
   70.16        2969.50           2420      147692.00    658388.80
   70.19        2969.75           2424      136084.00    605553.00
   70.22        2970.00           2427      127538.00    566776.50
   70.25        2970.25           2431      115349.00    511648.50
   70.28        2970.50           2434      105830.00    468740.80
   70.31        2970.75           2438       91994.00    406598.00
   70.34        2971.00           2441       81344.00    358944.20
   70.37        2971.25           2445       67992.00    299418.90
   70.40        2971.50           2449       55963.00    245998.40
   70.43        2971.75           2452       46978.00    206222.90
   70.46        2972.00           2456       35002.00    153374.00
   70.49        2972.25           2459       26305.00    115114.00
   70.53        2972.50           2463       14686.00     64154.62
   70.56        2972.75           2466        6986.00     30480.57
   70.59        2973.00           2470        2001.00      8720.98
   70.62        2973.25           2473        1152.00      5018.29
   70.65        2973.50           2477         986.00      4294.44
   70.68        2973.75           2481         932.00      4058.97
   70.71        2974.00           2484         932.00      4058.97
   70.74        2974.25           2488         901.00      3923.80
   70.77        2974.50           2491         886.00      3858.40
   70.80        2974.75           2495         866.00      3771.19
   70.83        2975.00           2498         857.00      3731.95
   70.86        2975.25           2502         835.00      3636.02
   70.89        2975.50           2505         851.00      3705.79
   70.92        2975.75           2509         842.00      3666.54
   70.95        2976.00           2512         777.00      3383.13
   70.98        2976.25           2516         794.00      3457.25
   71.01        2976.50           2520         793.00      3452.89
   71.05        2976.75           2523         798.00      3474.69
   71.08        2977.00           2527         798.00      3474.69
   71.11        2977.25           2530         783.00      3409.29
   71.14        2977.50           2534         765.00      3330.80
   71.17        2977.75           2537         754.00      3282.84
   71.20        2978.00           2541         745.00      3243.60
   71.23        2978.25           2544         766.00      3335.16
   71.26        2978.50           2548         748.00      3256.68
   71.29        2978.75           2552         731.00      3182.56
   71.32        2979.00           2555         717.00      3121.52
   71.35        2979.25           2559         698.00      3038.68
   71.38        2979.50           2562         746.00      3247.96
   71.41        2979.75           2566         688.00      2995.07
   71.44        2980.00           2569         688.00      2995.07
   71.47        2980.25           2573         684.00      2977.63
   71.50        2980.50           2577         691.00      3008.15
   71.53        2980.75           2580         679.00      2955.83
   71.57        2981.00           2584         706.00      3073.56
   71.60        2981.25           2587         694.00      3021.23
   71.63        2981.50           2591         658.00      2864.27
   71.66        2981.75           2594         657.00      2859.91
   71.69        2982.00           2598         682.00      2968.91
   71.72        2982.25           2601         649.00      2825.03
   71.75        2982.50           2605         657.00      2859.91
   71.78        2982.75           2609         676.00      2942.75
   71.81        2983.00           2612         655.00      2851.19
   71.84        2983.25           2616         638.00      2777.07
   71.87        2983.50           2619         645.00      2807.59
   71.90        2983.75           2623         619.00      2694.23
   71.93        2984.00           2626         632.00      2750.91
HS scan finished at 01:12:09
end
************************************************************
  HS Scan of 
************************************************************
Integration time is 0.2294 seconds per sample
dh200417Reading 51.44 .94 3.33pr1000
************************************************************
Dead Time -------------------------  3.4E-08 
Number of Cycles Used -------------  4 
Starting Wavelength (Angstroms) ---  2950 
Final Wavelength (Angstoms) -------  2984 
Wavelength Increment (Angstroms) --  .25 
Filter Wheel #1 Position ---------- (1) Ground quartz diffuser (ND=2.32)
Filter Wheel #2 Position ---------- (1) Neutral Density 0.494



************************************************************
HS scan start time = 20:07:19
Dark Count =  2.2 


Time (GMT)  Wavelength (Ang)  Step Number  Raw Counts  Counts/Second

 1208.22        2950.00           2144         539.00      2340.20
 1208.41        2950.25           2147         530.00      2300.96
 1208.44        2950.50           2151         521.00      2261.73
 1208.47        2950.75           2155         531.00      2305.32
 1208.50        2951.00           2158         519.00      2253.01
 1208.53        2951.25           2162         541.00      2348.92
 1208.56        2951.50           2165         551.00      2392.52
 1208.59        2951.75           2169         538.00      2335.84
 1208.62        2952.00           2172         535.00      2322.76
 1208.65        2952.25           2176         541.00      2348.92
 1208.68        2952.50           2179         563.00      2444.84
 1208.71        2952.75           2183         564.00      2449.20
 1208.74        2953.00           2186         561.00      2436.12
 1208.78        2953.25           2190         570.00      2475.36
 1208.81        2953.50           2193         541.00      2348.92
 1208.84        2953.75           2197         581.00      2523.32
 1208.87        2954.00           2200         588.00      2553.84
 1208.90        2954.25           2204         568.00      2466.64
 1208.93        2954.50           2208         565.00      2453.56
 1208.96        2954.75           2211         552.00      2396.88
 1208.99        2955.00           2215         553.00      2401.24
 1209.02        2955.25           2218         589.00      2558.20
 1209.05        2955.50           2222         612.00      2658.48
 1209.08        2955.75           2225         586.00      2545.12
 1209.11        2956.00           2229         601.00      2610.52
 1209.14        2956.25           2232         592.00      2571.28
 1209.17        2956.50           2236         633.00      2750.04
 1209.20        2956.75           2239         619.00      2689.00
 1209.23        2957.00           2243         640.00      2780.56
 1209.26        2957.25           2246         630.00      2736.96
 1209.30        2957.50           2250         632.00      2745.68
 1209.33        2957.75           2254         639.00      2776.20
 1209.36        2958.00           2257         649.00      2819.80
 1209.39        2958.25           2261         642.00      2789.28
 1209.42        2958.50           2264         665.00      2889.56
 1209.45        2958.75           2268         658.00      2859.04
 1209.48        2959.00           2271         669.00      2907.00
 1209.51        2959.25           2275         672.00      2920.08
 1209.54        2959.50           2278         661.00      2872.12
 1209.57        2959.75           2282         683.00      2968.04
 1209.60        2960.00           2285         724.00      3146.81
 1209.63        2960.25           2289         742.00      3225.29
 1209.66        2960.50           2293         770.00      3347.37
 1209.69        2960.75           2296         791.00      3438.94
 1209.72        2961.00           2300         816.00      3547.94
 1209.75        2961.25           2303        1133.00      4930.21
 1209.78        2961.50           2307        3919.00     17084.03
 1209.82        2961.75           2310        9203.00     40162.92
 1209.85        2962.00           2314       18290.00     79937.11
 1209.88        2962.25           2317       25454.00    111370.40
 1209.91        2962.50           2321       35469.00    155426.00
 1209.94        2962.75           2324       43540.00    191026.60
 1209.97        2963.00           2328       54650.00    240173.80
 1210.00        2963.25           2331       63284.00    278482.30
 1210.03        2963.50           2335       74123.00    326716.40
 1210.06        2963.75           2339       83741.00    369650.70
 1210.09        2964.00           2342       91615.00    404894.00
 1210.12        2964.25           2346      103123.00    456556.40
 1210.15        2964.50           2349      110980.00    491933.80
 1210.18        2964.75           2353      122291.00    543014.50
 1210.21        2965.00           2356      129440.00    575392.20
 1210.24        2965.25           2360      138486.00    616464.80
 1210.27        2965.50           2363      145924.00    650323.50
 1210.31        2965.75           2367      156129.00    696906.60
 1210.34        2966.00           2370      163497.00    730632.60
 1210.37        2966.25           2374      173662.00    777290.50
 1210.40        2966.50           2378      180417.00    808379.50
 1210.43        2966.75           2381      182407.00    817551.00
 1210.46        2967.00           2385      183298.00    821659.30
 1210.49        2967.25           2388      183267.00    821516.30
 1210.52        2967.50           2392      183272.00    821539.30
 1210.55        2967.75           2395      182890.00    819777.90
 1210.58        2968.00           2399      181008.00    811102.70
 1210.61        2968.25           2402      175281.00    784735.70
 1210.64        2968.50           2406      165957.00    741910.50
 1210.67        2968.75           2409      158255.00    706630.00
 1210.70        2969.00           2413      149386.00    666110.00
 1210.73        2969.25           2417      139804.00    622458.80
 1210.76        2969.50           2420      132135.00    587616.50
 1210.79        2969.75           2424      120429.00    534593.30
 1210.83        2970.00           2427      111891.00    496041.20
 1210.86        2970.25           2431      101031.00    447151.30
 1210.89        2970.50           2434       92791.00    410165.10
 1210.92        2970.75           2438       81217.00    358371.50
 1210.95        2971.00           2441       72618.00    320009.60
 1210.98        2971.25           2445       61438.00    270283.20
 1211.01        2971.50           2449       49819.00    218782.70
 1211.04        2971.75           2452       41422.00    181675.90
 1211.07        2972.00           2456       31186.00    136569.00
 1211.10        2972.25           2459       23520.00    102878.00
 1211.13        2972.50           2463       13839.00     60441.43
 1211.16        2972.75           2466        7757.00     33843.63
 1211.19        2973.00           2470        2658.00     11581.72
 1211.22        2973.25           2473        1216.00      5292.15
 1211.25        2973.50           2477         836.00      3635.15
 1211.28        2973.75           2481         828.00      3600.27
 1211.31        2974.00           2484         764.00      3321.21
 1211.35        2974.25           2488         727.00      3159.89
 1211.38        2974.50           2491         792.00      3443.30
 1211.41        2974.75           2495         729.00      3168.61
 1211.44        2975.00           2498         707.00      3072.68
 1211.47        2975.25           2502         700.00      3042.16
 1211.50        2975.50           2505         713.00      3098.84
 1211.53        2975.75           2509         685.00      2976.76
 1211.56        2976.00           2512         672.00      2920.08
 1211.59        2976.25           2516         658.00      2859.04
 1211.62        2976.50           2520         653.00      2837.24
 1211.65        2976.75           2523         643.00      2793.64
 1211.68        2977.00           2527         674.00      2928.80
 1211.71        2977.25           2530         625.00      2715.16
 1211.74        2977.50           2534         646.00      2806.72
 1211.77        2977.75           2537         634.00      2754.40
 1211.82        2978.00           2541         638.00      2771.84
 1211.85        2978.25           2544         620.00      2693.36
 1211.88        2978.50           2548         630.00      2736.96
 1211.91        2978.75           2552         608.00      2641.04
 1211.94        2979.00           2555         626.00      2719.52
 1211.97        2979.25           2559         576.00      2501.52
 1212.00        2979.50           2562         584.00      2536.40
 1212.03        2979.75           2566         582.00      2527.68
 1212.06        2980.00           2569         572.00      2484.08
 1212.09        2980.25           2573         578.00      2510.24
 1212.12        2980.50           2577         582.00      2527.68
 1212.16        2980.75           2580         566.00      2457.92
 1212.19        2981.00           2584         540.00      2344.56
 1212.22        2981.25           2587         534.00      2318.40
 1212.25        2981.50           2591         546.00      2370.72
 1212.28        2981.75           2594         559.00      2427.40
 1212.31        2982.00           2598         562.00      2440.48
 1212.34        2982.25           2601         542.00      2353.28
 1212.37        2982.50           2605         548.00      2379.44
 1212.40        2982.75           2609         547.00      2375.08
 1212.43        2983.00           2612         526.00      2283.53
 1212.46        2983.25           2616         552.00      2396.88
 1212.49        2983.50           2619         537.00      2331.48
 1212.52        2983.75           2623         539.00      2340.20
 1212.55        2984.00           2626         516.00      2239.93
HS scan finished at 20:12:47
end
