************************************************************
  HS Scan of (1) Internal mercury lamp
************************************************************
Integration time is 0.2294 seconds per sample
dh200419Reading 51.44 .94 3.23pr1000
************************************************************
Dead Time -------------------------  3.4E-08 
Number of Cycles Used -------------  4 
Starting Wavelength (Angstroms) ---  2950 
Final Wavelength (Angstoms) -------  2984 
Wavelength Increment (Angstroms) --  .25 
Filter Wheel #1 Position ---------- (1) Ground quartz diffuser (ND=2.32)
Filter Wheel #2 Position ---------- (1) Neutral Density 0.494



************************************************************
HS scan start time = 01:06:57
Dark Count =  .8 


Time (GMT)  Wavelength (Ang)  Step Number  Raw Counts  Counts/Second

   67.85        2950.00           2144        1558.00      6789.71
   68.04        2950.25           2147        1541.00      6715.57
   68.07        2950.50           2151        1543.00      6724.29
   68.10        2950.75           2155        1584.00      6903.10
   68.13        2951.00           2158        1608.00      7007.77
   68.16        2951.25           2162        1579.00      6881.30
   68.19        2951.50           2165        1613.00      7029.58
   68.23        2951.75           2169        1593.00      6942.35
   68.26        2952.00           2172        1614.00      7033.94
   68.29        2952.25           2176        1579.00      6881.30
   68.32        2952.50           2179        1618.00      7051.39
   68.35        2952.75           2183        1662.00      7243.28
   68.38        2953.00           2186        1596.00      6955.44
   68.41        2953.25           2190        1617.00      7047.02
   68.44        2953.50           2193        1636.00      7129.89
   68.47        2953.75           2197        1660.00      7234.56
   68.50        2954.00           2200        1638.00      7138.61
   68.53        2954.25           2204        1638.00      7138.61
   68.56        2954.50           2208        1672.00      7286.90
   68.59        2954.75           2211        1666.00      7260.73
   68.62        2955.00           2215        1686.00      7347.96
   68.65        2955.25           2218        1696.00      7391.57
   68.68        2955.50           2222        1726.00      7522.41
   68.71        2955.75           2225        1760.00      7670.70
   68.75        2956.00           2229        1733.00      7552.94
   68.78        2956.25           2232        1713.00      7465.71
   68.81        2956.50           2236        1753.00      7640.17
   68.84        2956.75           2239        1769.00      7709.95
   68.87        2957.00           2243        1773.00      7727.40
   68.90        2957.25           2246        1796.00      7827.72
   68.93        2957.50           2250        1840.00      8019.62
   68.96        2957.75           2254        1789.00      7797.18
   68.99        2958.00           2257        1894.00      8255.15
   69.02        2958.25           2261        1874.00      8167.92
   69.05        2958.50           2264        1933.00      8425.26
   69.08        2958.75           2268        1906.00      8307.49
   69.11        2959.00           2271        1891.00      8242.07
   69.14        2959.25           2275        1933.00      8425.26
   69.17        2959.50           2278        1989.00      8669.51
   69.20        2959.75           2282        1988.00      8665.15
   69.23        2960.00           2285        2053.00      8948.67
   69.27        2960.25           2289        2097.00      9140.59
   69.30        2960.50           2293        2107.00      9184.21
   69.33        2960.75           2296        2181.00      9507.00
   69.36        2961.00           2300        2510.00     10942.17
   69.39        2961.25           2303        3945.00     17203.61
   69.42        2961.50           2307       12998.00     56766.83
   69.45        2961.75           2310       27041.00    118348.90
   69.48        2962.00           2314       52103.00    228898.30
   69.51        2962.25           2317       71714.00    315988.80
   69.54        2962.50           2321       97137.00    429667.20
   69.57        2962.75           2324      117454.00    521155.00
   69.60        2963.00           2328      147938.00    659511.50
   69.63        2963.25           2331      171340.00    766625.60
   69.66        2963.50           2335      199955.00    898684.20
   69.69        2963.75           2339      226479.00   1022178.00
   69.72        2964.00           2342      246968.00   1118301.00
   69.75        2964.25           2346      275416.00   1252835.00
   69.79        2964.50           2349      297608.00   1358664.00
   69.82        2964.75           2353      325294.00   1491796.00
   69.85        2965.00           2356      345295.00   1588749.00
   69.88        2965.25           2360      371161.00   1715116.00
   69.91        2965.50           2363      388535.00   1800628.00
   69.94        2965.75           2367      412509.00   1919474.00
   69.97        2966.00           2370      432580.00   2019741.00
   70.00        2966.25           2374      456230.00   2138806.00
   70.03        2966.50           2378      472614.00   2221881.00
   70.06        2966.75           2381      476587.00   2242100.00
   70.09        2967.00           2385      478761.00   2253176.00
   70.12        2967.25           2388      480043.00   2259711.00
   70.15        2967.50           2392      478263.00   2250638.00
   70.18        2967.75           2395      478041.00   2249507.00
   70.21        2968.00           2399      471069.00   2214026.00
   70.24        2968.25           2402      458156.00   2148546.00
   70.27        2968.50           2406      434846.00   2031106.00
   70.30        2968.75           2409      415208.00   1932916.00
   70.34        2969.00           2413      388687.00   1801378.00
   70.37        2969.25           2417      363363.00   1676901.00
   70.40        2969.50           2420      344368.00   1584241.00
   70.43        2969.75           2424      315579.00   1444939.00
   70.46        2970.00           2427      291838.00   1331073.00
   70.49        2970.25           2431      259452.00   1177185.00
   70.52        2970.50           2434      237232.00   1072545.00
   70.55        2970.75           2438      208861.00    940032.40
   70.58        2971.00           2441      186271.00    835382.30
   70.61        2971.25           2445      158290.00    706796.60
   70.65        2971.50           2449      130458.00    580015.00
   70.69        2971.75           2452      107187.00    474850.80
   70.72        2972.00           2456       76369.00    336737.50
   70.75        2972.25           2459       55366.00    243353.10
   70.78        2972.50           2463       29679.00    129946.00
   70.81        2972.75           2466       14871.00     64965.49
   70.84        2973.00           2470        5234.00     22830.27
   70.87        2973.25           2473        3069.00     13380.98
   70.90        2973.50           2477        2319.00     10108.97
   70.93        2973.75           2481        2152.00      9380.50
   70.96        2974.00           2484        2143.00      9341.24
   70.99        2974.25           2488        2114.00      9214.74
   71.02        2974.50           2491        2029.00      8843.98
   71.05        2974.75           2495        2031.00      8852.71
   71.08        2975.00           2498        2007.00      8748.02
   71.12        2975.25           2502        2007.00      8748.02
   71.15        2975.50           2505        1947.00      8486.32
   71.18        2975.75           2509        1917.00      8355.47
   71.21        2976.00           2512        2008.00      8752.39
   71.24        2976.25           2516        1868.00      8141.75
   71.27        2976.50           2520        1867.00      8137.39
   71.30        2976.75           2523        1864.00      8124.30
   71.33        2977.00           2527        1763.00      7683.79
   71.36        2977.25           2530        1775.00      7736.12
   71.39        2977.50           2534        1754.00      7644.53
   71.42        2977.75           2537        1749.00      7622.73
   71.45        2978.00           2541        1719.00      7491.88
   71.48        2978.25           2544        1721.00      7500.61
   71.51        2978.50           2548        1707.00      7439.55
   71.54        2978.75           2552        1710.00      7452.63
   71.57        2979.00           2555        1683.00      7334.87
   71.60        2979.25           2559        1667.00      7265.09
   71.64        2979.50           2562        1645.00      7169.14
   71.67        2979.75           2566        1635.00      7125.53
   71.70        2980.00           2569        1643.00      7160.42
   71.73        2980.25           2573        1621.00      7064.47
   71.76        2980.50           2577        1588.00      6920.55
   71.79        2980.75           2580        1597.00      6959.80
   71.82        2981.00           2584        1562.00      6807.16
   71.85        2981.25           2587        1558.00      6789.71
   71.88        2981.50           2591        1548.00      6746.10
   71.91        2981.75           2594        1540.00      6711.21
   71.94        2982.00           2598        1516.00      6606.54
   71.97        2982.25           2601        1596.00      6955.44
   72.00        2982.50           2605        1520.00      6623.99
   72.03        2982.75           2609        1545.00      6733.01
   72.06        2983.00           2612        1576.00      6868.21
   72.09        2983.25           2616        1558.00      6789.71
   72.12        2983.50           2619        1499.00      6532.40
   72.16        2983.75           2623        1509.00      6576.01
   72.19        2984.00           2626        1519.00      6619.62
HS scan finished at 01:12:24
end
************************************************************
  HS Scan of (1) Internal mercury lamp
************************************************************
Integration time is 0.2294 seconds per sample
dh200419Reading 51.44 .94 3.86pr1000
************************************************************
Dead Time -------------------------  3.4E-08 
Number of Cycles Used -------------  4 
Starting Wavelength (Angstroms) ---  2950 
Final Wavelength (Angstoms) -------  2984 
Wavelength Increment (Angstroms) --  .25 
Filter Wheel #1 Position ---------- (1) Ground quartz diffuser (ND=2.32)
Filter Wheel #2 Position ---------- (1) Neutral Density 0.494



************************************************************
HS scan start time = 20:07:26
Dark Count =  6.4 


Time (GMT)  Wavelength (Ang)  Step Number  Raw Counts  Counts/Second

 1208.34        2950.00           2144        1280.00      5552.92
 1208.53        2950.25           2147        1244.00      5395.93
 1208.56        2950.50           2151        1248.00      5413.38
 1208.59        2950.75           2155        1268.00      5500.59
 1208.62        2951.00           2158        1291.00      5600.89
 1208.65        2951.25           2162        1279.00      5548.56
 1208.68        2951.50           2165        1284.00      5570.37
 1208.71        2951.75           2169        1278.00      5544.20
 1208.74        2952.00           2172        1252.00      5430.82
 1208.77        2952.25           2176        1303.00      5653.22
 1208.80        2952.50           2179        1303.00      5653.22
 1208.84        2952.75           2183        1309.00      5679.39
 1208.87        2953.00           2186        1296.00      5622.70
 1208.90        2953.25           2190        1343.00      5827.66
 1208.93        2953.50           2193        1359.00      5897.43
 1208.96        2953.75           2197        1306.00      5666.31
 1208.99        2954.00           2200        1370.00      5945.40
 1209.02        2954.25           2204        1371.00      5949.76
 1209.05        2954.50           2208        1351.00      5862.55
 1209.08        2954.75           2211        1356.00      5884.35
 1209.11        2955.00           2215        1348.00      5849.46
 1209.14        2955.25           2218        1401.00      6080.59
 1209.17        2955.50           2222        1390.00      6032.62
 1209.20        2955.75           2225        1423.00      6176.54
 1209.23        2956.00           2229        1407.00      6106.76
 1209.26        2956.25           2232        1442.00      6259.40
 1209.29        2956.50           2236        1431.00      6211.43
 1209.32        2956.75           2239        1425.00      6185.26
 1209.36        2957.00           2243        1486.00      6451.28
 1209.39        2957.25           2246        1485.00      6446.92
 1209.42        2957.50           2250        1456.00      6320.45
 1209.45        2957.75           2254        1470.00      6381.51
 1209.48        2958.00           2257        1503.00      6525.42
 1209.51        2958.25           2261        1531.00      6647.54
 1209.54        2958.50           2264        1472.00      6390.23
 1209.57        2958.75           2268        1590.00      6904.85
 1209.60        2959.00           2271        1592.00      6913.57
 1209.64        2959.25           2275        1611.00      6996.43
 1209.67        2959.50           2278        1606.00      6974.63
 1209.70        2959.75           2282        1677.00      7284.28
 1209.73        2960.00           2285        1682.00      7306.09
 1209.76        2960.25           2289        1745.00      7580.85
 1209.79        2960.50           2293        1745.00      7580.85
 1209.82        2960.75           2296        1769.00      7685.53
 1209.85        2961.00           2300        1895.00      8235.09
 1209.88        2961.25           2303        2092.00      9094.36
 1209.91        2961.50           2307        4605.00     20059.89
 1209.94        2961.75           2310       11683.00     50988.93
 1209.97        2962.00           2314       30148.00    131984.10
 1210.00        2962.25           2317       47983.00    210642.70
 1210.04        2962.50           2321       70095.00    308754.30
 1210.07        2962.75           2324       88976.00    393053.90
 1210.10        2963.00           2328      118846.00    527418.80
 1210.13        2963.25           2331      141474.00    630038.00
 1210.16        2963.50           2335      169959.00    760256.90
 1210.19        2963.75           2339      196581.00    883024.40
 1210.22        2964.00           2342      214848.00    967868.90
 1210.25        2964.25           2346      241169.00   1091004.00
 1210.28        2964.50           2349      262055.00   1189466.00
 1210.31        2964.75           2353      288066.00   1313038.00
 1210.34        2965.00           2356      305121.00   1394642.00
 1210.37        2965.25           2360      328609.00   1507793.00
 1210.40        2965.50           2363      347335.00   1598648.00
 1210.43        2965.75           2367      373295.00   1725564.00
 1210.46        2966.00           2370      391168.00   1813604.00
 1210.49        2966.25           2374      412847.00   1921128.00
 1210.52        2966.50           2378      427556.00   1994549.00
 1210.56        2966.75           2381      433550.00   2024577.00
 1210.59        2967.00           2385      435774.00   2035735.00
 1210.62        2967.25           2388      436375.00   2038752.00
 1210.65        2967.50           2392      435675.00   2035238.00
 1210.68        2967.75           2395      436003.00   2036884.00
 1210.71        2968.00           2399      430562.00   2009600.00
 1210.74        2968.25           2402      418655.00   1950074.00
 1210.77        2968.50           2406      398168.00   1848234.00
 1210.80        2968.75           2409      381310.00   1764978.00
 1210.83        2969.00           2413      357430.00   1647867.00
 1210.86        2969.25           2417      332667.00   1527433.00
 1210.89        2969.50           2420      315115.00   1442678.00
 1210.92        2969.75           2424      288761.00   1316354.00
 1210.95        2970.00           2427      269212.00   1223362.00
 1210.98        2970.25           2431      244514.00   1106728.00
 1211.01        2970.50           2434      225779.00   1018879.00
 1211.04        2970.75           2438      200098.00    899321.20
 1211.07        2971.00           2441      178847.00    801128.50
 1211.11        2971.25           2445      152880.00    682040.40
 1211.14        2971.50           2449      127483.00    566502.80
 1211.17        2971.75           2452      109695.00    486123.10
 1211.20        2972.00           2456       83820.00    369985.20
 1211.23        2972.25           2459       63700.00    280311.90
 1211.26        2972.50           2463       35629.00    156112.40
 1211.29        2972.75           2466       19726.00     86213.99
 1211.32        2973.00           2470        6585.00     28705.42
 1211.35        2973.25           2473        3181.00     13845.23
 1211.38        2973.50           2477        2075.00      9020.20
 1211.41        2973.75           2481        1887.00      8200.19
 1211.44        2974.00           2484        1854.00      8056.26
 1211.47        2974.25           2488        1788.00      7768.40
 1211.50        2974.50           2491        1786.00      7759.68
 1211.53        2974.75           2495        1774.00      7707.34
 1211.56        2975.00           2498        1689.00      7336.62
 1211.59        2975.25           2502        1670.00      7253.75
 1211.63        2975.50           2505        1682.00      7306.09
 1211.66        2975.75           2509        1597.00      6935.38
 1211.69        2976.00           2512        1580.00      6861.23
 1211.72        2976.25           2516        1593.00      6917.93
 1211.75        2976.50           2520        1560.00      6774.01
 1211.78        2976.75           2523        1516.00      6582.12
 1211.81        2977.00           2527        1521.00      6603.92
 1211.84        2977.25           2530        1502.00      6521.06
 1211.87        2977.50           2534        1464.00      6355.34
 1211.90        2977.75           2537        1453.00      6307.37
 1211.93        2978.00           2541        1437.00      6237.59
 1211.96        2978.25           2544        1447.00      6281.20
 1211.99        2978.50           2548        1420.00      6163.45
 1212.02        2978.75           2552        1384.00      6006.46
 1212.05        2979.00           2555        1418.00      6154.73
 1212.08        2979.25           2559        1405.00      6098.04
 1212.11        2979.50           2562        1391.00      6036.98
 1212.15        2979.75           2566        1318.00      5718.64
 1212.18        2980.00           2569        1389.00      6028.26
 1212.21        2980.25           2573        1342.00      5823.30
 1212.24        2980.50           2577        1343.00      5827.66
 1212.27        2980.75           2580        1274.00      5526.76
 1212.30        2981.00           2584        1313.00      5696.83
 1212.33        2981.25           2587        1349.00      5853.82
 1212.36        2981.50           2591        1312.00      5692.47
 1212.39        2981.75           2594        1305.00      5661.94
 1212.42        2982.00           2598        1283.00      5566.01
 1212.45        2982.25           2601        1301.00      5644.50
 1212.48        2982.50           2605        1292.00      5605.25
 1212.51        2982.75           2609        1287.00      5583.45
 1212.54        2983.00           2612        1272.00      5518.04
 1212.57        2983.25           2616        1237.00      5365.41
 1212.60        2983.50           2619        1267.00      5496.23
 1212.63        2983.75           2623        1229.00      5330.52
 1212.67        2984.00           2626        1270.00      5509.31
HS scan finished at 20:12:53
end
