************************************************************
  HS Scan of (1) Internal mercury lamp
************************************************************
Integration time is 0.2294 seconds per sample
dh210418Reading 51.44 .94 3.47pr1000
************************************************************
Dead Time -------------------------  3.4E-08 
Number of Cycles Used -------------  4 
Starting Wavelength (Angstroms) ---  2950 
Final Wavelength (Angstoms) -------  2984 
Wavelength Increment (Angstroms) --  .25 
Filter Wheel #1 Position ---------- (1) Ground quartz diffuser (ND=2.32)
Filter Wheel #2 Position ---------- (1) Neutral Density 0.494



************************************************************
HS scan start time = 01:06:37
Dark Count =  2.2 


Time (GMT)  Wavelength (Ang)  Step Number  Raw Counts  Counts/Second

   67.52        2950.00           2144          64.00       269.40
   67.72        2950.25           2147          53.00       221.45
   67.75        2950.50           2151          60.00       251.96
   67.78        2950.75           2155          59.00       247.60
   67.81        2951.00           2158          59.00       247.60
   67.84        2951.25           2162          60.00       251.96
   67.87        2951.50           2165          54.00       225.81
   67.90        2951.75           2169          62.00       260.68
   67.93        2952.00           2172          59.00       247.60
   67.96        2952.25           2176          61.00       256.32
   67.99        2952.50           2179          64.00       269.40
   68.02        2952.75           2183          58.00       243.25
   68.05        2953.00           2186          65.00       273.76
   68.08        2953.25           2190          64.00       269.40
   68.11        2953.50           2193          54.00       225.81
   68.14        2953.75           2197          63.00       265.04
   68.18        2954.00           2200          76.00       321.71
   68.21        2954.25           2204          63.00       265.04
   68.24        2954.50           2208          62.00       260.68
   68.27        2954.75           2211          73.00       308.63
   68.30        2955.00           2215          59.00       247.60
   68.33        2955.25           2218          66.00       278.12
   68.36        2955.50           2222          69.00       291.20
   68.39        2955.75           2225          65.00       273.76
   68.42        2956.00           2229          71.00       299.92
   68.45        2956.25           2232          70.00       295.56
   68.48        2956.50           2236          60.00       251.96
   68.51        2956.75           2239          69.00       291.20
   68.54        2957.00           2243          75.00       317.35
   68.57        2957.25           2246          74.00       312.99
   68.60        2957.50           2250          69.00       291.20
   68.63        2957.75           2254          69.00       291.20
   68.66        2958.00           2257          74.00       312.99
   68.70        2958.25           2261          79.00       334.79
   68.73        2958.50           2264          76.00       321.71
   68.76        2958.75           2268          75.00       317.35
   68.79        2959.00           2271          71.00       299.92
   68.82        2959.25           2275          83.00       352.23
   68.85        2959.50           2278          81.00       343.51
   68.88        2959.75           2282          82.00       347.87
   68.91        2960.00           2285          94.00       400.18
   68.94        2960.25           2289          85.00       360.95
   68.97        2960.50           2293          91.00       387.10
   69.00        2960.75           2296          88.00       374.02
   69.03        2961.00           2300         144.00       618.15
   69.06        2961.25           2303         402.00      1742.91
   69.09        2961.50           2307        1228.00      5344.48
   69.12        2961.75           2310        2073.00      9029.80
   69.15        2962.00           2314        3218.00     14025.00
   69.18        2962.25           2317        4112.00     17926.35
   69.21        2962.50           2321        5239.00     22845.99
   69.25        2962.75           2324        6149.00     26819.56
   69.28        2963.00           2328        7644.00     33349.91
   69.31        2963.25           2331        8818.00     38480.13
   69.34        2963.50           2335       10233.00     44665.87
   69.37        2963.75           2339       11558.00     50460.52
   69.40        2964.00           2342       12486.00     54520.33
   69.43        2964.25           2346       13862.00     60542.11
   69.46        2964.50           2349       14976.00     65419.10
   69.49        2964.75           2353       16263.00     71055.50
   69.52        2965.00           2356       17270.00     75467.16
   69.55        2965.25           2360       18458.00     80673.47
   69.58        2965.50           2363       19386.00     84741.63
   69.61        2965.75           2367       20788.00     90889.86
   69.64        2966.00           2370       21627.00     94570.38
   69.67        2966.25           2374       22679.00     99186.59
   69.70        2966.50           2378       23023.00    100696.40
   69.74        2966.75           2381       23207.00    101504.00
   69.77        2967.00           2385       23268.00    101771.80
   69.80        2967.25           2388       23310.00    101956.10
   69.83        2967.50           2392       23179.00    101381.10
   69.86        2967.75           2395       23062.00    100867.60
   69.89        2968.00           2399       22132.00     96786.16
   69.92        2968.25           2402       21066.00     92109.29
   69.95        2968.50           2406       19885.00     86929.61
   69.98        2968.75           2409       18991.00     83009.90
   70.01        2969.00           2413       17536.00     76632.72
   70.04        2969.25           2417       16302.00     71226.33
   70.07        2969.50           2420       15411.00     67323.94
   70.10        2969.75           2424       14045.00     61343.15
   70.13        2970.00           2427       13100.00     57207.07
   70.16        2970.25           2431       11645.00     50841.08
   70.19        2970.50           2434       10507.00     45863.97
   70.22        2970.75           2438        8973.00     39157.59
   70.25        2971.00           2441        7942.00     34651.96
   70.29        2971.25           2445        6536.00     28509.75
   70.32        2971.50           2449        5216.00     22745.57
   70.35        2971.75           2452        4199.00     18306.07
   70.38        2972.00           2456        2806.00     12227.40
   70.41        2972.25           2459        1908.00      8310.11
   70.44        2972.50           2463         923.00      4014.50
   70.47        2972.75           2466         420.00      1821.39
   70.50        2973.00           2470         154.00       661.74
   70.53        2973.25           2473         110.00       469.93
   70.56        2973.50           2477          93.00       395.82
   70.59        2973.75           2481          94.00       400.18
   70.62        2974.00           2484          97.00       413.26
   70.65        2974.25           2488          84.00       356.59
   70.68        2974.50           2491          96.00       408.90
   70.71        2974.75           2495          90.00       382.74
   70.74        2975.00           2498          94.00       400.18
   70.77        2975.25           2502          80.00       339.15
   70.81        2975.50           2505          80.00       339.15
   70.84        2975.75           2509          74.00       312.99
   70.87        2976.00           2512          88.00       374.02
   70.90        2976.25           2516          78.00       330.43
   70.93        2976.50           2520          79.00       334.79
   70.96        2976.75           2523          77.00       326.07
   70.99        2977.00           2527          77.00       326.07
   71.02        2977.25           2530          71.00       299.92
   71.05        2977.50           2534          79.00       334.79
   71.08        2977.75           2537          77.00       326.07
   71.11        2978.00           2541          67.00       282.48
   71.14        2978.25           2544          82.00       347.87
   71.17        2978.50           2548          72.00       304.28
   71.20        2978.75           2552          71.00       299.92
   71.23        2979.00           2555          68.00       286.84
   71.26        2979.25           2559          71.00       299.92
   71.30        2979.50           2562          64.00       269.40
   71.33        2979.75           2566          76.00       321.71
   71.36        2980.00           2569          64.00       269.40
   71.39        2980.25           2573          65.00       273.76
   71.42        2980.50           2577          65.00       273.76
   71.45        2980.75           2580          65.00       273.76
   71.48        2981.00           2584          63.00       265.04
   71.51        2981.25           2587          56.00       234.53
   71.54        2981.50           2591          69.00       291.20
   71.57        2981.75           2594          66.00       278.12
   71.60        2982.00           2598          57.00       238.89
   71.63        2982.25           2601          61.00       256.32
   71.66        2982.50           2605          62.00       260.68
   71.69        2982.75           2609          67.00       282.48
   71.72        2983.00           2612          61.00       256.32
   71.75        2983.25           2616          59.00       247.60
   71.78        2983.50           2619          65.00       273.76
   71.81        2983.75           2623          66.00       278.12
   71.85        2984.00           2626          64.00       269.40
HS scan finished at 01:12:04
end
************************************************************
  HS Scan of (1) Internal mercury lamp
************************************************************
Integration time is 0.2294 seconds per sample
dh210418Reading 51.44 .94 3.82pr1000
************************************************************
Dead Time -------------------------  3.4E-08 
Number of Cycles Used -------------  4 
Starting Wavelength (Angstroms) ---  2950 
Final Wavelength (Angstoms) -------  2984 
Wavelength Increment (Angstroms) --  .25 
Filter Wheel #1 Position ---------- (1) Ground quartz diffuser (ND=2.32)
Filter Wheel #2 Position ---------- (1) Neutral Density 0.494



************************************************************
HS scan start time = 20:07:29
Dark Count =  5.9 


Time (GMT)  Wavelength (Ang)  Step Number  Raw Counts  Counts/Second

 1208.38        2950.00           2144          43.00       161.73
 1208.57        2950.25           2147          46.00       174.80
 1208.60        2950.50           2151          40.00       148.65
 1208.63        2950.75           2155          46.00       174.80
 1208.66        2951.00           2158          44.00       166.09
 1208.69        2951.25           2162          35.00       126.85
 1208.73        2951.50           2165          41.00       153.01
 1208.76        2951.75           2169          46.00       174.80
 1208.79        2952.00           2172          43.00       161.73
 1208.82        2952.25           2176          45.00       170.45
 1208.85        2952.50           2179          45.00       170.45
 1208.88        2952.75           2183          40.00       148.65
 1208.91        2953.00           2186          52.00       200.96
 1208.94        2953.25           2190          50.00       192.24
 1208.97        2953.50           2193          49.00       187.88
 1209.00        2953.75           2197          40.00       148.65
 1209.03        2954.00           2200          46.00       174.80
 1209.06        2954.25           2204          47.00       179.16
 1209.09        2954.50           2208          52.00       200.96
 1209.12        2954.75           2211          46.00       174.80
 1209.15        2955.00           2215          43.00       161.73
 1209.18        2955.25           2218          45.00       170.45
 1209.21        2955.50           2222          48.00       183.52
 1209.25        2955.75           2225          53.00       205.32
 1209.28        2956.00           2229          48.00       183.52
 1209.31        2956.25           2232          51.00       196.60
 1209.34        2956.50           2236          45.00       170.45
 1209.37        2956.75           2239          53.00       205.32
 1209.40        2957.00           2243          57.00       222.76
 1209.43        2957.25           2246          48.00       183.52
 1209.46        2957.50           2250          46.00       174.80
 1209.49        2957.75           2254          52.00       200.96
 1209.52        2958.00           2257          49.00       187.88
 1209.55        2958.25           2261          55.00       214.04
 1209.58        2958.50           2264          56.00       218.40
 1209.61        2958.75           2268          58.00       227.12
 1209.64        2959.00           2271          49.00       187.88
 1209.67        2959.25           2275          54.00       209.68
 1209.70        2959.50           2278          49.00       187.88
 1209.73        2959.75           2282          46.00       174.80
 1209.76        2960.00           2285          58.00       227.12
 1209.80        2960.25           2289          61.00       240.19
 1209.83        2960.50           2293          61.00       240.19
 1209.86        2960.75           2296          61.00       240.19
 1209.89        2961.00           2300          93.00       379.69
 1209.92        2961.25           2303         191.00       806.91
 1209.95        2961.50           2307         607.00      2620.55
 1209.98        2961.75           2310        1094.00      4744.01
 1210.01        2962.00           2314        1833.00      7966.85
 1210.04        2962.25           2317        2405.00     10461.87
 1210.07        2962.50           2321        3237.00     14091.76
 1210.10        2962.75           2324        3993.00     17390.84
 1210.13        2963.00           2328        4773.00     20795.43
 1210.16        2963.25           2331        5339.00     23266.44
 1210.19        2963.50           2335        6124.00     26694.23
 1210.22        2963.75           2339        7057.00     30769.31
 1210.25        2964.00           2342        7796.00     33997.87
 1210.29        2964.25           2346        8582.00     37432.53
 1210.32        2964.50           2349        9131.00     39832.02
 1210.35        2964.75           2353        9996.00     43613.45
 1210.38        2965.00           2356       10925.00     47675.74
 1210.41        2965.25           2360       11791.00     51463.56
 1210.44        2965.50           2363       12219.00     53335.96
 1210.47        2965.75           2367       12831.00     56013.73
 1210.50        2966.00           2370       13527.00     59059.63
 1210.53        2966.25           2374       13904.00     60709.75
 1210.56        2966.50           2378       14281.00     62360.07
 1210.59        2966.75           2381       14309.00     62482.64
 1210.62        2967.00           2385       14207.00     62036.12
 1210.65        2967.25           2388       14153.00     61799.73
 1210.68        2967.50           2392       14343.00     62631.49
 1210.71        2967.75           2395       14409.00     62920.43
 1210.74        2968.00           2399       13739.00     59987.53
 1210.77        2968.25           2402       13131.00     57326.54
 1210.81        2968.50           2406       12618.00     55081.71
 1210.84        2968.75           2409       11993.00     52347.23
 1210.87        2969.00           2413       11180.00     48790.99
 1210.90        2969.25           2417       10260.00     44767.74
 1210.93        2969.50           2420        9589.00     41834.09
 1210.96        2969.75           2424        8817.00     38459.59
 1210.99        2970.00           2427        8185.00     35697.62
 1211.02        2970.25           2431        7386.00     32206.57
 1211.05        2970.50           2434        6539.00     28506.69
 1211.08        2970.75           2438        5762.00     25113.42
 1211.11        2971.00           2441        5163.00     22498.02
 1211.14        2971.25           2445        4273.00     18612.91
 1211.17        2971.50           2449        3643.00     15863.40
 1211.20        2971.75           2452        2885.00     12555.93
 1211.23        2972.00           2456        2098.00      9122.71
 1211.26        2972.25           2459        1550.00      6732.58
 1211.29        2972.50           2463         809.00      3501.29
 1211.32        2972.75           2466         407.00      1748.58
 1211.36        2973.00           2470         115.00       475.60
 1211.39        2973.25           2473          71.00       283.79
 1211.42        2973.50           2477          68.00       270.71
 1211.45        2973.75           2481          66.00       261.99
 1211.48        2974.00           2484          55.00       214.04
 1211.51        2974.25           2488          60.00       235.83
 1211.54        2974.50           2491          65.00       257.63
 1211.57        2974.75           2495          66.00       261.99
 1211.60        2975.00           2498          59.00       231.48
 1211.63        2975.25           2502          55.00       214.04
 1211.66        2975.50           2505          61.00       240.19
 1211.69        2975.75           2509          54.00       209.68
 1211.72        2976.00           2512          53.00       205.32
 1211.75        2976.25           2516          57.00       222.76
 1211.78        2976.50           2520          56.00       218.40
 1211.81        2976.75           2523          52.00       200.96
 1211.84        2977.00           2527          55.00       214.04
 1211.88        2977.25           2530          52.00       200.96
 1211.91        2977.50           2534          53.00       205.32
 1211.94        2977.75           2537          54.00       209.68
 1211.97        2978.00           2541          47.00       179.16
 1212.00        2978.25           2544          56.00       218.40
 1212.03        2978.50           2548          53.00       205.32
 1212.06        2978.75           2552          50.00       192.24
 1212.09        2979.00           2555          51.00       196.60
 1212.12        2979.25           2559          52.00       200.96
 1212.15        2979.50           2562          52.00       200.96
 1212.18        2979.75           2566          50.00       192.24
 1212.21        2980.00           2569          48.00       183.52
 1212.24        2980.25           2573          53.00       205.32
 1212.27        2980.50           2577          46.00       174.80
 1212.30        2980.75           2580          48.00       183.52
 1212.33        2981.00           2584          44.00       166.09
 1212.36        2981.25           2587          48.00       183.52
 1212.40        2981.50           2591          44.00       166.09
 1212.43        2981.75           2594          44.00       166.09
 1212.46        2982.00           2598          37.00       135.57
 1212.49        2982.25           2601          42.00       157.37
 1212.52        2982.50           2605          41.00       153.01
 1212.55        2982.75           2609          47.00       179.16
 1212.58        2983.00           2612          41.00       153.01
 1212.61        2983.25           2616          45.00       170.45
 1212.64        2983.50           2619          38.00       139.93
 1212.67        2983.75           2623          48.00       183.52
 1212.70        2984.00           2626          45.00       170.45
HS scan finished at 20:12:56
end
