************************************************************
  HS Scan of (1) Internal mercury lamp
************************************************************
Integration time is 0.2294 seconds per sample
dh220419Reading 51.44 .94 3.23pr1000
************************************************************
Dead Time -------------------------  3.4E-08 
Number of Cycles Used -------------  4 
Starting Wavelength (Angstroms) ---  2950 
Final Wavelength (Angstoms) -------  2984 
Wavelength Increment (Angstroms) --  .25 
Filter Wheel #1 Position ---------- (1) Ground quartz diffuser (ND=2.32)
Filter Wheel #2 Position ---------- (1) Neutral Density 0.494



************************************************************
HS scan start time = 01:11:24
Dark Count =  1.2 


Time (GMT)  Wavelength (Ang)  Step Number  Raw Counts  Counts/Second

   72.30        2950.00           2144        1554.00      6770.52
   72.50        2950.25           2147        1584.00      6901.36
   72.53        2950.50           2151        1557.00      6783.61
   72.56        2950.75           2155        1594.00      6944.97
   72.59        2951.00           2158        1589.00      6923.16
   72.63        2951.25           2162        1561.00      6801.05
   72.67        2951.50           2165        1568.00      6831.58
   72.70        2951.75           2169        1581.00      6888.27
   72.73        2952.00           2172        1602.00      6979.86
   72.76        2952.25           2176        1610.00      7014.75
   72.79        2952.50           2179        1598.00      6962.42
   72.82        2952.75           2183        1582.00      6892.64
   72.85        2953.00           2186        1571.00      6844.66
   72.88        2953.25           2190        1637.00      7132.51
   72.91        2953.50           2193        1623.00      7071.45
   72.94        2953.75           2197        1670.00      7276.43
   72.97        2954.00           2200        1663.00      7245.90
   73.00        2954.25           2204        1650.00      7189.20
   73.03        2954.50           2208        1648.00      7180.48
   73.06        2954.75           2211        1698.00      7398.55
   73.09        2955.00           2215        1716.00      7477.05
   73.13        2955.25           2218        1706.00      7433.44
   73.16        2955.50           2222        1722.00      7503.22
   73.20        2955.75           2225        1709.00      7446.52
   73.23        2956.00           2229        1704.00      7424.72
   73.26        2956.25           2232        1738.00      7573.01
   73.29        2956.50           2236        1744.00      7599.17
   73.32        2956.75           2239        1778.00      7747.46
   73.35        2957.00           2243        1776.00      7738.74
   73.38        2957.25           2246        1790.00      7799.80
   73.42        2957.50           2250        1801.00      7847.78
   73.45        2957.75           2254        1780.00      7756.19
   73.48        2958.00           2257        1833.00      7987.35
   73.51        2958.25           2261        1869.00      8144.37
   73.54        2958.50           2264        1909.00      8318.83
   73.57        2958.75           2268        1889.00      8231.60
   73.60        2959.00           2271        1930.00      8410.43
   73.63        2959.25           2275        1947.00      8484.58
   73.66        2959.50           2278        1942.00      8462.77
   73.69        2959.75           2282        2001.00      8720.11
   73.72        2960.00           2285        2013.00      8772.45
   73.75        2960.25           2289        2044.00      8907.67
   73.78        2960.50           2293        2127.00      9269.70
   73.81        2960.75           2296        2168.00      9448.55
   73.84        2961.00           2300        2231.00      9723.35
   73.87        2961.25           2303        2691.00     11730.05
   73.90        2961.50           2307        6648.00     29003.30
   73.94        2961.75           2310       15536.00     67875.73
   73.97        2962.00           2314       34437.00    150884.50
   74.00        2962.25           2317       53901.00    236859.70
   74.03        2962.50           2321       83072.00    366664.80
   74.06        2962.75           2324      104178.00    461306.20
   74.09        2963.00           2328      132742.00    590375.80
   74.12        2963.25           2331      152476.00    680219.00
   74.15        2963.50           2335      181675.00    814181.30
   74.18        2963.75           2339      211658.00    953040.60
   74.21        2964.00           2342      232910.00   1052278.00
   74.24        2964.25           2346      261423.00   1186502.00
   74.27        2964.50           2349      282417.00   1286136.00
   74.30        2964.75           2353      311703.00   1426286.00
   74.33        2965.00           2356      334583.00   1536740.00
   74.36        2965.25           2360      364308.00   1681525.00
   74.39        2965.50           2363      383605.00   1776309.00
   74.42        2965.75           2367      407690.00   1895503.00
   74.46        2966.00           2370      426414.00   1988861.00
   74.49        2966.25           2374      451258.00   2113689.00
   74.52        2966.50           2378      467296.00   2194861.00
   74.55        2966.75           2381      473362.00   2225683.00
   74.58        2967.00           2385      474488.00   2231412.00
   74.61        2967.25           2388      475112.00   2234588.00
   74.64        2967.50           2392      475136.00   2234710.00
   74.67        2967.75           2395      473882.00   2228329.00
   74.70        2968.00           2399      465701.00   2186767.00
   74.73        2968.25           2402      451774.00   2116294.00
   74.76        2968.50           2406      424892.00   1981249.00
   74.79        2968.75           2409      410411.00   1909032.00
   74.82        2969.00           2413      386182.00   1789015.00
   74.85        2969.25           2417      361402.00   1667306.00
   74.88        2969.50           2420      343076.00   1577958.00
   74.91        2969.75           2424      317033.00   1451941.00
   74.94        2970.00           2427      294295.00   1342814.00
   74.98        2970.25           2431      262532.00   1191748.00
   75.01        2970.50           2434      239832.00   1084748.00
   75.04        2970.75           2438      209886.00    944796.90
   75.07        2971.00           2441      189614.00    850819.50
   75.10        2971.25           2445      163338.00    729908.60
   75.13        2971.50           2449      135522.00    602998.80
   75.16        2971.75           2452      112660.00    499513.80
   75.19        2972.00           2456       82259.00    363031.40
   75.22        2972.25           2459       61443.00    270309.90
   75.25        2972.50           2463       35751.00    156672.80
   75.28        2972.75           2466       19392.00     84772.33
   75.31        2973.00           2470        6808.00     29702.17
   75.34        2973.25           2473        3512.00     15312.24
   75.37        2973.50           2477        2387.00     10403.85
   75.40        2973.75           2481        2255.00      9828.05
   75.43        2974.00           2484        2108.00      9186.83
   75.46        2974.25           2488        2156.00      9396.20
   75.50        2974.50           2491        2049.00      8929.48
   75.53        2974.75           2495        2019.00      8798.62
   75.56        2975.00           2498        2003.00      8728.83
   75.59        2975.25           2502        2021.00      8807.35
   75.62        2975.50           2505        1948.00      8488.94
   75.65        2975.75           2509        1966.00      8567.45
   75.68        2976.00           2512        1880.00      8192.34
   75.71        2976.25           2516        1863.00      8118.20
   75.74        2976.50           2520        1877.00      8179.26
   75.77        2976.75           2523        1843.00      8030.96
   75.80        2977.00           2527        1816.00      7913.20
   75.83        2977.25           2530        1779.00      7751.82
   75.86        2977.50           2534        1808.00      7878.31
   75.89        2977.75           2537        1768.00      7703.85
   75.92        2978.00           2541        1741.00      7586.09
   75.95        2978.25           2544        1772.00      7721.29
   75.98        2978.50           2548        1699.00      7402.91
   76.02        2978.75           2552        1739.00      7577.37
   76.05        2979.00           2555        1659.00      7228.46
   76.08        2979.25           2559        1662.00      7241.54
   76.11        2979.50           2562        1642.00      7154.31
   76.14        2979.75           2566        1616.00      7040.92
   76.17        2980.00           2569        1627.00      7088.89
   76.20        2980.25           2573        1602.00      6979.86
   76.23        2980.50           2577        1588.00      6918.80
   76.26        2980.75           2580        1617.00      7045.28
   76.29        2981.00           2584        1625.00      7080.17
   76.32        2981.25           2587        1587.00      6914.44
   76.35        2981.50           2591        1612.00      7023.47
   76.38        2981.75           2594        1571.00      6844.66
   76.41        2982.00           2598        1572.00      6849.02
   76.44        2982.25           2601        1531.00      6670.21
   76.47        2982.50           2605        1543.00      6722.55
   76.50        2982.75           2609        1557.00      6783.61
   76.53        2983.00           2612        1563.00      6809.77
   76.57        2983.25           2616        1536.00      6692.02
   76.60        2983.50           2619        1493.00      6504.49
   76.63        2983.75           2623        1486.00      6473.96
   76.66        2984.00           2626        1496.00      6517.57
HS scan finished at 01:16:53
end
