************************************************************
  HS Scan of 
************************************************************
Integration time is 0.2294 seconds per sample
dh220417Reading 51.44 .94 3.19pr1000
************************************************************
Dead Time -------------------------  3.4E-08 
Number of Cycles Used -------------  4 
Starting Wavelength (Angstroms) ---  2950 
Final Wavelength (Angstoms) -------  2984 
Wavelength Increment (Angstroms) --  .25 
Filter Wheel #1 Position ---------- (1) Ground quartz diffuser (ND=2.32)
Filter Wheel #2 Position ---------- (1) Neutral Density 0.494



************************************************************
HS scan start time = 01:11:07
Dark Count =  1.4 


Time (GMT)  Wavelength (Ang)  Step Number  Raw Counts  Counts/Second

   72.02        2950.00           2144         659.00      2866.89
   72.21        2950.25           2147         650.00      2827.65
   72.24        2950.50           2151         685.00      2980.25
   72.27        2950.75           2155         654.00      2845.09
   72.30        2951.00           2158         644.00      2801.49
   72.33        2951.25           2162         626.00      2723.01
   72.36        2951.50           2165         666.00      2897.41
   72.39        2951.75           2169         675.00      2936.65
   72.42        2952.00           2172         676.00      2941.01
   72.46        2952.25           2176         681.00      2962.81
   72.49        2952.50           2179         669.00      2910.49
   72.52        2952.75           2183         700.00      3045.65
   72.55        2953.00           2186         697.00      3032.57
   72.58        2953.25           2190         676.00      2941.01
   72.61        2953.50           2193         691.00      3006.41
   72.64        2953.75           2197         717.00      3119.77
   72.67        2954.00           2200         696.00      3028.21
   72.70        2954.25           2204         689.00      2997.69
   72.73        2954.50           2208         710.00      3089.25
   72.76        2954.75           2211         688.00      2993.33
   72.79        2955.00           2215         711.00      3093.61
   72.82        2955.25           2218         717.00      3119.77
   72.85        2955.50           2222         717.00      3119.77
   72.88        2955.75           2225         716.00      3115.41
   72.91        2956.00           2229         760.00      3307.26
   72.94        2956.25           2232         708.00      3080.53
   72.97        2956.50           2236         760.00      3307.26
   73.01        2956.75           2239         721.00      3137.21
   73.04        2957.00           2243         768.00      3342.14
   73.07        2957.25           2246         752.00      3272.38
   73.10        2957.50           2250         771.00      3355.22
   73.13        2957.75           2254         810.00      3525.27
   73.16        2958.00           2257         793.00      3451.15
   73.19        2958.25           2261         796.00      3464.23
   73.22        2958.50           2264         803.00      3494.75
   73.25        2958.75           2268         820.00      3568.87
   73.28        2959.00           2271         820.00      3568.87
   73.31        2959.25           2275         834.00      3629.92
   73.34        2959.50           2278         820.00      3568.87
   73.37        2959.75           2282         860.00      3743.28
   73.40        2960.00           2285         854.00      3717.12
   73.43        2960.25           2289         908.00      3952.58
   73.46        2960.50           2293         929.00      4044.15
   73.49        2960.75           2296         936.00      4074.67
   73.53        2961.00           2300        1038.00      4519.44
   73.56        2961.25           2303        1569.00      6835.07
   73.59        2961.50           2307        5478.00     23892.99
   73.62        2961.75           2310       12009.00     52436.91
   73.65        2962.00           2314       23268.00    101775.30
   73.68        2962.25           2317       33019.00    144639.80
   73.71        2962.50           2321       46964.00    206159.30
   73.74        2962.75           2324       56180.00    246958.60
   73.77        2963.00           2328       68467.00    301530.70
   73.80        2963.25           2331       77964.00    343851.00
   73.83        2963.50           2335       91623.00    404933.50
   73.86        2963.75           2339      106197.00    470390.90
   73.89        2964.00           2342      117031.00    519241.60
   73.92        2964.25           2346      129969.00    577794.50
   73.95        2964.50           2349      139750.00    622216.80
   73.98        2964.75           2353      151887.00    677528.50
   74.01        2965.00           2356      161322.00    720672.40
   74.05        2965.25           2360      174025.00    778963.10
   74.08        2965.50           2363      183360.00    821948.90
   74.11        2965.75           2367      195451.00    877815.40
   74.14        2966.00           2370      204337.00    919011.10
   74.17        2966.25           2374      215191.00    969490.10
   74.20        2966.50           2378      221474.00    998791.20
   74.23        2966.75           2381      222661.00   1004334.00
   74.26        2967.00           2385      223518.00   1008336.00
   74.29        2967.25           2388      223282.00   1007234.00
   74.32        2967.50           2392      223232.00   1007001.00
   74.35        2967.75           2395      222336.00   1002816.00
   74.38        2968.00           2399      217304.00    979337.60
   74.41        2968.25           2402      209994.00    945298.20
   74.44        2968.50           2406      200457.00    901008.90
   74.47        2968.75           2409      192281.00    863147.60
   74.50        2969.00           2413      179798.00    805531.50
   74.53        2969.25           2417      165658.00    740542.90
   74.57        2969.50           2420      156292.00    697655.50
   74.60        2969.75           2424      143599.00    639735.00
   74.63        2970.00           2427      134996.00    600608.60
   74.66        2970.25           2431      121967.00    541552.40
   74.69        2970.50           2434      111407.00    493862.50
   74.72        2970.75           2438       97478.00    431195.30
   74.75        2971.00           2441       87211.00    385175.30
   74.78        2971.25           2445       74205.00    327085.50
   74.81        2971.50           2449       61169.00    269092.50
   74.84        2971.75           2452       51491.00    226186.20
   74.87        2972.00           2456       38011.00    166632.80
   74.90        2972.25           2459       29004.00    126975.10
   74.93        2972.50           2463       16269.00     71085.29
   74.96        2972.75           2466        8202.00     35791.57
   74.99        2973.00           2470        2331.00     10158.70
   75.02        2973.25           2473        1226.00      5339.24
   75.05        2973.50           2477         996.00      4336.30
   75.09        2973.75           2481         970.00      4222.93
   75.12        2974.00           2484         937.00      4079.03
   75.15        2974.25           2488         928.00      4039.79
   75.18        2974.50           2491         894.00      3891.54
   75.21        2974.75           2495         890.00      3874.09
   75.24        2975.00           2498         854.00      3717.12
   75.27        2975.25           2502         860.00      3743.28
   75.30        2975.50           2505         836.00      3638.64
   75.33        2975.75           2509         840.00      3656.08
   75.36        2976.00           2512         835.00      3634.28
   75.39        2976.25           2516         800.00      3481.67
   75.42        2976.50           2520         776.00      3377.02
   75.45        2976.75           2523         770.00      3350.86
   75.48        2977.00           2527         788.00      3429.34
   75.51        2977.25           2530         795.00      3459.87
   75.54        2977.50           2534         802.00      3490.39
   75.57        2977.75           2537         770.00      3350.86
   75.61        2978.00           2541         807.00      3512.19
   75.64        2978.25           2544         742.00      3228.78
   75.67        2978.50           2548         736.00      3202.62
   75.70        2978.75           2552         734.00      3193.90
   75.73        2979.00           2555         749.00      3259.30
   75.76        2979.25           2559         734.00      3193.90
   75.79        2979.50           2562         721.00      3137.21
   75.82        2979.75           2566         712.00      3097.97
   75.85        2980.00           2569         724.00      3150.29
   75.88        2980.25           2573         692.00      3010.77
   75.91        2980.50           2577         717.00      3119.77
   75.94        2980.75           2580         694.00      3019.49
   75.97        2981.00           2584         670.00      2914.85
   76.00        2981.25           2587         692.00      3010.77
   76.03        2981.50           2591         689.00      2997.69
   76.06        2981.75           2594         686.00      2984.61
   76.09        2982.00           2598         661.00      2875.61
   76.13        2982.25           2601         665.00      2893.05
   76.16        2982.50           2605         674.00      2932.29
   76.19        2982.75           2609         655.00      2849.45
   76.22        2983.00           2612         670.00      2914.85
   76.25        2983.25           2616         665.00      2893.05
   76.28        2983.50           2619         634.00      2757.89
   76.31        2983.75           2623         661.00      2875.61
   76.34        2984.00           2626         674.00      2932.29
HS scan finished at 01:16:34
end
************************************************************
  HS Scan of 
************************************************************
Integration time is 0.2294 seconds per sample
dh220417Reading 51.44 .94 3.39pr1000
************************************************************
Dead Time -------------------------  3.4E-08 
Number of Cycles Used -------------  4 
Starting Wavelength (Angstroms) ---  2950 
Final Wavelength (Angstoms) -------  2984 
Wavelength Increment (Angstroms) --  .25 
Filter Wheel #1 Position ---------- (1) Ground quartz diffuser (ND=2.32)
Filter Wheel #2 Position ---------- (1) Neutral Density 0.494



************************************************************
HS scan start time = 20:07:27
Dark Count =  3 


Time (GMT)  Wavelength (Ang)  Step Number  Raw Counts  Counts/Second

 1208.35        2950.00           2144         628.00      2724.75
 1208.55        2950.25           2147         650.00      2820.67
 1208.58        2950.50           2151         625.00      2711.67
 1208.61        2950.75           2155         661.00      2868.63
 1208.64        2951.00           2158         645.00      2798.87
 1208.67        2951.25           2162         643.00      2790.15
 1208.70        2951.50           2165         666.00      2890.43
 1208.73        2951.75           2169         654.00      2838.11
 1208.76        2952.00           2172         677.00      2938.39
 1208.79        2952.25           2176         677.00      2938.39
 1208.82        2952.50           2179         648.00      2811.95
 1208.85        2952.75           2183         684.00      2968.91
 1208.88        2953.00           2186         687.00      2981.99
 1208.91        2953.25           2190         668.00      2899.15
 1208.94        2953.50           2193         711.00      3086.64
 1208.97        2953.75           2197         704.00      3056.12
 1209.00        2954.00           2200         643.00      2790.15
 1209.03        2954.25           2204         703.00      3051.76
 1209.06        2954.50           2208         692.00      3003.79
 1209.10        2954.75           2211         668.00      2899.15
 1209.13        2955.00           2215         716.00      3108.44
 1209.16        2955.25           2218         698.00      3029.95
 1209.19        2955.50           2222         711.00      3086.64
 1209.22        2955.75           2225         684.00      2968.91
 1209.25        2956.00           2229         723.00      3138.96
 1209.28        2956.25           2232         742.00      3221.80
 1209.31        2956.50           2236         778.00      3378.77
 1209.34        2956.75           2239         752.00      3265.40
 1209.37        2957.00           2243         743.00      3226.16
 1209.40        2957.25           2246         758.00      3291.56
 1209.43        2957.50           2250         760.00      3300.28
 1209.46        2957.75           2254         773.00      3356.97
 1209.49        2958.00           2257         753.00      3269.76
 1209.52        2958.25           2261         785.00      3409.29
 1209.55        2958.50           2264         771.00      3348.25
 1209.58        2958.75           2268         799.00      3470.33
 1209.62        2959.00           2271         822.00      3570.62
 1209.65        2959.25           2275         851.00      3697.06
 1209.68        2959.50           2278         830.00      3605.50
 1209.71        2959.75           2282         818.00      3553.18
 1209.74        2960.00           2285         842.00      3657.82
 1209.77        2960.25           2289         882.00      3832.23
 1209.80        2960.50           2293         913.00      3967.41
 1209.83        2960.75           2296         926.00      4024.09
 1209.86        2961.00           2300        1089.00      4734.85
 1209.89        2961.25           2303        1772.00      7713.44
 1209.92        2961.50           2307        6616.00     28855.67
 1209.95        2961.75           2310       13521.00     59046.07
 1209.98        2962.00           2314       24447.00    106944.40
 1210.01        2962.25           2317       33443.00    146499.50
 1210.04        2962.50           2321       45219.00    198439.90
 1210.07        2962.75           2324       53517.00    235150.70
 1210.10        2963.00           2328       65161.00    286820.10
 1210.14        2963.25           2331       75475.00    332740.60
 1210.17        2963.50           2335       89205.00    394094.50
 1210.20        2963.75           2339      101891.00    451013.30
 1210.23        2964.00           2342      111041.00    492205.10
 1210.26        2964.25           2346      123664.00    549223.60
 1210.29        2964.50           2349      132701.00    590181.50
 1210.32        2964.75           2353      146436.00    652653.50
 1210.35        2965.00           2356      155146.00    692409.30
 1210.38        2965.25           2360      165631.00    740411.70
 1210.41        2965.50           2363      173548.00    776762.80
 1210.44        2965.75           2367      186139.00    834762.80
 1210.47        2966.00           2370      195240.00    876831.20
 1210.50        2966.25           2374      205868.00    926113.30
 1210.53        2966.50           2378      212424.00    956597.30
 1210.56        2966.75           2381      213894.00    963441.40
 1210.59        2967.00           2385      213851.00    963241.10
 1210.62        2967.25           2388      214571.00    966594.40
 1210.66        2967.50           2392      214327.00    965457.90
 1210.69        2967.75           2395      213597.00    962058.30
 1210.72        2968.00           2399      210170.00    946109.40
 1210.75        2968.25           2402      202784.00    911795.60
 1210.78        2968.50           2406      191048.00    857439.00
 1210.81        2968.75           2409      182202.00    816602.20
 1210.84        2969.00           2413      171825.00    768843.80
 1210.87        2969.25           2417      160573.00    717235.40
 1210.90        2969.50           2420      151769.00    676982.50
 1210.93        2969.75           2424      138545.00    616729.50
 1210.96        2970.00           2427      127112.00    564837.30
 1210.99        2970.25           2431      113093.00    501459.00
 1211.02        2970.50           2434      104377.00    462193.40
 1211.05        2970.75           2438       91984.00    406544.20
 1211.08        2971.00           2441       82413.00    363711.50
 1211.11        2971.25           2445       69868.00    307759.00
 1211.14        2971.50           2449       56566.00    248662.80
 1211.18        2971.75           2452       46705.00    205007.30
 1211.21        2972.00           2456       33976.00    148846.40
 1211.24        2972.25           2459       25136.00    109970.10
 1211.27        2972.50           2463       13732.00     59969.59
 1211.30        2972.75           2466        7098.00     30961.09
 1211.33        2973.00           2470        2418.00     10531.23
 1211.36        2973.25           2473        1278.00      5559.03
 1211.39        2973.50           2477        1004.00      4364.20
 1211.42        2973.75           2481         924.00      4015.37
 1211.45        2974.00           2484         928.00      4032.81
 1211.48        2974.25           2488         887.00      3854.04
 1211.51        2974.50           2491         874.00      3797.35
 1211.54        2974.75           2495         903.00      3923.80
 1211.57        2975.00           2498         834.00      3622.94
 1211.60        2975.25           2502         813.00      3531.37
 1211.63        2975.50           2505         818.00      3553.18
 1211.66        2975.75           2509         845.00      3670.90
 1211.70        2976.00           2512         804.00      3492.13
 1211.73        2976.25           2516         776.00      3370.05
 1211.76        2976.50           2520         783.00      3400.57
 1211.79        2976.75           2523         800.00      3474.69
 1211.82        2977.00           2527         742.00      3221.80
 1211.85        2977.25           2530         781.00      3391.85
 1211.88        2977.50           2534         698.00      3029.95
 1211.91        2977.75           2537         748.00      3247.96
 1211.94        2978.00           2541         739.00      3208.72
 1211.97        2978.25           2544         763.00      3313.36
 1212.00        2978.50           2548         712.00      3091.00
 1212.03        2978.75           2552         702.00      3047.40
 1212.06        2979.00           2555         724.00      3143.32
 1212.09        2979.25           2559         698.00      3029.95
 1212.12        2979.50           2562         686.00      2977.63
 1212.15        2979.75           2566         670.00      2907.87
 1212.18        2980.00           2569         688.00      2986.35
 1212.22        2980.25           2573         659.00      2859.91
 1212.25        2980.50           2577         683.00      2964.55
 1212.28        2980.75           2580         688.00      2986.35
 1212.31        2981.00           2584         670.00      2907.87
 1212.34        2981.25           2587         674.00      2925.31
 1212.37        2981.50           2591         647.00      2807.59
 1212.40        2981.75           2594         659.00      2859.91
 1212.43        2982.00           2598         668.00      2899.15
 1212.46        2982.25           2601         690.00      2995.07
 1212.49        2982.50           2605         654.00      2838.11
 1212.52        2982.75           2609         643.00      2790.15
 1212.55        2983.00           2612         628.00      2724.75
 1212.58        2983.25           2616         669.00      2903.51
 1212.61        2983.50           2619         651.00      2825.03
 1212.64        2983.75           2623         658.00      2855.55
 1212.67        2984.00           2626         631.00      2737.83
HS scan finished at 20:12:54
end
