************************************************************
  HS Scan of (1) Internal mercury lamp
************************************************************
Integration time is 0.2294 seconds per sample
dh230418Reading 51.44 .94 2.98pr1000
************************************************************
Dead Time -------------------------  3.4E-08 
Number of Cycles Used -------------  4 
Starting Wavelength (Angstroms) ---  2950 
Final Wavelength (Angstoms) -------  2984 
Wavelength Increment (Angstroms) --  .25 
Filter Wheel #1 Position ---------- (1) Ground quartz diffuser (ND=2.32)
Filter Wheel #2 Position ---------- (1) Neutral Density 0.494



************************************************************
HS scan start time = 01:14:29
Dark Count =  .7 


Time (GMT)  Wavelength (Ang)  Step Number  Raw Counts  Counts/Second

   75.39        2950.00           2144          84.00       363.13
   75.58        2950.25           2147          87.00       376.20
   75.61        2950.50           2151          86.00       371.84
   75.65        2950.75           2155          92.00       398.00
   75.68        2951.00           2158          79.00       341.33
   75.71        2951.25           2162          85.00       367.49
   75.74        2951.50           2165          89.00       384.92
   75.77        2951.75           2169          85.00       367.49
   75.80        2952.00           2172          83.00       358.77
   75.83        2952.25           2176          88.00       380.56
   75.86        2952.50           2179          90.00       389.28
   75.89        2952.75           2183          85.00       367.49
   75.92        2953.00           2186          90.00       389.28
   75.95        2953.25           2190          88.00       380.56
   75.98        2953.50           2193          87.00       376.20
   76.01        2953.75           2197          90.00       389.28
   76.04        2954.00           2200          92.00       398.00
   76.07        2954.25           2204         116.00       502.62
   76.10        2954.50           2208          88.00       380.56
   76.13        2954.75           2211          91.00       393.64
   76.17        2955.00           2215          94.00       406.72
   76.20        2955.25           2218          94.00       406.72
   76.23        2955.50           2222         113.00       489.55
   76.26        2955.75           2225         103.00       445.95
   76.29        2956.00           2229          97.00       419.80
   76.32        2956.25           2232          90.00       389.28
   76.35        2956.50           2236          95.00       411.08
   76.38        2956.75           2239         102.00       441.59
   76.41        2957.00           2243          94.00       406.72
   76.44        2957.25           2246          97.00       419.80
   76.47        2957.50           2250         121.00       524.42
   76.50        2957.75           2254         111.00       480.83
   76.53        2958.00           2257         103.00       445.95
   76.56        2958.25           2261         124.00       537.50
   76.59        2958.50           2264          97.00       419.80
   76.62        2958.75           2268         157.00       681.36
   76.65        2959.00           2271         109.00       472.11
   76.69        2959.25           2275         105.00       454.67
   76.72        2959.50           2278         133.00       576.73
   76.75        2959.75           2282         152.00       659.56
   76.78        2960.00           2285         111.00       480.83
   76.81        2960.25           2289         133.00       576.73
   76.84        2960.50           2293         148.00       642.12
   76.87        2960.75           2296         140.00       607.25
   76.90        2961.00           2300         151.00       655.20
   76.93        2961.25           2303         287.00      1248.09
   76.96        2961.50           2307         918.00      3999.24
   76.99        2961.75           2310        1824.00      7950.28
   77.02        2962.00           2314        3241.00     14131.90
   77.05        2962.25           2317        4479.00     19534.76
   77.08        2962.50           2321        6159.00     26869.78
   77.11        2962.75           2324        7525.00     32836.56
   77.14        2963.00           2328        9312.00     40645.93
   77.17        2963.25           2331       10702.00     46723.26
   77.21        2963.50           2335       12411.00     54198.74
   77.24        2963.75           2339       14463.00     63179.60
   77.27        2964.00           2342       15803.00     69047.26
   77.30        2964.25           2346       17656.00     77165.13
   77.33        2964.50           2349       18908.00     82652.62
   77.36        2964.75           2353       20743.00     90699.06
   77.39        2965.00           2356       22087.00     96595.28
   77.42        2965.25           2360       23793.00    104083.00
   77.45        2965.50           2363       25395.00    111117.80
   77.48        2965.75           2367       26869.00    117593.50
   77.51        2966.00           2370       28162.00    123276.30
   77.54        2966.25           2374       29419.00    128803.00
   77.57        2966.50           2378       30324.00    132783.40
   77.60        2966.75           2381       30289.00    132629.40
   77.63        2967.00           2385       30460.00    133381.60
   77.66        2967.25           2388       30818.00    134956.60
   77.69        2967.50           2392       30567.00    133852.30
   77.73        2967.75           2395       30333.00    132823.00
   77.76        2968.00           2399       29129.00    127527.80
   77.79        2968.25           2402       28061.00    122832.30
   77.82        2968.50           2406       26386.00    115471.20
   77.85        2968.75           2409       25127.00    109940.70
   77.88        2969.00           2413       23366.00    102208.60
   77.91        2969.25           2417       21649.00     94673.49
   77.94        2969.50           2420       20311.00     88804.34
   77.97        2969.75           2424       18676.00     81635.61
   78.00        2970.00           2427       17572.00     76797.05
   78.03        2970.25           2431       15599.00     68153.83
   78.06        2970.50           2434       14204.00     62045.75
   78.09        2970.75           2438       11956.00     52208.12
   78.12        2971.00           2441       10570.00     46146.02
   78.15        2971.25           2445        8871.00     38718.33
   78.18        2971.50           2449        7280.00     31766.20
   78.21        2971.75           2452        5897.00     25725.63
   78.24        2972.00           2456        4115.00     17945.99
   78.28        2972.25           2459        2828.00     12329.93
   78.31        2972.50           2463        1451.00      6323.50
   78.34        2972.75           2466         714.00      3109.74
   78.37        2973.00           2470         241.00      1047.55
   78.40        2973.25           2473         148.00       642.12
   78.43        2973.50           2477         126.00       546.22
   78.46        2973.75           2481         149.00       646.48
   78.49        2974.00           2484         133.00       576.73
   78.52        2974.25           2488         156.00       677.00
   78.55        2974.50           2491         160.00       694.44
   78.58        2974.75           2495         122.00       528.78
   78.61        2975.00           2498         124.00       537.50
   78.64        2975.25           2502         134.00       581.09
   78.67        2975.50           2505         132.00       572.37
   78.70        2975.75           2509         120.00       520.06
   78.73        2976.00           2512         122.00       528.78
   78.76        2976.25           2516         121.00       524.42
   78.80        2976.50           2520         116.00       502.62
   78.83        2976.75           2523         102.00       441.59
   78.86        2977.00           2527         106.00       459.03
   78.89        2977.25           2530         100.00       432.87
   78.92        2977.50           2534         121.00       524.42
   78.95        2977.75           2537          99.00       428.52
   78.98        2978.00           2541          95.00       411.08
   79.01        2978.25           2544         105.00       454.67
   79.04        2978.50           2548          92.00       398.00
   79.07        2978.75           2552         114.00       493.91
   79.10        2979.00           2555          99.00       428.52
   79.13        2979.25           2559          87.00       376.20
   79.16        2979.50           2562          96.00       415.44
   79.19        2979.75           2566          93.00       402.36
   79.22        2980.00           2569          87.00       376.20
   79.25        2980.25           2573          88.00       380.56
   79.28        2980.50           2577          83.00       358.77
   79.32        2980.75           2580          88.00       380.56
   79.35        2981.00           2584         111.00       480.83
   79.38        2981.25           2587          90.00       389.28
   79.41        2981.50           2591          86.00       371.84
   79.44        2981.75           2594          82.00       354.41
   79.47        2982.00           2598          88.00       380.56
   79.50        2982.25           2601          86.00       371.84
   79.53        2982.50           2605          82.00       354.41
   79.56        2982.75           2609          81.00       350.05
   79.59        2983.00           2612          91.00       393.64
   79.62        2983.25           2616          84.00       363.13
   79.65        2983.50           2619          89.00       384.92
   79.68        2983.75           2623          87.00       376.20
   79.71        2984.00           2626          88.00       380.56
HS scan finished at 01:19:56
end
************************************************************
  HS Scan of (1) Internal mercury lamp
************************************************************
Integration time is 0.2294 seconds per sample
dh230418Reading 51.44 .94 3.33pr1000
************************************************************
Dead Time -------------------------  3.4E-08 
Number of Cycles Used -------------  4 
Starting Wavelength (Angstroms) ---  2950 
Final Wavelength (Angstoms) -------  2984 
Wavelength Increment (Angstroms) --  .25 
Filter Wheel #1 Position ---------- (1) Ground quartz diffuser (ND=2.32)
Filter Wheel #2 Position ---------- (1) Neutral Density 0.494



************************************************************
HS scan start time = 20:07:25
Dark Count =  1.5 


Time (GMT)  Wavelength (Ang)  Step Number  Raw Counts  Counts/Second

 1208.32        2950.00           2144          74.00       316.05
 1208.51        2950.25           2147          76.00       324.76
 1208.54        2950.50           2151          71.00       302.97
 1208.57        2950.75           2155          71.00       302.97
 1208.60        2951.00           2158          75.00       320.40
 1208.64        2951.25           2162          72.00       307.33
 1208.67        2951.50           2165          73.00       311.69
 1208.70        2951.75           2169          76.00       324.76
 1208.73        2952.00           2172          82.00       350.92
 1208.76        2952.25           2176          79.00       337.84
 1208.79        2952.50           2179          67.00       285.53
 1208.82        2952.75           2183          82.00       350.92
 1208.85        2953.00           2186          81.00       346.56
 1208.88        2953.25           2190          79.00       337.84
 1208.91        2953.50           2193          70.00       298.61
 1208.94        2953.75           2197          76.00       324.76
 1208.98        2954.00           2200          75.00       320.40
 1209.02        2954.25           2204          76.00       324.76
 1209.05        2954.50           2208          79.00       337.84
 1209.08        2954.75           2211          82.00       350.92
 1209.11        2955.00           2215          78.00       333.48
 1209.14        2955.25           2218          78.00       333.48
 1209.17        2955.50           2222          75.00       320.40
 1209.20        2955.75           2225          86.00       368.36
 1209.23        2956.00           2229          82.00       350.92
 1209.26        2956.25           2232          86.00       368.36
 1209.29        2956.50           2236          91.00       390.15
 1209.32        2956.75           2239          89.00       381.43
 1209.35        2957.00           2243          80.00       342.20
 1209.39        2957.25           2246          94.00       403.23
 1209.42        2957.50           2250          85.00       364.00
 1209.45        2957.75           2254          94.00       403.23
 1209.48        2958.00           2257          82.00       350.92
 1209.51        2958.25           2261          90.00       385.79
 1209.55        2958.50           2264          89.00       381.43
 1209.58        2958.75           2268          90.00       385.79
 1209.61        2959.00           2271         102.00       438.11
 1209.65        2959.25           2275          98.00       420.67
 1209.68        2959.50           2278         112.00       481.70
 1209.71        2959.75           2282         101.00       433.75
 1209.74        2960.00           2285         119.00       512.21
 1209.77        2960.25           2289         102.00       438.11
 1209.80        2960.50           2293         120.00       516.57
 1209.83        2960.75           2296         113.00       486.06
 1209.86        2961.00           2300         141.00       608.12
 1209.89        2961.25           2303         299.00      1296.92
 1209.92        2961.50           2307        1049.00      4566.97
 1209.95        2961.75           2310        1985.00      8649.01
 1209.98        2962.00           2314        3264.00     14228.77
 1210.01        2962.25           2317        4437.00     19347.95
 1210.04        2962.50           2321        5862.00     25569.30
 1210.07        2962.75           2324        6848.00     29875.58
 1210.10        2963.00           2328        8369.00     36520.91
 1210.13        2963.25           2331        9392.00     40992.15
 1210.17        2963.50           2335       11050.00     48241.66
 1210.20        2963.75           2339       12805.00     55919.21
 1210.23        2964.00           2342       13896.00     60694.00
 1210.26        2964.25           2346       15664.00     68434.99
 1210.29        2964.50           2349       16415.00     71724.40
 1210.32        2964.75           2353       18081.00     79024.16
 1210.35        2965.00           2356       19231.00     84065.13
 1210.38        2965.25           2360       20826.00     91059.61
 1210.41        2965.50           2363       21918.00     95850.22
 1210.44        2965.75           2367       23264.00    101757.30
 1210.47        2966.00           2370       23980.00    104900.50
 1210.50        2966.25           2374       25319.00    110780.50
 1210.53        2966.50           2378       25936.00    113490.70
 1210.56        2966.75           2381       26338.00    115256.80
 1210.59        2967.00           2385       26419.00    115612.70
 1210.62        2967.25           2388       26454.00    115766.50
 1210.65        2967.50           2392       26428.00    115652.20
 1210.69        2967.75           2395       26038.00    113938.80
 1210.72        2968.00           2399       25699.00    112449.60
 1210.75        2968.25           2402       25069.00    109682.50
 1210.78        2968.50           2406       23826.00    104224.40
 1210.81        2968.75           2409       22102.00     96657.58
 1210.84        2969.00           2413       20222.00     88410.52
 1210.87        2969.25           2417       18677.00     81636.49
 1210.90        2969.50           2420       17335.00     75755.03
 1210.93        2969.75           2424       16074.00     70230.71
 1210.96        2970.00           2427       15059.00     65785.60
 1210.99        2970.25           2431       13431.00     58658.73
 1211.02        2970.50           2434       12142.00     53018.33
 1211.05        2970.75           2438       10612.00     46326.18
 1211.08        2971.00           2441        9341.00     40769.20
 1211.11        2971.25           2445        7990.00     34864.76
 1211.14        2971.50           2449        6409.00     27958.13
 1211.17        2971.75           2452        5336.00     23272.55
 1211.21        2972.00           2456        3847.00     16772.86
 1211.24        2972.25           2459        2750.00     11986.14
 1211.27        2972.50           2463        1277.00      5561.21
 1211.30        2972.75           2466         575.00      2500.21
 1211.33        2973.00           2470         193.00       834.81
 1211.36        2973.25           2473         135.00       581.96
 1211.39        2973.50           2477         120.00       516.57
 1211.42        2973.75           2481         145.00       625.56
 1211.45        2974.00           2484          98.00       420.67
 1211.48        2974.25           2488         104.00       446.82
 1211.51        2974.50           2491         101.00       433.75
 1211.54        2974.75           2495         102.00       438.11
 1211.57        2975.00           2498          97.00       416.31
 1211.60        2975.25           2502         103.00       442.47
 1211.63        2975.50           2505          93.00       398.87
 1211.66        2975.75           2509         102.00       438.11
 1211.69        2976.00           2512         100.00       429.39
 1211.72        2976.25           2516          86.00       368.36
 1211.76        2976.50           2520          91.00       390.15
 1211.79        2976.75           2523          92.00       394.51
 1211.82        2977.00           2527          88.00       377.08
 1211.85        2977.25           2530          92.00       394.51
 1211.88        2977.50           2534          84.00       359.64
 1211.91        2977.75           2537          87.00       372.72
 1211.94        2978.00           2541          93.00       398.87
 1211.97        2978.25           2544          90.00       385.79
 1212.00        2978.50           2548          85.00       364.00
 1212.04        2978.75           2552          86.00       368.36
 1212.07        2979.00           2555          85.00       364.00
 1212.10        2979.25           2559          75.00       320.40
 1212.13        2979.50           2562          83.00       355.28
 1212.16        2979.75           2566          77.00       329.12
 1212.19        2980.00           2569          84.00       359.64
 1212.22        2980.25           2573          78.00       333.48
 1212.26        2980.50           2577          75.00       320.40
 1212.29        2980.75           2580          80.00       342.20
 1212.32        2981.00           2584          77.00       329.12
 1212.35        2981.25           2587          72.00       307.33
 1212.38        2981.50           2591          79.00       337.84
 1212.41        2981.75           2594          76.00       324.76
 1212.44        2982.00           2598          76.00       324.76
 1212.47        2982.25           2601          77.00       329.12
 1212.50        2982.50           2605          79.00       337.84
 1212.53        2982.75           2609          67.00       285.53
 1212.56        2983.00           2612          70.00       298.61
 1212.59        2983.25           2616          62.00       263.73
 1212.62        2983.50           2619          78.00       333.48
 1212.65        2983.75           2623          71.00       302.97
 1212.68        2984.00           2626          79.00       337.84
HS scan finished at 20:12:54
end
