************************************************************
  HS Scan of (1) Internal mercury lamp
************************************************************
Integration time is 0.2294 seconds per sample
dh220418Reading 51.44 .94 3.31pr1000
************************************************************
Dead Time -------------------------  3.4E-08 
Number of Cycles Used -------------  4 
Starting Wavelength (Angstroms) ---  2950 
Final Wavelength (Angstoms) -------  2984 
Wavelength Increment (Angstroms) --  .25 
Filter Wheel #1 Position ---------- (1) Ground quartz diffuser (ND=2.32)
Filter Wheel #2 Position ---------- (1) Neutral Density 0.494



************************************************************
HS scan start time = 01:11:13
Dark Count =  1.5 


Time (GMT)  Wavelength (Ang)  Step Number  Raw Counts  Counts/Second

   72.11        2950.00           2144          76.00       324.76
   72.31        2950.25           2147          77.00       329.12
   72.34        2950.50           2151          81.00       346.56
   72.37        2950.75           2155          82.00       350.92
   72.40        2951.00           2158          73.00       311.69
   72.43        2951.25           2162          82.00       350.92
   72.46        2951.50           2165          67.00       285.53
   72.49        2951.75           2169          73.00       311.69
   72.52        2952.00           2172          75.00       320.40
   72.55        2952.25           2176          79.00       337.84
   72.58        2952.50           2179          75.00       320.40
   72.61        2952.75           2183          83.00       355.28
   72.64        2953.00           2186          77.00       329.12
   72.67        2953.25           2190          84.00       359.64
   72.71        2953.50           2193          78.00       333.48
   72.74        2953.75           2197          81.00       346.56
   72.77        2954.00           2200          78.00       333.48
   72.80        2954.25           2204          80.00       342.20
   72.83        2954.50           2208          79.00       337.84
   72.86        2954.75           2211          72.00       307.33
   72.89        2955.00           2215          80.00       342.20
   72.92        2955.25           2218          90.00       385.79
   72.95        2955.50           2222          95.00       407.59
   72.98        2955.75           2225          85.00       364.00
   73.01        2956.00           2229          88.00       377.08
   73.04        2956.25           2232          88.00       377.08
   73.07        2956.50           2236          92.00       394.51
   73.10        2956.75           2239          83.00       355.28
   73.13        2957.00           2243          79.00       337.84
   73.16        2957.25           2246          84.00       359.64
   73.20        2957.50           2250          92.00       394.51
   73.23        2957.75           2254          97.00       416.31
   73.26        2958.00           2257          92.00       394.51
   73.29        2958.25           2261          97.00       416.31
   73.32        2958.50           2264         113.00       486.06
   73.35        2958.75           2268          92.00       394.51
   73.38        2959.00           2271          95.00       407.59
   73.41        2959.25           2275          99.00       425.03
   73.44        2959.50           2278          99.00       425.03
   73.47        2959.75           2282         100.00       429.39
   73.50        2960.00           2285         112.00       481.70
   73.53        2960.25           2289         121.00       520.93
   73.56        2960.50           2293         116.00       499.14
   73.59        2960.75           2296         105.00       451.18
   73.62        2961.00           2300         181.00       782.50
   73.65        2961.25           2303         427.00      1854.96
   73.68        2961.50           2307        1322.00      5757.45
   73.71        2961.75           2310        2192.00      9551.93
   73.75        2962.00           2314        3712.00     16183.71
   73.78        2962.25           2317        5010.00     21849.27
   73.81        2962.50           2321        6700.00     29229.12
   73.84        2962.75           2324        7859.00     34292.36
   73.87        2963.00           2328        9281.00     40506.93
   73.90        2963.25           2331       10652.00     46501.10
   73.93        2963.50           2335       12309.00     53748.97
   73.96        2963.75           2339       14262.00     62296.15
   73.99        2964.00           2342       15559.00     67975.15
   74.02        2964.25           2346       17108.00     74760.41
   74.05        2964.50           2349       18414.00     80483.68
   74.08        2964.75           2353       20043.00     87625.54
   74.11        2965.00           2356       21202.00     92708.94
   74.14        2965.25           2360       22719.00     99365.21
   74.17        2965.50           2363       23908.00    104584.40
   74.20        2965.75           2367       25688.00    112401.30
   74.23        2966.00           2370       26791.00    117247.20
   74.27        2966.25           2374       27677.00    121140.90
   74.30        2966.50           2378       28322.00    123976.10
   74.33        2966.75           2381       28514.00    124820.20
   74.36        2967.00           2385       28702.00    125646.80
   74.39        2967.25           2388       28411.00    124367.40
   74.42        2967.50           2392       28466.00    124609.20
   74.45        2967.75           2395       28186.00    123378.30
   74.48        2968.00           2399       27242.00    119229.10
   74.51        2968.25           2402       26362.00    115362.20
   74.54        2968.50           2406       24637.00    107785.30
   74.57        2968.75           2409       23449.00    102569.40
   74.60        2969.00           2413       21924.00     95876.55
   74.63        2969.25           2417       20401.00     89195.55
   74.66        2969.50           2420       19192.00     83894.15
   74.69        2969.75           2424       17405.00     76061.76
   74.72        2970.00           2427       16209.00     70822.04
   74.75        2970.25           2431       14431.00     63036.01
   74.79        2970.50           2434       13233.00     57792.18
   74.82        2970.75           2438       11577.00     50546.69
   74.85        2971.00           2441       10232.00     44664.55
   74.88        2971.25           2445        8418.00     36735.05
   74.91        2971.50           2449        6706.00     29255.33
   74.94        2971.75           2452        5482.00     23910.01
   74.97        2972.00           2456        4052.00     17667.54
   75.00        2972.25           2459        2874.00     12527.13
   75.03        2972.50           2463        1481.00      6450.85
   75.06        2972.75           2466         650.00      2827.21
   75.09        2973.00           2470         203.00       878.40
   75.12        2973.25           2473         133.00       573.25
   75.15        2973.50           2477         135.00       581.96
   75.18        2973.75           2481         166.00       717.11
   75.21        2974.00           2484         119.00       512.21
   75.24        2974.25           2488         130.00       560.17
   75.27        2974.50           2491         111.00       477.34
   75.31        2974.75           2495         103.00       442.47
   75.34        2975.00           2498         102.00       438.11
   75.37        2975.25           2502         122.00       525.29
   75.40        2975.50           2505          99.00       425.03
   75.43        2975.75           2509          93.00       398.87
   75.46        2976.00           2512          94.00       403.23
   75.49        2976.25           2516          93.00       398.87
   75.52        2976.50           2520         113.00       486.06
   75.55        2976.75           2523          97.00       416.31
   75.58        2977.00           2527          86.00       368.36
   75.61        2977.25           2530         100.00       429.39
   75.64        2977.50           2534          93.00       398.87
   75.67        2977.75           2537          94.00       403.23
   75.70        2978.00           2541          88.00       377.08
   75.73        2978.25           2544          90.00       385.79
   75.76        2978.50           2548          82.00       350.92
   75.79        2978.75           2552          88.00       377.08
   75.83        2979.00           2555          82.00       350.92
   75.86        2979.25           2559          86.00       368.36
   75.89        2979.50           2562          79.00       337.84
   75.92        2979.75           2566          72.00       307.33
   75.95        2980.00           2569          81.00       346.56
   75.98        2980.25           2573          77.00       329.12
   76.01        2980.50           2577          82.00       350.92
   76.04        2980.75           2580          85.00       364.00
   76.07        2981.00           2584          82.00       350.92
   76.10        2981.25           2587          79.00       337.84
   76.13        2981.50           2591          81.00       346.56
   76.16        2981.75           2594          78.00       333.48
   76.19        2982.00           2598          82.00       350.92
   76.22        2982.25           2601          88.00       377.08
   76.25        2982.50           2605          77.00       329.12
   76.28        2982.75           2609          76.00       324.76
   76.31        2983.00           2612          70.00       298.61
   76.35        2983.25           2616          77.00       329.12
   76.38        2983.50           2619          79.00       337.84
   76.41        2983.75           2623          79.00       337.84
   76.44        2984.00           2626          70.00       298.61
HS scan finished at 01:16:39
end
************************************************************
  HS Scan of (1) Internal mercury lamp
************************************************************
Integration time is 0.2294 seconds per sample
dh220418Reading 51.44 .94 3.35pr1000
************************************************************
Dead Time -------------------------  3.4E-08 
Number of Cycles Used -------------  4 
Starting Wavelength (Angstroms) ---  2950 
Final Wavelength (Angstoms) -------  2984 
Wavelength Increment (Angstroms) --  .25 
Filter Wheel #1 Position ---------- (1) Ground quartz diffuser (ND=2.32)
Filter Wheel #2 Position ---------- (1) Neutral Density 0.494



************************************************************
HS scan start time = 20:07:23
Dark Count =  2.2 


Time (GMT)  Wavelength (Ang)  Step Number  Raw Counts  Counts/Second

 1208.29        2950.00           2144          55.00       230.17
 1208.48        2950.25           2147          48.00       199.65
 1208.51        2950.50           2151          56.00       234.53
 1208.54        2950.75           2155          47.00       195.29
 1208.57        2951.00           2158          51.00       212.73
 1208.60        2951.25           2162          48.00       199.65
 1208.63        2951.50           2165          55.00       230.17
 1208.66        2951.75           2169          51.00       212.73
 1208.69        2952.00           2172          52.00       217.09
 1208.73        2952.25           2176          50.00       208.37
 1208.76        2952.50           2179          48.00       199.65
 1208.79        2952.75           2183          57.00       238.89
 1208.82        2953.00           2186          50.00       208.37
 1208.85        2953.25           2190          50.00       208.37
 1208.88        2953.50           2193          52.00       217.09
 1208.91        2953.75           2197          52.00       217.09
 1208.94        2954.00           2200          51.00       212.73
 1208.97        2954.25           2204          50.00       208.37
 1209.00        2954.50           2208          52.00       217.09
 1209.03        2954.75           2211          56.00       234.53
 1209.06        2955.00           2215          54.00       225.81
 1209.09        2955.25           2218          61.00       256.32
 1209.12        2955.50           2222          56.00       234.53
 1209.15        2955.75           2225          63.00       265.04
 1209.18        2956.00           2229          63.00       265.04
 1209.21        2956.25           2232          57.00       238.89
 1209.25        2956.50           2236          59.00       247.60
 1209.28        2956.75           2239          55.00       230.17
 1209.31        2957.00           2243          54.00       225.81
 1209.34        2957.25           2246          55.00       230.17
 1209.37        2957.50           2250          60.00       251.96
 1209.40        2957.75           2254          63.00       265.04
 1209.43        2958.00           2257          70.00       295.56
 1209.46        2958.25           2261          62.00       260.68
 1209.49        2958.50           2264          64.00       269.40
 1209.52        2958.75           2268          58.00       243.25
 1209.55        2959.00           2271          59.00       247.60
 1209.58        2959.25           2275          64.00       269.40
 1209.61        2959.50           2278          61.00       256.32
 1209.64        2959.75           2282          65.00       273.76
 1209.67        2960.00           2285          72.00       304.28
 1209.70        2960.25           2289          62.00       260.68
 1209.74        2960.50           2293          75.00       317.35
 1209.77        2960.75           2296          67.00       282.48
 1209.80        2961.00           2300          71.00       299.92
 1209.83        2961.25           2303         170.00       731.49
 1209.86        2961.50           2307         464.00      2013.22
 1209.89        2961.75           2310        1018.00      4428.74
 1209.92        2962.00           2314        1935.00      8427.87
 1209.95        2962.25           2317        2632.00     11468.29
 1209.98        2962.50           2321        3523.00     15355.88
 1210.01        2962.75           2324        4205.00     18332.26
 1210.04        2963.00           2328        5187.00     22618.96
 1210.07        2963.25           2331        6056.00     26413.43
 1210.10        2963.50           2335        6955.00     30339.91
 1210.13        2963.75           2339        8097.00     35329.25
 1210.16        2964.00           2342        8839.00     38571.91
 1210.19        2964.25           2346        9932.00     43349.82
 1210.22        2964.50           2349       10765.00     46992.20
 1210.26        2964.75           2353       11751.00     51304.76
 1210.29        2965.00           2356       12415.00     54209.68
 1210.32        2965.25           2360       13427.00     58638.15
 1210.35        2965.50           2363       14202.00     62030.43
 1210.38        2965.75           2367       15047.00     65729.99
 1210.41        2966.00           2370       15677.00     68488.86
 1210.44        2966.25           2374       16671.00     72842.78
 1210.47        2966.50           2378       17362.00     75870.28
 1210.50        2966.75           2381       17613.00     76970.15
 1210.53        2967.00           2385       17647.00     77119.13
 1210.56        2967.25           2388       17703.00     77364.53
 1210.59        2967.50           2392       17745.00     77548.58
 1210.62        2967.75           2395       17876.00     78122.66
 1210.65        2968.00           2399       17168.00     75020.24
 1210.68        2968.25           2402       16598.00     72522.99
 1210.71        2968.50           2406       15472.00     67591.08
 1210.74        2968.75           2409       14898.00     65077.57
 1210.77        2969.00           2413       14094.00     61557.65
 1210.81        2969.25           2417       13051.00     56992.64
 1210.84        2969.50           2420       12139.00     53002.15
 1210.87        2969.75           2424       11150.00     48675.96
 1210.90        2970.00           2427       10220.00     44609.03
 1210.93        2970.25           2431        9084.00     39642.76
 1210.96        2970.50           2434        8468.00     36950.49
 1210.99        2970.75           2438        7262.00     31681.01
 1211.02        2971.00           2441        6581.00     28706.29
 1211.05        2971.25           2445        5475.00     23876.40
 1211.08        2971.50           2449        4504.00     19637.34
 1211.11        2971.75           2452        3768.00     16425.04
 1211.14        2972.00           2456        2825.00     12310.30
 1211.17        2972.25           2459        2050.00      8929.48
 1211.20        2972.50           2463        1159.00      5043.59
 1211.23        2972.75           2466         579.00      2514.60
 1211.26        2973.00           2470         159.00       683.54
 1211.29        2973.25           2473          91.00       387.10
 1211.33        2973.50           2477          70.00       295.56
 1211.36        2973.75           2481          70.00       295.56
 1211.39        2974.00           2484          72.00       304.28
 1211.42        2974.25           2488          71.00       299.92
 1211.45        2974.50           2491          70.00       295.56
 1211.48        2974.75           2495          63.00       265.04
 1211.51        2975.00           2498          70.00       295.56
 1211.54        2975.25           2502          65.00       273.76
 1211.57        2975.50           2505          63.00       265.04
 1211.60        2975.75           2509          68.00       286.84
 1211.63        2976.00           2512          69.00       291.20
 1211.66        2976.25           2516          58.00       243.25
 1211.69        2976.50           2520          71.00       299.92
 1211.72        2976.75           2523          59.00       247.60
 1211.75        2977.00           2527          61.00       256.32
 1211.78        2977.25           2530          50.00       208.37
 1211.81        2977.50           2534          56.00       234.53
 1211.85        2977.75           2537          60.00       251.96
 1211.88        2978.00           2541          54.00       225.81
 1211.91        2978.25           2544          55.00       230.17
 1211.94        2978.50           2548          56.00       234.53
 1211.97        2978.75           2552          49.00       204.01
 1212.00        2979.00           2555          55.00       230.17
 1212.03        2979.25           2559          53.00       221.45
 1212.06        2979.50           2562          56.00       234.53
 1212.09        2979.75           2566          56.00       234.53
 1212.12        2980.00           2569          53.00       221.45
 1212.15        2980.25           2573          59.00       247.60
 1212.18        2980.50           2577          55.00       230.17
 1212.21        2980.75           2580          54.00       225.81
 1212.24        2981.00           2584          55.00       230.17
 1212.27        2981.25           2587          51.00       212.73
 1212.30        2981.50           2591          49.00       204.01
 1212.33        2981.75           2594          48.00       199.65
 1212.37        2982.00           2598          52.00       217.09
 1212.40        2982.25           2601          45.00       186.57
 1212.43        2982.50           2605          49.00       204.01
 1212.46        2982.75           2609          51.00       212.73
 1212.49        2983.00           2612          49.00       204.01
 1212.52        2983.25           2616          48.00       199.65
 1212.55        2983.50           2619          49.00       204.01
 1212.58        2983.75           2623          48.00       199.65
 1212.61        2984.00           2626          50.00       208.37
HS scan finished at 20:12:50
end
