************************************************************
  HS Scan of 
************************************************************
Integration time is 0.2294 seconds per sample
dh280417Reading 51.44 .94 2.86pr1000
************************************************************
Dead Time -------------------------  3.4E-08 
Number of Cycles Used -------------  4 
Starting Wavelength (Angstroms) ---  2950 
Final Wavelength (Angstoms) -------  2984 
Wavelength Increment (Angstroms) --  .25 
Filter Wheel #1 Position ---------- (1) Ground quartz diffuser (ND=2.32)
Filter Wheel #2 Position ---------- (1) Neutral Density 0.494



************************************************************
HS scan start time = 01:05:18
Dark Count =  .6 


Time (GMT)  Wavelength (Ang)  Step Number  Raw Counts  Counts/Second

   66.20        2950.00           2144         666.00      2900.90
   66.40        2950.25           2147         670.00      2918.34
   66.43        2950.50           2151         657.00      2861.66
   66.46        2950.75           2155         680.00      2961.94
   66.49        2951.00           2158         679.00      2957.58
   66.52        2951.25           2162         664.00      2892.18
   66.55        2951.50           2165         700.00      3049.14
   66.58        2951.75           2169         705.00      3070.94
   66.61        2952.00           2172         698.00      3040.42
   66.64        2952.25           2176         694.00      3022.98
   66.67        2952.50           2179         713.00      3105.82
   66.70        2952.75           2183         703.00      3062.22
   66.73        2953.00           2186         710.00      3092.74
   66.76        2953.25           2190         708.00      3084.02
   66.80        2953.50           2193         719.00      3131.98
   66.83        2953.75           2197         723.00      3149.42
   66.86        2954.00           2200         707.00      3079.66
   66.89        2954.25           2204         719.00      3131.98
   66.92        2954.50           2208         701.00      3053.50
   66.95        2954.75           2211         723.00      3149.42
   66.98        2955.00           2215         723.00      3149.42
   67.01        2955.25           2218         720.00      3136.34
   67.04        2955.50           2222         734.00      3197.38
   67.07        2955.75           2225         798.00      3476.44
   67.10        2956.00           2229         747.00      3254.07
   67.13        2956.25           2232         763.00      3323.83
   67.16        2956.50           2236         790.00      3441.55
   67.19        2956.75           2239         786.00      3424.11
   67.22        2957.00           2243         789.00      3437.19
   67.25        2957.25           2246         791.00      3445.91
   67.28        2957.50           2250         798.00      3476.44
   67.32        2957.75           2254         822.00      3581.08
   67.35        2958.00           2257         805.00      3506.96
   67.38        2958.25           2261         824.00      3589.80
   67.42        2958.50           2264         823.00      3585.44
   67.45        2958.75           2268         837.00      3646.49
   67.48        2959.00           2271         841.00      3663.93
   67.51        2959.25           2275         851.00      3707.53
   67.54        2959.50           2278         846.00      3685.73
   67.58        2959.75           2282         876.00      3816.54
   67.61        2960.00           2285         874.00      3807.82
   67.64        2960.25           2289         894.00      3895.02
   67.67        2960.50           2293         922.00      4017.11
   67.70        2960.75           2296         971.00      4230.77
   67.73        2961.00           2300        1091.00      4754.04
   67.76        2961.25           2303        1682.00      7331.38
   67.79        2961.50           2307        6261.00     27315.68
   67.82        2961.75           2310       13500.00     58964.65
   67.85        2962.00           2314       24864.00    108786.10
   67.88        2962.25           2317       33516.00    146831.50
   67.91        2962.50           2321       45486.00    199630.30
   67.94        2962.75           2324       54662.00    240234.10
   67.97        2963.00           2328       68159.00    300163.80
   68.00        2963.25           2331       77914.00    343631.40
   68.03        2963.50           2335       90616.00    400425.10
   68.06        2963.75           2339      102016.00    451586.00
   68.10        2964.00           2342      111904.00    496107.10
   68.13        2964.25           2346      124877.00    554725.40
   68.16        2964.50           2349      135367.00    602297.50
   68.19        2964.75           2353      148899.00    663895.50
   68.22        2965.00           2356      157388.00    702671.30
   68.25        2965.25           2360      169679.00    758997.80
   68.28        2965.50           2363      178138.00    797890.60
   68.31        2965.75           2367      190274.00    853872.40
   68.34        2966.00           2370      198930.00    893933.90
   68.37        2966.25           2374      208662.00    939108.10
   68.40        2966.50           2378      216098.00    973720.10
   68.43        2966.75           2381      217566.00    980562.90
   68.46        2967.00           2385      217545.00    980464.90
   68.49        2967.25           2388      218413.00    984512.50
   68.52        2967.50           2392      218142.00    983248.60
   68.55        2967.75           2395      217005.00    977947.50
   68.58        2968.00           2399      213131.00    959899.80
   68.62        2968.25           2402      205521.00    924512.80
   68.65        2968.50           2406      194033.00    871256.10
   68.68        2968.75           2409      185237.00    830611.20
   68.71        2969.00           2413      173933.00    778544.00
   68.74        2969.25           2417      162876.00    727794.50
   68.77        2969.50           2420      153935.00    686886.30
   68.80        2969.75           2424      140414.00    625241.10
   68.83        2970.00           2427      130412.00    579807.20
   68.86        2970.25           2431      116847.00    518414.20
   68.89        2970.50           2434      106947.00    473771.00
   68.92        2970.75           2438       93106.00    411584.40
   68.95        2971.00           2441       83023.00    366448.50
   68.98        2971.25           2445       70240.00    309425.70
   69.01        2971.50           2449       57037.00    250761.80
   69.04        2971.75           2452       47245.00    207405.10
   69.07        2972.00           2456       35211.00    154296.40
   69.10        2972.25           2459       26251.00    114878.50
   69.13        2972.50           2463       14824.00     64760.58
   69.17        2972.75           2466        7994.00     34886.17
   69.20        2973.00           2470        2485.00     10833.98
   69.23        2973.25           2473        1297.00      5652.35
   69.26        2973.50           2477        1023.00      4457.52
   69.29        2973.75           2481        1002.00      4365.95
   69.32        2974.00           2484         949.00      4134.84
   69.35        2974.25           2488         977.00      4256.94
   69.38        2974.50           2491         904.00      3938.63
   69.41        2974.75           2495         896.00      3903.74
   69.44        2975.00           2498         896.00      3903.74
   69.47        2975.25           2502         907.00      3951.71
   69.50        2975.50           2505         881.00      3838.34
   69.53        2975.75           2509         828.00      3607.24
   69.56        2976.00           2512         827.00      3602.88
   69.59        2976.25           2516         827.00      3602.88
   69.62        2976.50           2520         837.00      3646.49
   69.65        2976.75           2523         811.00      3533.12
   69.69        2977.00           2527         796.00      3467.71
   69.72        2977.25           2530         770.00      3354.35
   69.75        2977.50           2534         777.00      3384.87
   69.78        2977.75           2537         784.00      3415.39
   69.81        2978.00           2541         762.00      3319.47
   69.84        2978.25           2544         757.00      3297.67
   69.87        2978.50           2548         762.00      3319.47
   69.90        2978.75           2552         757.00      3297.67
   69.93        2979.00           2555         752.00      3275.87
   69.96        2979.25           2559         727.00      3166.86
   69.99        2979.50           2562         721.00      3140.70
   70.02        2979.75           2566         708.00      3084.02
   70.05        2980.00           2569         738.00      3214.82
   70.08        2980.25           2573         749.00      3262.79
   70.11        2980.50           2577         695.00      3027.34
   70.14        2980.75           2580         682.00      2970.66
   70.17        2981.00           2584         715.00      3114.54
   70.21        2981.25           2587         692.00      3014.26
   70.24        2981.50           2591         697.00      3036.06
   70.27        2981.75           2594         672.00      2927.06
   70.30        2982.00           2598         694.00      3022.98
   70.33        2982.25           2601         673.00      2931.42
   70.36        2982.50           2605         722.00      3145.06
   70.39        2982.75           2609         686.00      2988.10
   70.42        2983.00           2612         673.00      2931.42
   70.45        2983.25           2616         651.00      2835.50
   70.48        2983.50           2619         678.00      2953.22
   70.51        2983.75           2623         669.00      2913.98
   70.54        2984.00           2626         654.00      2848.58
HS scan finished at 01:10:46
end
************************************************************
  HS Scan of 
************************************************************
Integration time is 0.2294 seconds per sample
dh280417Reading 51.44 .94 3.31pr1000
************************************************************
Dead Time -------------------------  3.4E-08 
Number of Cycles Used -------------  4 
Starting Wavelength (Angstroms) ---  2950 
Final Wavelength (Angstoms) -------  2984 
Wavelength Increment (Angstroms) --  .25 
Filter Wheel #1 Position ---------- (1) Ground quartz diffuser (ND=2.32)
Filter Wheel #2 Position ---------- (1) Neutral Density 0.494



************************************************************
HS scan start time = 20:07:25
Dark Count =  2.2 


Time (GMT)  Wavelength (Ang)  Step Number  Raw Counts  Counts/Second

 1208.31        2950.00           2144         556.00      2414.32
 1208.50        2950.25           2147         567.00      2462.28
 1208.53        2950.50           2151         551.00      2392.52
 1208.56        2950.75           2155         541.00      2348.92
 1208.60        2951.00           2158         543.00      2357.64
 1208.63        2951.25           2162         555.00      2409.96
 1208.66        2951.50           2165         562.00      2440.48
 1208.69        2951.75           2169         574.00      2492.80
 1208.72        2952.00           2172         551.00      2392.52
 1208.75        2952.25           2176         569.00      2471.00
 1208.78        2952.50           2179         568.00      2466.64
 1208.81        2952.75           2183         554.00      2405.60
 1208.84        2953.00           2186         571.00      2479.72
 1208.87        2953.25           2190         594.00      2580.00
 1208.90        2953.50           2193         595.00      2584.36
 1208.93        2953.75           2197         564.00      2449.20
 1208.96        2954.00           2200         584.00      2536.40
 1208.99        2954.25           2204         567.00      2462.28
 1209.02        2954.50           2208         600.00      2606.16
 1209.05        2954.75           2211         587.00      2549.48
 1209.08        2955.00           2215         634.00      2754.40
 1209.12        2955.25           2218         608.00      2641.04
 1209.15        2955.50           2222         612.00      2658.48
 1209.18        2955.75           2225         590.00      2562.56
 1209.21        2956.00           2229         621.00      2697.72
 1209.24        2956.25           2232         623.00      2706.44
 1209.27        2956.50           2236         611.00      2654.12
 1209.30        2956.75           2239         624.00      2710.80
 1209.33        2957.00           2243         643.00      2793.64
 1209.36        2957.25           2246         650.00      2824.16
 1209.39        2957.50           2250         687.00      2985.48
 1209.42        2957.75           2254         669.00      2907.00
 1209.45        2958.00           2257         688.00      2989.84
 1209.48        2958.25           2261         659.00      2863.40
 1209.51        2958.50           2264         658.00      2859.04
 1209.54        2958.75           2268         688.00      2989.84
 1209.57        2959.00           2271         704.00      3059.60
 1209.60        2959.25           2275         696.00      3024.72
 1209.64        2959.50           2278         734.00      3190.41
 1209.67        2959.75           2282         743.00      3229.65
 1209.70        2960.00           2285         742.00      3225.29
 1209.73        2960.25           2289         759.00      3299.41
 1209.76        2960.50           2293         761.00      3308.13
 1209.79        2960.75           2296         792.00      3443.30
 1209.82        2961.00           2300         847.00      3683.11
 1209.85        2961.25           2303        1110.00      4829.91
 1209.88        2961.50           2307        3511.00     15303.52
 1209.91        2961.75           2310        8679.00     37872.63
 1209.94        2962.00           2314       18390.00     80375.41
 1209.97        2962.25           2317       26843.00    117472.60
 1210.00        2962.50           2321       37017.00    162247.40
 1210.03        2962.75           2324       44594.00    195682.10
 1210.06        2963.00           2328       54704.00    240413.10
 1210.09        2963.25           2331       63207.00    278140.20
 1210.12        2963.50           2335       75477.00    332753.00
 1210.16        2963.75           2339       86915.00    383847.10
 1210.19        2964.00           2342       95078.00    420421.20
 1210.22        2964.25           2346      105569.00    467560.70
 1210.25        2964.50           2349      113388.00    502793.40
 1210.28        2964.75           2353      125165.00    556022.10
 1210.31        2965.00           2356      133453.00    593598.60
 1210.34        2965.25           2360      144599.00    644286.10
 1210.37        2965.50           2363      152716.00    681310.60
 1210.40        2965.75           2367      162634.00    726678.30
 1210.43        2966.00           2370      169720.00    759178.80
 1210.46        2966.25           2374      178960.00    801668.20
 1210.49        2966.50           2378      184955.00    829302.60
 1210.52        2966.75           2381      186862.00    838104.00
 1210.55        2967.00           2385      187620.00    841603.90
 1210.58        2967.25           2388      187573.00    841386.90
 1210.61        2967.50           2392      187546.00    841262.20
 1210.64        2967.75           2395      187186.00    839599.90
 1210.68        2968.00           2399      183128.00    820875.30
 1210.71        2968.25           2402      178369.00    798946.80
 1210.74        2968.50           2406      168760.00    754771.30
 1210.77        2968.75           2409      160740.00    718003.70
 1210.80        2969.00           2413      150385.00    670668.50
 1210.83        2969.25           2417      141206.00    628837.40
 1210.86        2969.50           2420      133374.00    593239.90
 1210.89        2969.75           2424      122562.00    544240.50
 1210.92        2970.00           2427      114424.00    507468.00
 1210.95        2970.25           2431      103631.00    458841.10
 1210.98        2970.50           2434       95572.00    422637.40
 1211.01        2970.75           2438       83957.00    370616.40
 1211.04        2971.00           2441       75144.00    331268.20
 1211.07        2971.25           2445       64304.00    283014.50
 1211.10        2971.50           2449       53835.00    236562.90
 1211.13        2971.75           2452       46307.00    203251.60
 1211.16        2972.00           2456       36063.00    158043.10
 1211.19        2972.25           2459       28195.00    123414.80
 1211.23        2972.50           2463       17006.00     74310.46
 1211.26        2972.75           2466        9348.00     40796.74
 1211.29        2973.00           2470        2970.00     12942.92
 1211.32        2973.25           2473        1311.00      5706.43
 1211.35        2973.50           2477         899.00      3909.85
 1211.38        2973.75           2481         827.00      3595.91
 1211.41        2974.00           2484         823.00      3578.47
 1211.44        2974.25           2488         766.00      3329.93
 1211.47        2974.50           2491         785.00      3412.78
 1211.50        2974.75           2495         729.00      3168.61
 1211.53        2975.00           2498         724.00      3146.81
 1211.56        2975.25           2502         724.00      3146.81
 1211.59        2975.50           2505         732.00      3181.69
 1211.62        2975.75           2509         713.00      3098.84
 1211.65        2976.00           2512         691.00      3002.92
 1211.68        2976.25           2516         672.00      2920.08
 1211.72        2976.50           2520         680.00      2954.96
 1211.75        2976.75           2523         648.00      2815.44
 1211.78        2977.00           2527         657.00      2854.68
 1211.81        2977.25           2530         663.00      2880.84
 1211.84        2977.50           2534         647.00      2811.08
 1211.87        2977.75           2537         664.00      2885.20
 1211.90        2978.00           2541         652.00      2832.88
 1211.93        2978.25           2544         627.00      2723.88
 1211.96        2978.50           2548         612.00      2658.48
 1211.99        2978.75           2552         633.00      2750.04
 1212.02        2979.00           2555         626.00      2719.52
 1212.05        2979.25           2559         607.00      2636.68
 1212.08        2979.50           2562         608.00      2641.04
 1212.11        2979.75           2566         577.00      2505.88
 1212.14        2980.00           2569         581.00      2523.32
 1212.17        2980.25           2573         612.00      2658.48
 1212.20        2980.50           2577         596.00      2588.72
 1212.24        2980.75           2580         600.00      2606.16
 1212.27        2981.00           2584         583.00      2532.04
 1212.30        2981.25           2587         554.00      2405.60
 1212.33        2981.50           2591         570.00      2475.36
 1212.36        2981.75           2594         559.00      2427.40
 1212.39        2982.00           2598         553.00      2401.24
 1212.42        2982.25           2601         549.00      2383.80
 1212.45        2982.50           2605         547.00      2375.08
 1212.48        2982.75           2609         575.00      2497.16
 1212.51        2983.00           2612         534.00      2318.40
 1212.54        2983.25           2616         546.00      2370.72
 1212.57        2983.50           2619         555.00      2409.96
 1212.60        2983.75           2623         555.00      2409.96
 1212.63        2984.00           2626         554.00      2405.60
HS scan finished at 20:12:51
end
