************************************************************
  HS Scan of (1) Internal mercury lamp
************************************************************
Integration time is 0.2294 seconds per sample
dh290418Reading 51.44 .94 3pr1000
************************************************************
Dead Time -------------------------  3.4E-08 
Number of Cycles Used -------------  4 
Starting Wavelength (Angstroms) ---  2950 
Final Wavelength (Angstoms) -------  2984 
Wavelength Increment (Angstroms) --  .25 
Filter Wheel #1 Position ---------- (1) Ground quartz diffuser (ND=2.32)
Filter Wheel #2 Position ---------- (1) Neutral Density 0.494



************************************************************
HS scan start time = 01:09:58
Dark Count =  .9 


Time (GMT)  Wavelength (Ang)  Step Number  Raw Counts  Counts/Second

   70.86        2950.00           2144         103.00       445.08
   71.06        2950.25           2147          90.00       388.41
   71.10        2950.50           2151          94.00       405.85
   71.13        2950.75           2155         116.00       501.75
   71.17        2951.00           2158         103.00       445.08
   71.20        2951.25           2162         104.00       449.44
   71.23        2951.50           2165          99.00       427.64
   71.26        2951.75           2169          93.00       401.49
   71.29        2952.00           2172          97.00       418.92
   71.32        2952.25           2176         113.00       488.67
   71.35        2952.50           2179          95.00       410.21
   71.38        2952.75           2183          98.00       423.28
   71.41        2953.00           2186          98.00       423.28
   71.44        2953.25           2190         105.00       453.80
   71.47        2953.50           2193         118.00       510.47
   71.50        2953.75           2197         101.00       436.36
   71.53        2954.00           2200          92.00       397.13
   71.56        2954.25           2204         106.00       458.16
   71.59        2954.50           2208         101.00       436.36
   71.62        2954.75           2211         116.00       501.75
   71.65        2955.00           2215         124.00       536.63
   71.69        2955.25           2218         112.00       484.31
   71.72        2955.50           2222          97.00       418.92
   71.75        2955.75           2225         121.00       523.55
   71.78        2956.00           2229         102.00       440.72
   71.81        2956.25           2232         141.00       610.74
   71.84        2956.50           2236         108.00       466.88
   71.87        2956.75           2239         132.00       571.50
   71.90        2957.00           2243         113.00       488.67
   71.93        2957.25           2246         120.00       519.19
   71.96        2957.50           2250         135.00       584.58
   71.99        2957.75           2254         113.00       488.67
   72.02        2958.00           2257         124.00       536.63
   72.05        2958.25           2261         143.00       619.46
   72.08        2958.50           2264         119.00       514.83
   72.11        2958.75           2268         126.00       545.35
   72.14        2959.00           2271         143.00       619.46
   72.17        2959.25           2275         139.00       602.02
   72.21        2959.50           2278         125.00       540.99
   72.24        2959.75           2282         153.00       663.05
   72.27        2960.00           2285         147.00       636.89
   72.30        2960.25           2289         140.00       606.38
   72.33        2960.50           2293         132.00       571.50
   72.36        2960.75           2296         145.00       628.17
   72.39        2961.00           2300         191.00       828.71
   72.42        2961.25           2303         434.00      1888.09
   72.45        2961.50           2307        1367.00      5956.31
   72.48        2961.75           2310        2513.00     10954.82
   72.52        2962.00           2314        4182.00     18237.55
   72.55        2962.25           2317        5575.00     24318.71
   72.58        2962.50           2321        7485.00     32660.92
   72.61        2962.75           2324        8869.00     38708.71
   72.64        2963.00           2328       10858.00     47404.59
   72.67        2963.25           2331       12438.00     54316.00
   72.70        2963.50           2335       14420.00     62990.48
   72.73        2963.75           2339       16367.00     71516.75
   72.76        2964.00           2342       17950.00     78452.68
   72.79        2964.25           2346       19974.00     87325.58
   72.82        2964.50           2349       21755.00     95137.66
   72.85        2964.75           2353       23561.00    103063.70
   72.88        2965.00           2356       24850.00    108723.30
   72.91        2965.25           2360       26608.00    116445.70
   72.94        2965.50           2363       27967.00    122418.20
   72.97        2965.75           2367       30029.00    131484.90
   73.01        2966.00           2370       31402.00    137525.20
   73.04        2966.25           2374       32883.00    144043.30
   73.07        2966.50           2378       33432.00    146460.30
   73.10        2966.75           2381       33793.00    148049.80
   73.13        2967.00           2385       33856.00    148327.30
   73.16        2967.25           2388       33790.00    148036.60
   73.19        2967.50           2392       33816.00    148151.10
   73.23        2967.75           2395       33510.00    146803.70
   73.26        2968.00           2399       32388.00    141864.40
   73.29        2968.25           2402       31306.00    137102.80
   73.32        2968.50           2406       29459.00    128978.10
   73.35        2968.75           2409       28061.00    122831.40
   73.38        2969.00           2413       26252.00    114881.60
   73.41        2969.25           2417       24687.00    108007.50
   73.44        2969.50           2420       23366.00    102207.70
   73.47        2969.75           2424       21321.00     93233.62
   73.50        2970.00           2427       19650.00     85904.85
   73.53        2970.25           2431       17454.00     76279.09
   73.56        2970.50           2434       15787.00     68976.31
   73.59        2970.75           2438       13715.00     59904.37
   73.62        2971.00           2441       12271.00     53585.33
   73.65        2971.25           2445        9990.00     43609.08
   73.68        2971.50           2449        7919.00     34557.15
   73.71        2971.75           2452        6500.00     28358.20
   73.75        2972.00           2456        4497.00     19612.47
   73.78        2972.25           2459        3127.00     13633.61
   73.81        2972.50           2463        1589.00      6924.47
   73.84        2972.75           2466         757.00      3296.36
   73.87        2973.00           2470         296.00      1286.46
   73.90        2973.25           2473         179.00       776.39
   73.93        2973.50           2477         144.00       623.81
   73.96        2973.75           2481         140.00       606.38
   73.99        2974.00           2484         152.00       658.69
   74.02        2974.25           2488         138.00       597.66
   74.05        2974.50           2491         155.00       671.77
   74.08        2974.75           2495         117.00       506.11
   74.11        2975.00           2498         149.00       645.61
   74.14        2975.25           2502         138.00       597.66
   74.17        2975.50           2505         138.00       597.66
   74.20        2975.75           2509         129.00       558.42
   74.23        2976.00           2512         131.00       567.14
   74.27        2976.25           2516         135.00       584.58
   74.30        2976.50           2520         132.00       571.50
   74.33        2976.75           2523         122.00       527.91
   74.36        2977.00           2527         114.00       493.03
   74.39        2977.25           2530         119.00       514.83
   74.42        2977.50           2534         129.00       558.42
   74.45        2977.75           2537         114.00       493.03
   74.48        2978.00           2541         115.00       497.39
   74.51        2978.25           2544         112.00       484.31
   74.54        2978.50           2548         103.00       445.08
   74.57        2978.75           2552         125.00       540.99
   74.60        2979.00           2555         110.00       475.60
   74.63        2979.25           2559          96.00       414.57
   74.66        2979.50           2562         112.00       484.31
   74.69        2979.75           2566         100.00       432.00
   74.72        2980.00           2569         118.00       510.47
   74.75        2980.25           2573         100.00       432.00
   74.78        2980.50           2577          95.00       410.21
   74.82        2980.75           2580          99.00       427.64
   74.85        2981.00           2584          93.00       401.49
   74.88        2981.25           2587          97.00       418.92
   74.91        2981.50           2591          96.00       414.57
   74.94        2981.75           2594         113.00       488.67
   74.97        2982.00           2598          99.00       427.64
   75.00        2982.25           2601          95.00       410.21
   75.03        2982.50           2605         105.00       453.80
   75.06        2982.75           2609          99.00       427.64
   75.09        2983.00           2612          99.00       427.64
   75.12        2983.25           2616          88.00       379.69
   75.15        2983.50           2619         110.00       475.60
   75.18        2983.75           2623          94.00       405.85
   75.21        2984.00           2626          87.00       375.33
HS scan finished at 01:15:26
end
************************************************************
  HS Scan of (1) Internal mercury lamp
************************************************************
Integration time is 0.2294 seconds per sample
dh290418Reading 51.44 .94 2.82pr1000
************************************************************
Dead Time -------------------------  3.4E-08 
Number of Cycles Used -------------  4 
Starting Wavelength (Angstroms) ---  2950 
Final Wavelength (Angstoms) -------  2984 
Wavelength Increment (Angstroms) --  .25 
Filter Wheel #1 Position ---------- (1) Ground quartz diffuser (ND=2.32)
Filter Wheel #2 Position ---------- (1) Neutral Density 0.494



************************************************************
HS scan start time = 20:07:23
Dark Count =  .4 


Time (GMT)  Wavelength (Ang)  Step Number  Raw Counts  Counts/Second

 1208.29        2950.00           2144          88.00       381.87
 1208.48        2950.25           2147         103.00       447.26
 1208.51        2950.50           2151          90.00       390.59
 1208.54        2950.75           2155         118.00       512.65
 1208.57        2951.00           2158         108.00       469.06
 1208.60        2951.25           2162         105.00       455.98
 1208.63        2951.50           2165          93.00       403.67
 1208.66        2951.75           2169         100.00       434.18
 1208.69        2952.00           2172         123.00       534.45
 1208.72        2952.25           2176          99.00       429.82
 1208.76        2952.50           2179          97.00       421.10
 1208.79        2952.75           2183          90.00       390.59
 1208.82        2953.00           2186         130.00       564.96
 1208.85        2953.25           2190          96.00       416.75
 1208.88        2953.50           2193         118.00       512.65
 1208.91        2953.75           2197         123.00       534.45
 1208.94        2954.00           2200         100.00       434.18
 1208.97        2954.25           2204         122.00       530.09
 1209.00        2954.50           2208         104.00       451.62
 1209.03        2954.75           2211         108.00       469.06
 1209.06        2955.00           2215         107.00       464.70
 1209.09        2955.25           2218         123.00       534.45
 1209.12        2955.50           2222         103.00       447.26
 1209.15        2955.75           2225         129.00       560.60
 1209.18        2956.00           2229         112.00       486.49
 1209.21        2956.25           2232         130.00       564.96
 1209.24        2956.50           2236         101.00       438.54
 1209.28        2956.75           2239         127.00       551.88
 1209.31        2957.00           2243         125.00       543.17
 1209.34        2957.25           2246         122.00       530.09
 1209.37        2957.50           2250         115.00       499.57
 1209.40        2957.75           2254         130.00       564.96
 1209.43        2958.00           2257         116.00       503.93
 1209.46        2958.25           2261         123.00       534.45
 1209.49        2958.50           2264         117.00       508.29
 1209.52        2958.75           2268         141.00       612.92
 1209.55        2959.00           2271         156.00       678.31
 1209.58        2959.25           2275         122.00       530.09
 1209.61        2959.50           2278         121.00       525.73
 1209.64        2959.75           2282         147.00       639.07
 1209.67        2960.00           2285         166.00       721.90
 1209.70        2960.25           2289         149.00       647.79
 1209.73        2960.50           2293         146.00       634.71
 1209.76        2960.75           2296         134.00       582.40
 1209.80        2961.00           2300         202.00       878.84
 1209.83        2961.25           2303         483.00      2103.90
 1209.86        2961.50           2307        1643.00      7162.16
 1209.89        2961.75           2310        2794.00     12182.90
 1209.92        2962.00           2314        4510.00     19671.39
 1209.95        2962.25           2317        5693.00     24836.14
 1209.98        2962.50           2321        7305.00     31876.73
 1210.01        2962.75           2324        8476.00     36993.32
 1210.04        2963.00           2328       10507.00     45871.83
 1210.07        2963.25           2331       12014.00     52463.16
 1210.10        2963.50           2335       14103.00     61604.93
 1210.13        2963.75           2339       15760.00     68860.25
 1210.16        2964.00           2342       17196.00     75150.80
 1210.19        2964.25           2346       19108.00     83530.71
 1210.22        2964.50           2349       20625.00     90182.81
 1210.25        2964.75           2353       22745.00     99484.14
 1210.28        2965.00           2356       23938.00    104720.90
 1210.32        2965.25           2360       25835.00    113051.90
 1210.35        2965.50           2363       27148.00    118820.80
 1210.38        2965.75           2367       28556.00    125009.70
 1210.41        2966.00           2370       29833.00    130625.10
 1210.44        2966.25           2374       31268.00    136937.70
 1210.47        2966.50           2378       31875.00    139608.80
 1210.50        2966.75           2381       32397.00    141906.20
 1210.53        2967.00           2385       32160.00    140863.10
 1210.56        2967.25           2388       32572.00    142676.50
 1210.59        2967.50           2392       32371.00    141791.80
 1210.62        2967.75           2395       32120.00    140687.00
 1210.65        2968.00           2399       31016.00    135829.00
 1210.68        2968.25           2402       29921.00    131012.10
 1210.71        2968.50           2406       28072.00    122882.00
 1210.74        2968.75           2409       26639.00    116584.10
 1210.77        2969.00           2413       24770.00    108374.20
 1210.81        2969.25           2417       22850.00     99944.98
 1210.84        2969.50           2420       21293.00     93112.97
 1210.87        2969.75           2424       19288.00     84319.86
 1210.90        2970.00           2427       17649.00     77135.78
 1210.93        2970.25           2431       15960.00     69736.21
 1210.96        2970.50           2434       14478.00     63246.58
 1210.99        2970.75           2438       12479.00     54497.58
 1211.02        2971.00           2441       11038.00     48193.99
 1211.05        2971.25           2445        9058.00     39536.99
 1211.08        2971.50           2449        7410.00     32335.45
 1211.11        2971.75           2452        6120.00     26700.78
 1211.14        2972.00           2456        4245.00     18514.70
 1211.17        2972.25           2459        2850.00     12427.22
 1211.20        2972.50           2463        1338.00      5832.02
 1211.23        2972.75           2466         646.00      2814.57
 1211.26        2973.00           2470         259.00      1127.33
 1211.29        2973.25           2473         169.00       734.98
 1211.32        2973.50           2477         151.00       656.51
 1211.36        2973.75           2481         145.00       630.35
 1211.39        2974.00           2484         178.00       774.21
 1211.42        2974.25           2488         169.00       734.98
 1211.45        2974.50           2491         142.00       617.28
 1211.48        2974.75           2495         132.00       573.68
 1211.51        2975.00           2498         150.00       652.15
 1211.54        2975.25           2502         142.00       617.28
 1211.57        2975.50           2505         123.00       534.45
 1211.60        2975.75           2509         115.00       499.57
 1211.63        2976.00           2512         121.00       525.73
 1211.66        2976.25           2516         137.00       595.48
 1211.69        2976.50           2520         105.00       455.98
 1211.72        2976.75           2523         131.00       569.32
 1211.75        2977.00           2527         112.00       486.49
 1211.78        2977.25           2530         115.00       499.57
 1211.81        2977.50           2534         110.00       477.78
 1211.84        2977.75           2537         115.00       499.57
 1211.88        2978.00           2541         115.00       499.57
 1211.91        2978.25           2544         123.00       534.45
 1211.94        2978.50           2548          97.00       421.10
 1211.97        2978.75           2552         121.00       525.73
 1212.00        2979.00           2555         125.00       543.17
 1212.03        2979.25           2559         121.00       525.73
 1212.06        2979.50           2562         106.00       460.34
 1212.09        2979.75           2566         110.00       477.78
 1212.12        2980.00           2569          99.00       429.82
 1212.15        2980.25           2573         107.00       464.70
 1212.18        2980.50           2577         111.00       482.14
 1212.21        2980.75           2580         101.00       438.54
 1212.24        2981.00           2584         116.00       503.93
 1212.27        2981.25           2587         115.00       499.57
 1212.30        2981.50           2591         107.00       464.70
 1212.33        2981.75           2594         103.00       447.26
 1212.36        2982.00           2598         116.00       503.93
 1212.40        2982.25           2601         102.00       442.90
 1212.43        2982.50           2605         118.00       512.65
 1212.46        2982.75           2609          94.00       408.03
 1212.49        2983.00           2612          94.00       408.03
 1212.52        2983.25           2616         112.00       486.49
 1212.55        2983.50           2619          90.00       390.59
 1212.58        2983.75           2623         105.00       455.98
 1212.61        2984.00           2626          97.00       421.10
HS scan finished at 20:12:50
end
