************************************************************
  HS Scan of 
************************************************************
Integration time is 0.2294 seconds per sample
dh210417Reading 51.44 .94 3pr1000
************************************************************
Dead Time -------------------------  3.4E-08 
Number of Cycles Used -------------  4 
Starting Wavelength (Angstroms) ---  2950 
Final Wavelength (Angstoms) -------  2984 
Wavelength Increment (Angstroms) --  .25 
Filter Wheel #1 Position ---------- (1) Ground quartz diffuser (ND=2.32)
Filter Wheel #2 Position ---------- (1) Neutral Density 0.494



************************************************************
HS scan start time = 01:06:37
Dark Count =  .7 


Time (GMT)  Wavelength (Ang)  Step Number  Raw Counts  Counts/Second

   67.51        2950.00           2144         630.00      2743.50
   67.70        2950.25           2147         607.00      2643.22
   67.73        2950.50           2151         622.00      2708.62
   67.76        2950.75           2155         631.00      2747.86
   67.79        2951.00           2158         618.00      2691.18
   67.83        2951.25           2162         624.00      2717.34
   67.86        2951.50           2165         642.00      2795.82
   67.89        2951.75           2169         624.00      2717.34
   67.92        2952.00           2172         648.00      2821.98
   67.95        2952.25           2176         636.00      2769.66
   67.98        2952.50           2179         627.00      2730.42
   68.01        2952.75           2183         668.00      2909.18
   68.04        2953.00           2186         648.00      2821.98
   68.07        2953.25           2190         639.00      2782.74
   68.10        2953.50           2193         662.00      2883.02
   68.13        2953.75           2197         645.00      2808.90
   68.16        2954.00           2200         651.00      2835.06
   68.19        2954.25           2204         680.00      2961.50
   68.22        2954.50           2208         670.00      2917.90
   68.25        2954.75           2211         633.00      2756.58
   68.28        2955.00           2215         659.00      2869.94
   68.31        2955.25           2218         671.00      2922.26
   68.35        2955.50           2222         652.00      2839.42
   68.38        2955.75           2225         683.00      2974.58
   68.41        2956.00           2229         696.00      3031.26
   68.44        2956.25           2232         666.00      2900.46
   68.47        2956.50           2236         691.00      3009.46
   68.50        2956.75           2239         698.00      3039.98
   68.53        2957.00           2243         711.00      3096.66
   68.56        2957.25           2246         699.00      3044.34
   68.59        2957.50           2250         731.00      3183.87
   68.62        2957.75           2254         716.00      3118.46
   68.65        2958.00           2257         712.00      3101.02
   68.68        2958.25           2261         706.00      3074.86
   68.71        2958.50           2264         765.00      3332.11
   68.74        2958.75           2268         763.00      3323.39
   68.77        2959.00           2271         781.00      3401.88
   68.80        2959.25           2275         800.00      3484.72
   68.83        2959.50           2278         800.00      3484.72
   68.87        2959.75           2282         839.00      3654.77
   68.90        2960.00           2285         819.00      3567.56
   68.93        2960.25           2289         858.00      3737.62
   68.96        2960.50           2293         877.00      3820.46
   68.99        2960.75           2296         886.00      3859.70
   69.02        2961.00           2300         909.00      3959.99
   69.05        2961.25           2303        1188.00      5176.59
   69.08        2961.50           2307        4669.00     20364.14
   69.11        2961.75           2310       10602.00     46285.95
   69.14        2962.00           2314       20429.00     89321.86
   69.17        2962.25           2317       28496.00    124744.60
   69.20        2962.50           2321       39277.00    172218.60
   69.23        2962.75           2324       47893.00    210269.90
   69.26        2963.00           2328       59680.00    262486.00
   69.29        2963.25           2331       67810.00    298610.50
   69.32        2963.50           2335       79504.00    350728.10
   69.35        2963.75           2339       91523.00    404488.50
   69.39        2964.00           2342      101526.00    449382.80
   69.42        2964.25           2346      113930.00    505245.60
   69.45        2964.50           2349      122534.00    544120.60
   69.48        2964.75           2353      134229.00    597128.60
   69.51        2965.00           2356      142572.00    635061.80
   69.54        2965.25           2360      154368.00    688864.30
   69.57        2965.50           2363      163009.00    728403.30
   69.60        2965.75           2367      174509.00    781192.00
   69.63        2966.00           2370      183077.00    820647.00
   69.66        2966.25           2374      193327.00    867989.10
   69.69        2966.50           2378      200412.00    900803.40
   69.72        2966.75           2381      203216.00    913811.00
   69.75        2967.00           2385      204064.00    917747.00
   69.78        2967.25           2388      204063.00    917742.20
   69.81        2967.50           2392      204516.00    919845.40
   69.84        2967.75           2395      203746.00    916270.80
   69.87        2968.00           2399      199966.00    898735.60
   69.91        2968.25           2402      193244.00    867605.10
   69.94        2968.50           2406      183632.00    823206.50
   69.97        2968.75           2409      175582.00    786127.20
   70.00        2969.00           2413      164556.00    735493.40
   70.03        2969.25           2417      151763.00    676965.50
   70.06        2969.50           2420      143028.00    637138.00
   70.09        2969.75           2424      130444.00    579951.90
   70.12        2970.00           2427      121887.00    541193.70
   70.15        2970.25           2431      110307.00    488906.90
   70.18        2970.50           2434      101173.00    447796.20
   70.21        2970.75           2438       88403.00    390513.90
   70.24        2971.00           2441       78798.00    347576.40
   70.27        2971.25           2445       66821.00    294211.30
   70.30        2971.50           2449       54807.00    240876.20
   70.33        2971.75           2452       45978.00    201804.10
   70.36        2972.00           2456       34931.00    153062.60
   70.39        2972.25           2459       26605.00    116433.40
   70.43        2972.50           2463       15091.00     65929.22
   70.46        2972.75           2466        7399.00     32286.08
   70.49        2973.00           2470        2162.00      9424.55
   70.52        2973.25           2473        1189.00      5180.95
   70.55        2973.50           2477         982.00      4278.30
   70.58        2973.75           2481         909.00      3959.99
   70.61        2974.00           2484         915.00      3986.16
   70.64        2974.25           2488         848.00      3694.01
   70.67        2974.50           2491         852.00      3711.45
   70.70        2974.75           2495         838.00      3650.41
   70.73        2975.00           2498         810.00      3528.32
   70.76        2975.25           2502         812.00      3537.04
   70.79        2975.50           2505         809.00      3523.96
   70.82        2975.75           2509         767.00      3340.83
   70.85        2976.00           2512         778.00      3388.80
   70.88        2976.25           2516         773.00      3366.99
   70.91        2976.50           2520         740.00      3223.11
   70.95        2976.75           2523         747.00      3253.63
   70.98        2977.00           2527         726.00      3162.07
   71.01        2977.25           2530         710.00      3092.30
   71.04        2977.50           2534         696.00      3031.26
   71.07        2977.75           2537         722.00      3144.63
   71.10        2978.00           2541         705.00      3070.50
   71.13        2978.25           2544         723.00      3148.99
   71.16        2978.50           2548         699.00      3044.34
   71.19        2978.75           2552         684.00      2978.94
   71.22        2979.00           2555         669.00      2913.54
   71.25        2979.25           2559         657.00      2861.22
   71.28        2979.50           2562         665.00      2896.10
   71.31        2979.75           2566         678.00      2952.78
   71.34        2980.00           2569         646.00      2813.26
   71.37        2980.25           2573         661.00      2878.66
   71.40        2980.50           2577         681.00      2965.86
   71.43        2980.75           2580         641.00      2791.46
   71.47        2981.00           2584         643.00      2800.18
   71.50        2981.25           2587         652.00      2839.42
   71.53        2981.50           2591         632.00      2752.22
   71.56        2981.75           2594         623.00      2712.98
   71.59        2982.00           2598         629.00      2739.14
   71.62        2982.25           2601         629.00      2739.14
   71.65        2982.50           2605         615.00      2678.10
   71.68        2982.75           2609         604.00      2630.14
   71.71        2983.00           2612         607.00      2643.22
   71.74        2983.25           2616         613.00      2669.38
   71.77        2983.50           2619         603.00      2625.78
   71.80        2983.75           2623         578.00      2516.78
   71.83        2984.00           2626         590.00      2569.10
HS scan finished at 01:12:03
end
************************************************************
  HS Scan of 
************************************************************
Integration time is 0.2294 seconds per sample
dh210417Reading 51.44 .94 3.31pr1000
************************************************************
Dead Time -------------------------  3.4E-08 
Number of Cycles Used -------------  4 
Starting Wavelength (Angstroms) ---  2950 
Final Wavelength (Angstoms) -------  2984 
Wavelength Increment (Angstroms) --  .25 
Filter Wheel #1 Position ---------- (1) Ground quartz diffuser (ND=2.32)
Filter Wheel #2 Position ---------- (1) Neutral Density 0.494



************************************************************
HS scan start time = 20:07:25
Dark Count =  1.8 


Time (GMT)  Wavelength (Ang)  Step Number  Raw Counts  Counts/Second

 1208.31        2950.00           2144         630.00      2738.70
 1208.51        2950.25           2147         638.00      2773.58
 1208.54        2950.50           2151         673.00      2926.19
 1208.57        2950.75           2155         627.00      2725.62
 1208.60        2951.00           2158         650.00      2825.90
 1208.63        2951.25           2162         638.00      2773.58
 1208.66        2951.50           2165         656.00      2852.06
 1208.69        2951.75           2169         652.00      2834.62
 1208.72        2952.00           2172         651.00      2830.26
 1208.75        2952.25           2176         662.00      2878.22
 1208.78        2952.50           2179         674.00      2930.55
 1208.81        2952.75           2183         648.00      2817.18
 1208.84        2953.00           2186         651.00      2830.26
 1208.87        2953.25           2190         671.00      2917.46
 1208.91        2953.50           2193         679.00      2952.35
 1208.94        2953.75           2197         689.00      2995.95
 1208.97        2954.00           2200         672.00      2921.82
 1209.00        2954.25           2204         686.00      2982.87
 1209.03        2954.50           2208         688.00      2991.59
 1209.06        2954.75           2211         669.00      2908.74
 1209.09        2955.00           2215         693.00      3013.39
 1209.12        2955.25           2218         700.00      3043.91
 1209.15        2955.50           2222         676.00      2939.27
 1209.18        2955.75           2225         710.00      3087.51
 1209.21        2956.00           2229         697.00      3030.83
 1209.24        2956.25           2232         700.00      3043.91
 1209.27        2956.50           2236         729.00      3170.35
 1209.30        2956.75           2239         710.00      3087.51
 1209.33        2957.00           2243         761.00      3309.88
 1209.36        2957.25           2246         723.00      3144.19
 1209.39        2957.50           2250         739.00      3213.95
 1209.43        2957.75           2254         746.00      3244.47
 1209.46        2958.00           2257         804.00      3497.36
 1209.49        2958.25           2261         752.00      3270.63
 1209.52        2958.50           2264         758.00      3296.80
 1209.55        2958.75           2268         787.00      3423.24
 1209.58        2959.00           2271         788.00      3427.60
 1209.61        2959.25           2275         819.00      3562.77
 1209.64        2959.50           2278         794.00      3453.76
 1209.67        2959.75           2282         822.00      3575.85
 1209.70        2960.00           2285         828.00      3602.01
 1209.73        2960.25           2289         870.00      3785.14
 1209.76        2960.50           2293         888.00      3863.63
 1209.79        2960.75           2296         922.00      4011.88
 1209.82        2961.00           2300         981.00      4269.15
 1209.85        2961.25           2303        1411.00      6144.27
 1209.89        2961.50           2307        4687.00     20437.91
 1209.92        2961.75           2310       10416.00     45467.80
 1209.95        2962.00           2314       20345.00     88948.63
 1209.98        2962.25           2317       29425.00    128824.60
 1210.01        2962.50           2321       41290.00    181095.10
 1210.04        2962.75           2324       50078.00    219930.50
 1210.07        2963.00           2328       62111.00    273273.60
 1210.10        2963.25           2331       71981.00    317173.60
 1210.13        2963.50           2335       83938.00    370533.30
 1210.17        2963.75           2339       96053.00    424797.60
 1210.20        2964.00           2342      105411.00    466851.40
 1210.23        2964.25           2346      118035.00    523775.10
 1210.26        2964.50           2349      126915.00    563950.20
 1210.29        2964.75           2353      139859.00    622710.80
 1210.32        2965.00           2356      148121.00    660341.50
 1210.35        2965.25           2360      160013.00    714677.20
 1210.38        2965.50           2363      168758.00    754764.00
 1210.41        2965.75           2367      179910.00    806045.70
 1210.44        2966.00           2370      188029.00    843494.60
 1210.47        2966.25           2374      199139.00    894897.10
 1210.50        2966.50           2378      206435.00    928752.80
 1210.53        2966.75           2381      208278.00    937317.40
 1210.56        2967.00           2385      208569.00    938670.20
 1210.59        2967.25           2388      209098.00    941129.70
 1210.62        2967.50           2392      209175.00    941487.80
 1210.65        2967.75           2395      208911.00    940260.20
 1210.69        2968.00           2399      206114.00    927261.60
 1210.72        2968.25           2402      200595.00    901646.90
 1210.75        2968.50           2406      190336.00    854153.40
 1210.78        2968.75           2409      181592.00    813796.00
 1210.81        2969.00           2413      169785.00    759479.10
 1210.84        2969.25           2417      158215.00    706448.90
 1210.87        2969.50           2420      149811.00    668050.90
 1210.90        2969.75           2424      137681.00    612807.00
 1210.93        2970.00           2427      128172.00    569646.10
 1210.96        2970.25           2431      115121.00    510615.70
 1210.99        2970.50           2434      105815.00    468669.70
 1211.02        2970.75           2438       94172.00    416359.10
 1211.05        2971.00           2441       84665.00    373783.90
 1211.08        2971.25           2445       71557.00    315285.00
 1211.11        2971.50           2449       57658.00    253510.50
 1211.14        2971.75           2452       48620.00    213480.30
 1211.17        2972.00           2456       36560.00    160235.00
 1211.21        2972.25           2459       27793.00    121649.50
 1211.24        2972.50           2463       15583.00     68078.94
 1211.27        2972.75           2466        8066.00     35195.54
 1211.30        2973.00           2470        2664.00     11609.64
 1211.33        2973.25           2473        1358.00      5913.13
 1211.36        2973.50           2477        1013.00      4408.68
 1211.39        2973.75           2481         975.00      4242.98
 1211.42        2974.00           2484         938.00      4081.65
 1211.45        2974.25           2488         899.00      3911.59
 1211.48        2974.50           2491         880.00      3828.75
 1211.51        2974.75           2495         861.00      3745.90
 1211.54        2975.00           2498         849.00      3693.58
 1211.57        2975.25           2502         847.00      3684.86
 1211.60        2975.50           2505         822.00      3575.85
 1211.63        2975.75           2509         813.00      3536.61
 1211.66        2976.00           2512         794.00      3453.76
 1211.69        2976.25           2516         805.00      3501.72
 1211.73        2976.50           2520         788.00      3427.60
 1211.76        2976.75           2523         775.00      3370.92
 1211.79        2977.00           2527         778.00      3384.00
 1211.82        2977.25           2530         737.00      3205.23
 1211.85        2977.50           2534         740.00      3218.31
 1211.88        2977.75           2537         772.00      3357.84
 1211.91        2978.00           2541         753.00      3274.99
 1211.94        2978.25           2544         745.00      3240.11
 1211.97        2978.50           2548         718.00      3122.39
 1212.00        2978.75           2552         696.00      3026.47
 1212.03        2979.00           2555         699.00      3039.55
 1212.06        2979.25           2559         683.00      2969.79
 1212.09        2979.50           2562         704.00      3061.35
 1212.12        2979.75           2566         690.00      3000.31
 1212.15        2980.00           2569         691.00      3004.67
 1212.18        2980.25           2573         683.00      2969.79
 1212.21        2980.50           2577         667.00      2900.02
 1212.25        2980.75           2580         687.00      2987.23
 1212.28        2981.00           2584         679.00      2952.35
 1212.31        2981.25           2587         664.00      2886.94
 1212.34        2981.50           2591         657.00      2856.42
 1212.37        2981.75           2594         653.00      2838.98
 1212.40        2982.00           2598         640.00      2782.30
 1212.43        2982.25           2601         663.00      2882.58
 1212.46        2982.50           2605         653.00      2838.98
 1212.49        2982.75           2609         636.00      2764.86
 1212.52        2983.00           2612         653.00      2838.98
 1212.55        2983.25           2616         664.00      2886.94
 1212.58        2983.50           2619         615.00      2673.30
 1212.61        2983.75           2623         651.00      2830.26
 1212.64        2984.00           2626         622.00      2703.82
HS scan finished at 20:12:52
end
