************************************************************
  HS Scan of (1) Internal mercury lamp
************************************************************
Integration time is 0.2294 seconds per sample
dh260418Reading 51.44 .94 2.9pr1000
************************************************************
Dead Time -------------------------  3.4E-08 
Number of Cycles Used -------------  4 
Starting Wavelength (Angstroms) ---  2950 
Final Wavelength (Angstoms) -------  2984 
Wavelength Increment (Angstroms) --  .25 
Filter Wheel #1 Position ---------- (1) Ground quartz diffuser (ND=2.32)
Filter Wheel #2 Position ---------- (1) Neutral Density 0.494



************************************************************
HS scan start time = 01:27:46
Dark Count =  .6 


Time (GMT)  Wavelength (Ang)  Step Number  Raw Counts  Counts/Second

   88.66        2950.00           2144         100.00       433.31
   88.86        2950.25           2147          86.00       372.28
   88.89        2950.50           2151          96.00       415.87
   88.92        2950.75           2155          90.00       389.72
   88.95        2951.00           2158          98.00       424.59
   88.98        2951.25           2162          93.00       402.80
   89.01        2951.50           2165          97.00       420.23
   89.04        2951.75           2169         114.00       494.34
   89.07        2952.00           2172          98.00       424.59
   89.10        2952.25           2176         131.00       568.45
   89.13        2952.50           2179         102.00       442.03
   89.16        2952.75           2183         119.00       516.14
   89.19        2953.00           2186         101.00       437.67
   89.22        2953.25           2190          93.00       402.80
   89.25        2953.50           2193         100.00       433.31
   89.30        2953.75           2197          94.00       407.15
   89.33        2954.00           2200         104.00       450.75
   89.36        2954.25           2204         102.00       442.03
   89.39        2954.50           2208          98.00       424.59
   89.42        2954.75           2211         100.00       433.31
   89.45        2955.00           2215         118.00       511.78
   89.48        2955.25           2218         123.00       533.58
   89.51        2955.50           2222         100.00       433.31
   89.54        2955.75           2225         127.00       551.01
   89.58        2956.00           2229         133.00       577.17
   89.61        2956.25           2232         112.00       485.62
   89.64        2956.50           2236         124.00       537.93
   89.67        2956.75           2239         129.00       559.73
   89.70        2957.00           2243         133.00       577.17
   89.73        2957.25           2246         121.00       524.86
   89.76        2957.50           2250         109.00       472.54
   89.79        2957.75           2254         144.00       625.12
   89.82        2958.00           2257         134.00       581.53
   89.85        2958.25           2261         118.00       511.78
   89.88        2958.50           2264         119.00       516.14
   89.91        2958.75           2268         138.00       598.97
   89.94        2959.00           2271         152.00       660.00
   89.97        2959.25           2275         133.00       577.17
   90.00        2959.50           2278         137.00       594.61
   90.03        2959.75           2282         139.00       603.33
   90.06        2960.00           2285         128.00       555.37
   90.10        2960.25           2289         137.00       594.61
   90.13        2960.50           2293         131.00       568.45
   90.16        2960.75           2296         157.00       681.79
   90.19        2961.00           2300         174.00       755.90
   90.22        2961.25           2303         395.00      1719.37
   90.25        2961.50           2307        1190.00      5185.74
   90.28        2961.75           2310        2204.00      9608.20
   90.31        2962.00           2314        3916.00     17077.92
   90.34        2962.25           2317        5378.00     23459.86
   90.37        2962.50           2321        7087.00     30923.51
   90.40        2962.75           2324        8425.00     36769.57
   90.43        2963.00           2328       10133.00     44235.62
   90.46        2963.25           2331       11535.00     50366.92
   90.49        2963.50           2335       13200.00     57651.70
   90.52        2963.75           2339       15175.00     66297.50
   90.55        2964.00           2342       16729.00     73103.88
   90.58        2964.25           2346       18933.00     82762.65
   90.62        2964.50           2349       20186.00     88256.59
   90.65        2964.75           2353       22129.00     96780.01
   90.68        2965.00           2356       23248.00    101691.00
   90.71        2965.25           2360       25339.00    110872.30
   90.74        2965.50           2363       26996.00    118152.00
   90.77        2965.75           2367       28748.00    125853.00
   90.80        2966.00           2370       30175.00    132128.40
   90.83        2966.25           2374       31402.00    137526.50
   90.86        2966.50           2378       32487.00    142301.50
   90.89        2966.75           2381       32807.00    143710.10
   90.92        2967.00           2385       33088.00    144947.10
   90.95        2967.25           2388       33076.00    144894.30
   90.98        2967.50           2392       32864.00    143961.00
   91.01        2967.75           2395       32667.00    143093.80
   91.04        2968.00           2399       31505.00    137979.70
   91.07        2968.25           2402       30073.00    131679.80
   91.10        2968.50           2406       28498.00    124753.90
   91.14        2968.75           2409       27240.00    119224.20
   91.17        2969.00           2413       25453.00    111373.00
   91.20        2969.25           2417       23513.00    102854.30
   91.23        2969.50           2420       21870.00     95643.56
   91.26        2969.75           2424       19948.00     87212.89
   91.29        2970.00           2427       18641.00     81482.63
   91.32        2970.25           2431       16410.00     71706.44
   91.35        2970.50           2434       14998.00     65522.45
   91.38        2970.75           2438       12901.00     56343.23
   91.41        2971.00           2441       11494.00     50187.57
   91.44        2971.25           2445        9613.00     41962.19
   91.47        2971.50           2449        7739.00     33771.98
   91.50        2971.75           2452        6432.00     28062.51
   91.53        2972.00           2456        4533.00     19770.91
   91.56        2972.25           2459        3179.00     13861.81
   91.59        2972.50           2463        1587.00      6917.06
   91.62        2972.75           2466         729.00      3175.58
   91.66        2973.00           2470         230.00      1000.03
   91.69        2973.25           2473         171.00       742.83
   91.72        2973.50           2477         151.00       655.64
   91.75        2973.75           2481         143.00       620.76
   91.78        2974.00           2484         152.00       660.00
   91.81        2974.25           2488         145.00       629.48
   91.84        2974.50           2491         152.00       660.00
   91.87        2974.75           2495         146.00       633.84
   91.90        2975.00           2498         121.00       524.86
   91.93        2975.25           2502         124.00       537.93
   91.96        2975.50           2505         128.00       555.37
   91.99        2975.75           2509         116.00       503.06
   92.02        2976.00           2512         161.00       699.23
   92.05        2976.25           2516         117.00       507.42
   92.08        2976.50           2520         114.00       494.34
   92.11        2976.75           2523         126.00       546.65
   92.14        2977.00           2527         132.00       572.81
   92.18        2977.25           2530         127.00       551.01
   92.21        2977.50           2534         108.00       468.19
   92.24        2977.75           2537         101.00       437.67
   92.27        2978.00           2541         129.00       559.73
   92.30        2978.25           2544         124.00       537.93
   92.33        2978.50           2548         122.00       529.22
   92.36        2978.75           2552         118.00       511.78
   92.39        2979.00           2555         122.00       529.22
   92.42        2979.25           2559          98.00       424.59
   92.45        2979.50           2562         104.00       450.75
   92.48        2979.75           2566         104.00       450.75
   92.51        2980.00           2569          96.00       415.87
   92.54        2980.25           2573         116.00       503.06
   92.57        2980.50           2577         111.00       481.26
   92.60        2980.75           2580          90.00       389.72
   92.63        2981.00           2584         104.00       450.75
   92.66        2981.25           2587          93.00       402.80
   92.69        2981.50           2591         104.00       450.75
   92.73        2981.75           2594          97.00       420.23
   92.76        2982.00           2598          89.00       385.36
   92.79        2982.25           2601         113.00       489.98
   92.82        2982.50           2605          97.00       420.23
   92.85        2982.75           2609         110.00       476.90
   92.88        2983.00           2612          94.00       407.15
   92.91        2983.25           2616         110.00       476.90
   92.94        2983.50           2619         111.00       481.26
   92.97        2983.75           2623          93.00       402.80
   93.00        2984.00           2626          92.00       398.44
HS scan finished at 01:33:13
end
************************************************************
  HS Scan of (1) Internal mercury lamp
************************************************************
Integration time is 0.2294 seconds per sample
dh260418Reading 51.44 .94 3.19pr1000
************************************************************
Dead Time -------------------------  3.4E-08 
Number of Cycles Used -------------  4 
Starting Wavelength (Angstroms) ---  2950 
Final Wavelength (Angstoms) -------  2984 
Wavelength Increment (Angstroms) --  .25 
Filter Wheel #1 Position ---------- (1) Ground quartz diffuser (ND=2.32)
Filter Wheel #2 Position ---------- (1) Neutral Density 0.494



************************************************************
HS scan start time = 20:07:23
Dark Count =  1.3 


Time (GMT)  Wavelength (Ang)  Step Number  Raw Counts  Counts/Second

 1208.28        2950.00           2144          88.00       377.95
 1208.48        2950.25           2147          87.00       373.59
 1208.51        2950.50           2151          94.00       404.10
 1208.54        2950.75           2155          94.00       404.10
 1208.57        2951.00           2158          90.00       386.67
 1208.60        2951.25           2162          91.00       391.03
 1208.63        2951.50           2165          88.00       377.95
 1208.66        2951.75           2169         103.00       443.34
 1208.69        2952.00           2172          94.00       404.10
 1208.72        2952.25           2176          99.00       425.90
 1208.75        2952.50           2179          94.00       404.10
 1208.78        2952.75           2183          97.00       417.18
 1208.81        2953.00           2186          98.00       421.54
 1208.84        2953.25           2190          94.00       404.10
 1208.88        2953.50           2193          98.00       421.54
 1208.91        2953.75           2197          85.00       364.87
 1208.94        2954.00           2200          95.00       408.46
 1208.97        2954.25           2204          98.00       421.54
 1209.00        2954.50           2208         103.00       443.34
 1209.03        2954.75           2211         117.00       504.37
 1209.06        2955.00           2215         113.00       486.93
 1209.09        2955.25           2218          99.00       425.90
 1209.12        2955.50           2222         112.00       482.57
 1209.15        2955.75           2225          98.00       421.54
 1209.18        2956.00           2229         112.00       482.57
 1209.21        2956.25           2232         103.00       443.34
 1209.24        2956.50           2236          99.00       425.90
 1209.27        2956.75           2239         103.00       443.34
 1209.30        2957.00           2243         122.00       526.16
 1209.33        2957.25           2246         147.00       635.15
 1209.36        2957.50           2250         108.00       465.13
 1209.40        2957.75           2254         113.00       486.93
 1209.43        2958.00           2257         117.00       504.37
 1209.46        2958.25           2261         115.00       495.65
 1209.49        2958.50           2264         110.00       473.85
 1209.52        2958.75           2268         109.00       469.49
 1209.55        2959.00           2271         170.00       735.42
 1209.58        2959.25           2275         136.00       587.20
 1209.61        2959.50           2278         128.00       552.32
 1209.64        2959.75           2282         130.00       561.04
 1209.67        2960.00           2285         141.00       608.99
 1209.70        2960.25           2289         123.00       530.52
 1209.73        2960.50           2293         135.00       582.84
 1209.76        2960.75           2296         136.00       587.20
 1209.79        2961.00           2300         172.00       744.13
 1209.82        2961.25           2303         389.00      1690.16
 1209.85        2961.50           2307        1331.00      5797.57
 1209.88        2961.75           2310        2412.00     10512.48
 1209.92        2962.00           2314        4054.00     17677.14
 1209.95        2962.25           2317        5285.00     23050.76
 1209.98        2962.50           2321        7104.00     30994.72
 1210.01        2962.75           2324        8433.00     36801.47
 1210.04        2963.00           2328       10270.00     44831.58
 1210.07        2963.25           2331       11773.00     51404.94
 1210.10        2963.50           2335       13716.00     59906.99
 1210.13        2963.75           2339       15423.00     67380.43
 1210.16        2964.00           2342       16804.00     73429.40
 1210.19        2964.25           2346       18709.00     81777.62
 1210.22        2964.50           2349       20211.00     88363.15
 1210.25        2964.75           2353       22193.00     97057.77
 1210.28        2965.00           2356       23465.00    102640.50
 1210.31        2965.25           2360       25025.00    109490.10
 1210.34        2965.50           2363       26096.00    114194.50
 1210.37        2965.75           2367       28107.00    123031.90
 1210.40        2966.00           2370       29303.00    128290.30
 1210.43        2966.25           2374       31010.00    135798.60
 1210.47        2966.50           2378       31756.00    139081.20
 1210.50        2966.75           2381       32041.00    140335.40
 1210.53        2967.00           2385       32067.00    140449.80
 1210.56        2967.25           2388       32174.00    140920.80
 1210.59        2967.50           2392       31929.00    139842.50
 1210.62        2967.75           2395       32097.00    140581.90
 1210.65        2968.00           2399       31286.00    137013.00
 1210.68        2968.25           2402       29778.00    130379.20
 1210.71        2968.50           2406       28132.00    123141.80
 1210.74        2968.75           2409       26820.00    117375.50
 1210.77        2969.00           2413       24982.00    109301.30
 1210.80        2969.25           2417       23299.00    101911.80
 1210.83        2969.50           2420       22150.00     96869.08
 1210.86        2969.75           2424       20020.00     87525.56
 1210.89        2970.00           2427       18403.00     80436.33
 1210.92        2970.25           2431       16395.00     71637.66
 1210.95        2970.50           2434       14891.00     65050.87
 1210.99        2970.75           2438       12903.00     56348.92
 1211.02        2971.00           2441       11555.00     50451.34
 1211.05        2971.25           2445        9767.00     42632.37
 1211.08        2971.50           2449        7730.00     33729.60
 1211.11        2971.75           2452        6247.00     27251.48
 1211.14        2972.00           2456        4401.00     19191.68
 1211.17        2972.25           2459        3133.00     13658.04
 1211.20        2972.50           2463        1613.00      7027.40
 1211.23        2972.75           2466         785.00      3416.70
 1211.26        2973.00           2470         244.00      1058.02
 1211.29        2973.25           2473         170.00       735.42
 1211.32        2973.50           2477         151.00       652.59
 1211.35        2973.75           2481         132.00       569.76
 1211.38        2974.00           2484         168.00       726.70
 1211.41        2974.25           2488         142.00       613.35
 1211.44        2974.50           2491         161.00       696.18
 1211.47        2974.75           2495         165.00       713.62
 1211.51        2975.00           2498         130.00       561.04
 1211.54        2975.25           2502         133.00       574.12
 1211.57        2975.50           2505         139.00       600.27
 1211.60        2975.75           2509         146.00       630.79
 1211.63        2976.00           2512         110.00       473.85
 1211.66        2976.25           2516         129.00       556.68
 1211.69        2976.50           2520         124.00       534.88
 1211.72        2976.75           2523         136.00       587.20
 1211.75        2977.00           2527         120.00       517.45
 1211.78        2977.25           2530         121.00       521.81
 1211.81        2977.50           2534         103.00       443.34
 1211.84        2977.75           2537         107.00       460.77
 1211.87        2978.00           2541          96.00       412.82
 1211.90        2978.25           2544         111.00       478.21
 1211.93        2978.50           2548         110.00       473.85
 1211.96        2978.75           2552          94.00       404.10
 1211.99        2979.00           2555         101.00       434.62
 1212.03        2979.25           2559          99.00       425.90
 1212.06        2979.50           2562         106.00       456.42
 1212.09        2979.75           2566          93.00       399.74
 1212.12        2980.00           2569          93.00       399.74
 1212.15        2980.25           2573         106.00       456.42
 1212.18        2980.50           2577          92.00       395.38
 1212.21        2980.75           2580          92.00       395.38
 1212.24        2981.00           2584          89.00       382.31
 1212.27        2981.25           2587          96.00       412.82
 1212.30        2981.50           2591          90.00       386.67
 1212.33        2981.75           2594          88.00       377.95
 1212.36        2982.00           2598          97.00       417.18
 1212.39        2982.25           2601          91.00       391.03
 1212.42        2982.50           2605         119.00       513.09
 1212.45        2982.75           2609          86.00       369.23
 1212.48        2983.00           2612          87.00       373.59
 1212.51        2983.25           2616          91.00       391.03
 1212.55        2983.50           2619          91.00       391.03
 1212.58        2983.75           2623          92.00       395.38
 1212.61        2984.00           2626          90.00       386.67
HS scan finished at 20:12:50
end
