************************************************************
  HS Scan of 
************************************************************
Integration time is 0.2294 seconds per sample
dh230417Reading 51.44 .94 2.88pr1000
************************************************************
Dead Time -------------------------  3.4E-08 
Number of Cycles Used -------------  4 
Starting Wavelength (Angstroms) ---  2950 
Final Wavelength (Angstoms) -------  2984 
Wavelength Increment (Angstroms) --  .25 
Filter Wheel #1 Position ---------- (1) Ground quartz diffuser (ND=2.32)
Filter Wheel #2 Position ---------- (1) Neutral Density 0.494



************************************************************
HS scan start time = 01:13:59
Dark Count =  .6 


Time (GMT)  Wavelength (Ang)  Step Number  Raw Counts  Counts/Second

   74.88        2950.00           2144         639.00      2783.18
   75.07        2950.25           2147         662.00      2883.46
   75.10        2950.50           2151         624.00      2717.78
   75.14        2950.75           2155         644.00      2804.98
   75.17        2951.00           2158         594.00      2586.98
   75.20        2951.25           2162         638.00      2778.82
   75.23        2951.50           2165         639.00      2783.18
   75.26        2951.75           2169         654.00      2848.58
   75.29        2952.00           2172         649.00      2826.78
   75.32        2952.25           2176         664.00      2892.18
   75.35        2952.50           2179         650.00      2831.14
   75.38        2952.75           2183         654.00      2848.58
   75.41        2953.00           2186         660.00      2874.74
   75.44        2953.25           2190         676.00      2944.50
   75.47        2953.50           2193         665.00      2896.54
   75.50        2953.75           2197         681.00      2966.30
   75.53        2954.00           2200         667.00      2905.26
   75.56        2954.25           2204         660.00      2874.74
   75.59        2954.50           2208         685.00      2983.74
   75.62        2954.75           2211         717.00      3123.26
   75.66        2955.00           2215         713.00      3105.82
   75.69        2955.25           2218         723.00      3149.42
   75.72        2955.50           2222         709.00      3088.38
   75.75        2955.75           2225         689.00      3001.18
   75.78        2956.00           2229         716.00      3118.90
   75.81        2956.25           2232         699.00      3044.78
   75.84        2956.50           2236         709.00      3088.38
   75.87        2956.75           2239         709.00      3088.38
   75.90        2957.00           2243         735.00      3201.74
   75.93        2957.25           2246         755.00      3288.95
   75.96        2957.50           2250         747.00      3254.07
   75.99        2957.75           2254         764.00      3328.19
   76.02        2958.00           2257         767.00      3341.27
   76.05        2958.25           2261         748.00      3258.43
   76.08        2958.50           2264         783.00      3411.03
   76.11        2958.75           2268         791.00      3445.91
   76.14        2959.00           2271         778.00      3389.23
   76.18        2959.25           2275         810.00      3528.76
   76.21        2959.50           2278         821.00      3576.72
   76.24        2959.75           2282         839.00      3655.21
   76.27        2960.00           2285         890.00      3877.58
   76.30        2960.25           2289         846.00      3685.73
   76.33        2960.50           2293         889.00      3873.22
   76.36        2960.75           2296         897.00      3908.10
   76.39        2961.00           2300         957.00      4169.73
   76.42        2961.25           2303        1138.00      4958.99
   76.45        2961.50           2307        4063.00     17719.48
   76.48        2961.75           2310       10146.00     44292.46
   76.51        2962.00           2314       20130.00     88011.00
   76.54        2962.25           2317       27825.00    121795.40
   76.57        2962.50           2321       38656.00    169480.30
   76.60        2962.75           2324       47445.00    208289.40
   76.63        2963.00           2328       59561.00    261958.40
   76.66        2963.25           2331       68637.00    302290.70
   76.70        2963.50           2335       80087.00    353331.70
   76.73        2963.75           2339       91800.00    405730.30
   76.76        2964.00           2342      101810.00    450660.00
   76.79        2964.25           2346      114931.00    509763.50
   76.82        2964.50           2349      123989.00    550705.50
   76.85        2964.75           2353      135540.00    603083.40
   76.88        2965.00           2356      143311.00    638427.10
   76.91        2965.25           2360      155106.00    692237.50
   76.94        2965.50           2363      163733.00    731721.60
   76.97        2965.75           2367      175310.00    784876.50
   77.00        2966.00           2370      184004.00    824922.80
   77.03        2966.25           2374      194675.00    874227.20
   77.06        2966.50           2378      202801.00    911885.50
   77.09        2966.75           2381      206896.00    930900.20
   77.12        2967.00           2385      207140.00    932034.00
   77.15        2967.25           2388      207391.00    933200.40
   77.18        2967.50           2392      207422.00    933344.40
   77.22        2967.75           2395      206723.00    930096.30
   77.25        2968.00           2399      202883.00    912266.00
   77.28        2968.25           2402      196216.00    881361.10
   77.31        2968.50           2406      185876.00    833560.00
   77.34        2968.75           2409      178066.00    797559.20
   77.37        2969.00           2413      167635.00    749615.60
   77.40        2969.25           2417      155621.00    694591.60
   77.43        2969.50           2420      145967.00    650526.90
   77.46        2969.75           2424      133582.00    594191.50
   77.49        2970.00           2427      124260.00    551932.10
   77.52        2970.25           2431      111930.00    496224.30
   77.55        2970.50           2434      103831.00    459747.90
   77.58        2970.75           2438       90802.00    401258.40
   77.61        2971.00           2441       80473.00    355055.50
   77.64        2971.25           2445       68307.00    300822.30
   77.67        2971.50           2449       56643.00    249014.80
   77.70        2971.75           2452       47488.00    208479.50
   77.74        2972.00           2456       36687.00    160800.00
   77.77        2972.25           2459       28409.00    124362.60
   77.80        2972.50           2463       16042.00     70094.50
   77.83        2972.75           2466        7906.00     34501.65
   77.86        2973.00           2470        2364.00     10306.14
   77.89        2973.25           2473        1252.00      5456.11
   77.92        2973.50           2477         980.00      4270.02
   77.95        2973.75           2481         965.00      4204.61
   77.98        2974.00           2484         908.00      3956.07
   78.01        2974.25           2488         882.00      3842.70
   78.04        2974.50           2491         859.00      3742.41
   78.07        2974.75           2495         832.00      3624.68
   78.10        2975.00           2498         841.00      3663.93
   78.13        2975.25           2502         820.00      3572.36
   78.16        2975.50           2505         861.00      3751.13
   78.19        2975.75           2509         820.00      3572.36
   78.22        2976.00           2512         797.00      3472.08
   78.26        2976.25           2516         787.00      3428.47
   78.29        2976.50           2520         760.00      3310.75
   78.32        2976.75           2523         789.00      3437.19
   78.35        2977.00           2527         767.00      3341.27
   78.38        2977.25           2530         762.00      3319.47
   78.41        2977.50           2534         764.00      3328.19
   78.44        2977.75           2537         735.00      3201.74
   78.47        2978.00           2541         707.00      3079.66
   78.50        2978.25           2544         699.00      3044.78
   78.53        2978.50           2548         715.00      3114.54
   78.56        2978.75           2552         677.00      2948.86
   78.59        2979.00           2555         706.00      3075.30
   78.62        2979.25           2559         696.00      3031.70
   78.65        2979.50           2562         682.00      2970.66
   78.68        2979.75           2566         676.00      2944.50
   78.71        2980.00           2569         668.00      2909.62
   78.74        2980.25           2573         683.00      2975.02
   78.78        2980.50           2577         676.00      2944.50
   78.81        2980.75           2580         678.00      2953.22
   78.84        2981.00           2584         645.00      2809.34
   78.87        2981.25           2587         678.00      2953.22
   78.90        2981.50           2591         630.00      2743.94
   78.93        2981.75           2594         664.00      2892.18
   78.96        2982.00           2598         658.00      2866.02
   78.99        2982.25           2601         655.00      2852.94
   79.02        2982.50           2605         641.00      2791.90
   79.05        2982.75           2609         638.00      2778.82
   79.08        2983.00           2612         637.00      2774.46
   79.11        2983.25           2616         616.00      2682.90
   79.14        2983.50           2619         641.00      2791.90
   79.17        2983.75           2623         631.00      2748.30
   79.20        2984.00           2626         633.00      2757.02
HS scan finished at 01:19:25
end
************************************************************
  HS Scan of 
************************************************************
Integration time is 0.2294 seconds per sample
dh230417Reading 51.44 .94 3.31pr1000
************************************************************
Dead Time -------------------------  3.4E-08 
Number of Cycles Used -------------  4 
Starting Wavelength (Angstroms) ---  2950 
Final Wavelength (Angstoms) -------  2984 
Wavelength Increment (Angstroms) --  .25 
Filter Wheel #1 Position ---------- (1) Ground quartz diffuser (ND=2.32)
Filter Wheel #2 Position ---------- (1) Neutral Density 0.494



************************************************************
HS scan start time = 20:07:29
Dark Count =  2.1 


Time (GMT)  Wavelength (Ang)  Step Number  Raw Counts  Counts/Second

 1208.38        2950.00           2144         620.00      2693.80
 1208.58        2950.25           2147         627.00      2724.32
 1208.61        2950.50           2151         619.00      2689.44
 1208.64        2950.75           2155         624.00      2711.24
 1208.67        2951.00           2158         646.00      2807.16
 1208.70        2951.25           2162         661.00      2872.56
 1208.73        2951.50           2165         619.00      2689.44
 1208.76        2951.75           2169         647.00      2811.52
 1208.79        2952.00           2172         629.00      2733.04
 1208.82        2952.25           2176         658.00      2859.48
 1208.85        2952.50           2179         614.00      2667.64
 1208.88        2952.75           2183         679.00      2951.04
 1208.91        2953.00           2186         647.00      2811.52
 1208.94        2953.25           2190         663.00      2881.28
 1208.97        2953.50           2193         639.00      2776.64
 1209.00        2953.75           2197         667.00      2898.72
 1209.04        2954.00           2200         678.00      2946.68
 1209.07        2954.25           2204         673.00      2924.88
 1209.10        2954.50           2208         659.00      2863.84
 1209.13        2954.75           2211         685.00      2977.20
 1209.16        2955.00           2215         663.00      2881.28
 1209.19        2955.25           2218         675.00      2933.60
 1209.22        2955.50           2222         680.00      2955.40
 1209.25        2955.75           2225         673.00      2924.88
 1209.28        2956.00           2229         693.00      3012.08
 1209.31        2956.25           2232         687.00      2985.92
 1209.34        2956.50           2236         728.00      3164.68
 1209.37        2956.75           2239         695.00      3020.80
 1209.40        2957.00           2243         695.00      3020.80
 1209.43        2957.25           2246         725.00      3151.60
 1209.46        2957.50           2250         720.00      3129.80
 1209.49        2957.75           2254         723.00      3142.88
 1209.52        2958.00           2257         722.00      3138.52
 1209.56        2958.25           2261         748.00      3251.89
 1209.59        2958.50           2264         764.00      3321.65
 1209.62        2958.75           2268         756.00      3286.77
 1209.65        2959.00           2271         771.00      3352.17
 1209.68        2959.25           2275         801.00      3482.98
 1209.71        2959.50           2278         784.00      3408.85
 1209.74        2959.75           2282         777.00      3378.33
 1209.77        2960.00           2285         793.00      3448.09
 1209.80        2960.25           2289         798.00      3469.90
 1209.83        2960.50           2293         811.00      3526.58
 1209.86        2960.75           2296         857.00      3727.15
 1209.89        2961.00           2300         947.00      4119.58
 1209.92        2961.25           2303        1471.00      6404.62
 1209.95        2961.50           2307        4929.00     21493.03
 1209.98        2961.75           2310       10733.00     46852.70
 1210.01        2962.00           2314       21042.00     92004.44
 1210.04        2962.25           2317       29039.00    127125.90
 1210.07        2962.50           2321       39767.00    174373.80
 1210.11        2962.75           2324       48137.00    211342.80
 1210.14        2963.00           2328       59454.00    261476.90
 1210.17        2963.25           2331       68532.00    301816.80
 1210.20        2963.50           2335       80638.00    355785.80
 1210.23        2963.75           2339       92389.00    408363.50
 1210.26        2964.00           2342      100345.00    444068.90
 1210.29        2964.25           2346      111975.00    496420.50
 1210.32        2964.50           2349      121199.00    538075.60
 1210.35        2964.75           2353      132883.00    591011.70
 1210.38        2965.00           2356      141648.00    630849.50
 1210.41        2965.25           2360      152071.00    678365.60
 1210.44        2965.50           2363      159738.00    713417.00
 1210.47        2965.75           2367      169884.00    759932.30
 1210.50        2966.00           2370      178371.00    798956.60
 1210.53        2966.25           2374      189293.00    849332.20
 1210.56        2966.50           2378      196155.00    881071.80
 1210.59        2966.75           2381      198822.00    893426.40
 1210.63        2967.00           2385      199579.00    896935.10
 1210.66        2967.25           2388      199942.00    898617.90
 1210.69        2967.50           2392      199969.00    898743.10
 1210.72        2967.75           2395      199463.00    896397.40
 1210.75        2968.00           2399      197090.00    885401.80
 1210.78        2968.25           2402      191661.00    860277.40
 1210.81        2968.50           2406      181498.00    813361.40
 1210.84        2968.75           2409      172447.00    771706.20
 1210.87        2969.00           2413      161434.00    721182.10
 1210.90        2969.25           2417      150978.00    673375.50
 1210.93        2969.50           2420      142546.00    634937.20
 1210.96        2969.75           2424      130913.00    582072.80
 1210.99        2970.00           2427      121241.00    538265.60
 1211.02        2970.25           2431      107494.00    476227.40
 1211.05        2970.50           2434       99117.00    438552.20
 1211.08        2970.75           2438       86677.00    382782.50
 1211.11        2971.00           2441       77217.00    340514.60
 1211.15        2971.25           2445       66153.00    291234.50
 1211.18        2971.50           2449       55348.00    243267.50
 1211.21        2971.75           2452       45860.00    201276.40
 1211.24        2972.00           2456       33729.00    147762.70
 1211.27        2972.25           2459       25377.00    111032.60
 1211.30        2972.50           2463       14640.00     63948.40
 1211.34        2972.75           2466        7813.00     34088.74
 1211.37        2973.00           2470        2586.00     11268.05
 1211.40        2973.25           2473        1291.00      5619.64
 1211.43        2973.50           2477         972.00      4228.59
 1211.46        2973.75           2481         893.00      3884.12
 1211.49        2974.00           2484         843.00      3666.11
 1211.52        2974.25           2488         833.00      3622.50
 1211.55        2974.50           2491         805.00      3500.42
 1211.58        2974.75           2495         792.00      3443.73
 1211.61        2975.00           2498         791.00      3439.37
 1211.64        2975.25           2502         758.00      3295.49
 1211.67        2975.50           2505         771.00      3352.17
 1211.70        2975.75           2509         742.00      3225.72
 1211.73        2976.00           2512         751.00      3264.97
 1211.76        2976.25           2516         733.00      3186.48
 1211.79        2976.50           2520         723.00      3142.88
 1211.82        2976.75           2523         685.00      2977.20
 1211.86        2977.00           2527         694.00      3016.44
 1211.89        2977.25           2530         698.00      3033.88
 1211.92        2977.50           2534         691.00      3003.36
 1211.95        2977.75           2537         684.00      2972.84
 1211.98        2978.00           2541         669.00      2907.44
 1212.01        2978.25           2544         688.00      2990.28
 1212.04        2978.50           2548         658.00      2859.48
 1212.07        2978.75           2552         703.00      3055.68
 1212.10        2979.00           2555         647.00      2811.52
 1212.13        2979.25           2559         639.00      2776.64
 1212.16        2979.50           2562         613.00      2663.28
 1212.19        2979.75           2566         639.00      2776.64
 1212.22        2980.00           2569         629.00      2733.04
 1212.25        2980.25           2573         625.00      2715.60
 1212.28        2980.50           2577         605.00      2628.40
 1212.31        2980.75           2580         625.00      2715.60
 1212.34        2981.00           2584         623.00      2706.88
 1212.37        2981.25           2587         609.00      2645.84
 1212.41        2981.50           2591         609.00      2645.84
 1212.44        2981.75           2594         608.00      2641.48
 1212.47        2982.00           2598         587.00      2549.92
 1212.50        2982.25           2601         588.00      2554.28
 1212.53        2982.50           2605         590.00      2563.00
 1212.56        2982.75           2609         581.00      2523.76
 1212.59        2983.00           2612         597.00      2593.52
 1212.62        2983.25           2616         597.00      2593.52
 1212.65        2983.50           2619         590.00      2563.00
 1212.68        2983.75           2623         589.00      2558.64
 1212.71        2984.00           2626         583.00      2532.48
HS scan finished at 20:12:56
end
