************************************************************
  HS Scan of 
************************************************************
Integration time is 0.2294 seconds per sample
dh290417Reading 51.44 .94 2.9pr1000
************************************************************
Dead Time -------------------------  3.4E-08 
Number of Cycles Used -------------  4 
Starting Wavelength (Angstroms) ---  2950 
Final Wavelength (Angstoms) -------  2984 
Wavelength Increment (Angstroms) --  .25 
Filter Wheel #1 Position ---------- (1) Ground quartz diffuser (ND=2.32)
Filter Wheel #2 Position ---------- (1) Neutral Density 0.494



************************************************************
HS scan start time = 01:09:57
Dark Count =  .7 


Time (GMT)  Wavelength (Ang)  Step Number  Raw Counts  Counts/Second

   70.85        2950.00           2144         645.00      2808.90
   71.04        2950.25           2147         629.00      2739.14
   71.07        2950.50           2151         637.00      2774.02
   71.10        2950.75           2155         644.00      2804.54
   71.13        2951.00           2158         645.00      2808.90
   71.16        2951.25           2162         663.00      2887.38
   71.19        2951.50           2165         647.00      2817.62
   71.22        2951.75           2169         631.00      2747.86
   71.25        2952.00           2172         658.00      2865.58
   71.28        2952.25           2176         676.00      2944.06
   71.31        2952.50           2179         687.00      2992.02
   71.34        2952.75           2183         672.00      2926.62
   71.37        2953.00           2186         665.00      2896.10
   71.41        2953.25           2190         669.00      2913.54
   71.44        2953.50           2193         672.00      2926.62
   71.47        2953.75           2197         696.00      3031.26
   71.50        2954.00           2200         686.00      2987.66
   71.53        2954.25           2204         696.00      3031.26
   71.56        2954.50           2208         673.00      2930.98
   71.59        2954.75           2211         704.00      3066.14
   71.62        2955.00           2215         723.00      3148.99
   71.65        2955.25           2218         703.00      3061.78
   71.68        2955.50           2222         704.00      3066.14
   71.71        2955.75           2225         714.00      3109.74
   71.74        2956.00           2229         714.00      3109.74
   71.77        2956.25           2232         734.00      3196.95
   71.80        2956.50           2236         725.00      3157.71
   71.83        2956.75           2239         762.00      3319.03
   71.86        2957.00           2243         736.00      3205.67
   71.89        2957.25           2246         773.00      3366.99
   71.93        2957.50           2250         774.00      3371.35
   71.96        2957.75           2254         779.00      3393.16
   71.99        2958.00           2257         773.00      3366.99
   72.02        2958.25           2261         765.00      3332.11
   72.05        2958.50           2264         772.00      3362.63
   72.08        2958.75           2268         801.00      3489.08
   72.11        2959.00           2271         800.00      3484.72
   72.14        2959.25           2275         837.00      3646.05
   72.17        2959.50           2278         847.00      3689.65
   72.20        2959.75           2282         815.00      3550.12
   72.23        2960.00           2285         854.00      3720.17
   72.26        2960.25           2289         899.00      3916.39
   72.29        2960.50           2293         868.00      3781.22
   72.32        2960.75           2296         931.00      4055.92
   72.35        2961.00           2300        1007.00      4387.32
   72.39        2961.25           2303        1359.00      5922.29
   72.43        2961.50           2307        4794.00     20909.81
   72.46        2961.75           2310       10791.00     47112.46
   72.49        2962.00           2314       20537.00     89795.54
   72.52        2962.25           2317       28788.00    126028.40
   72.55        2962.50           2321       41134.00    180411.50
   72.58        2962.75           2324       50704.00    222705.70
   72.61        2963.00           2328       63516.00    279519.70
   72.64        2963.25           2331       72510.00    319535.10
   72.67        2963.50           2335       84158.00    371521.80
   72.70        2963.75           2339       96451.00    426588.60
   72.73        2964.00           2342      106002.00    469516.30
   72.76        2964.25           2346      118774.00    527119.20
   72.79        2964.50           2349      127851.00    568196.20
   72.83        2964.75           2353      139646.00    621747.00
   72.86        2965.00           2356      148305.00    661185.60
   72.89        2965.25           2360      159126.00    710622.40
   72.92        2965.50           2363      167925.00    750945.80
   72.95        2965.75           2367      178891.00    801357.40
   72.98        2966.00           2370      187364.00    840428.70
   73.01        2966.25           2374      197962.00    889447.90
   73.04        2966.50           2378      205776.00    925696.60
   73.07        2966.75           2381      207022.00    931485.10
   73.10        2967.00           2385      208470.00    938215.10
   73.13        2967.25           2388      208797.00    939735.20
   73.16        2967.50           2392      208817.00    939828.20
   73.19        2967.75           2395      207961.00    935849.00
   73.22        2968.00           2399      205149.00    922784.60
   73.25        2968.25           2402      198361.00    891296.60
   73.28        2968.50           2406      187988.00    843310.40
   73.31        2968.75           2409      180558.00    809036.00
   73.35        2969.00           2413      170880.00    764513.00
   73.38        2969.25           2417      158375.00    707186.00
   73.41        2969.50           2420      149112.00    664866.70
   73.44        2969.75           2424      136673.00    608230.60
   73.47        2970.00           2427      127271.00    565568.00
   73.50        2970.25           2431      115438.00    512051.60
   73.53        2970.50           2434      105893.00    469025.70
   73.56        2970.75           2438       92547.00    409078.00
   73.59        2971.00           2441       83598.00    369018.20
   73.62        2971.25           2445       70587.00    310970.20
   73.65        2971.50           2449       56813.00    249768.10
   73.68        2971.75           2452       47103.00    206776.90
   73.71        2972.00           2456       35476.00    155463.40
   73.74        2972.25           2459       27246.00    119250.20
   73.77        2972.50           2463       16645.00     72735.46
   73.80        2972.75           2466        9303.00     40606.60
   73.83        2973.00           2470        2845.00     12404.10
   73.87        2973.25           2473        1374.00      5987.71
   73.90        2973.50           2477         998.00      4348.07
   73.93        2973.75           2481         959.00      4178.01
   73.96        2974.00           2484         945.00      4116.97
   73.99        2974.25           2488         915.00      3986.16
   74.02        2974.50           2491         893.00      3890.23
   74.05        2974.75           2495         901.00      3925.11
   74.08        2975.00           2498         831.00      3619.89
   74.11        2975.25           2502         845.00      3680.93
   74.14        2975.50           2505         839.00      3654.77
   74.17        2975.75           2509         819.00      3567.56
   74.20        2976.00           2512         808.00      3519.60
   74.23        2976.25           2516         797.00      3471.64
   74.26        2976.50           2520         808.00      3519.60
   74.29        2976.75           2523         784.00      3414.96
   74.32        2977.00           2527         773.00      3366.99
   74.35        2977.25           2530         796.00      3467.28
   74.39        2977.50           2534         779.00      3393.16
   74.42        2977.75           2537         755.00      3288.51
   74.45        2978.00           2541         736.00      3205.67
   74.48        2978.25           2544         740.00      3223.11
   74.51        2978.50           2548         707.00      3079.22
   74.54        2978.75           2552         736.00      3205.67
   74.57        2979.00           2555         711.00      3096.66
   74.60        2979.25           2559         730.00      3179.51
   74.63        2979.50           2562         728.00      3170.79
   74.66        2979.75           2566         708.00      3083.58
   74.69        2980.00           2569         713.00      3105.38
   74.72        2980.25           2573         679.00      2957.14
   74.75        2980.50           2577         689.00      3000.74
   74.78        2980.75           2580         660.00      2874.30
   74.81        2981.00           2584         721.00      3140.27
   74.84        2981.25           2587         688.00      2996.38
   74.87        2981.50           2591         679.00      2957.14
   74.91        2981.75           2594         651.00      2835.06
   74.94        2982.00           2598         673.00      2930.98
   74.97        2982.25           2601         676.00      2944.06
   75.00        2982.50           2605         666.00      2900.46
   75.03        2982.75           2609         673.00      2930.98
   75.06        2983.00           2612         647.00      2817.62
   75.09        2983.25           2616         662.00      2883.02
   75.12        2983.50           2619         648.00      2821.98
   75.15        2983.75           2623         641.00      2791.46
   75.18        2984.00           2626         657.00      2861.22
HS scan finished at 01:15:24
end
************************************************************
  HS Scan of 
************************************************************
Integration time is 0.2294 seconds per sample
dh290417Reading 51.44 .94 3.31pr1000
************************************************************
Dead Time -------------------------  3.4E-08 
Number of Cycles Used -------------  4 
Starting Wavelength (Angstroms) ---  2950 
Final Wavelength (Angstoms) -------  2984 
Wavelength Increment (Angstroms) --  .25 
Filter Wheel #1 Position ---------- (1) Ground quartz diffuser (ND=2.32)
Filter Wheel #2 Position ---------- (1) Neutral Density 0.494



************************************************************
HS scan start time = 20:07:22
Dark Count =  2.2 


Time (GMT)  Wavelength (Ang)  Step Number  Raw Counts  Counts/Second

 1208.26        2950.00           2144         501.00      2174.53
 1208.46        2950.25           2147         485.00      2104.77
 1208.49        2950.50           2151         481.00      2087.33
 1208.52        2950.75           2155         480.00      2082.97
 1208.55        2951.00           2158         485.00      2104.77
 1208.58        2951.25           2162         484.00      2100.41
 1208.61        2951.50           2165         478.00      2074.25
 1208.64        2951.75           2169         472.00      2048.09
 1208.67        2952.00           2172         501.00      2174.53
 1208.70        2952.25           2176         499.00      2165.81
 1208.73        2952.50           2179         495.00      2148.37
 1208.76        2952.75           2183         476.00      2065.53
 1208.79        2953.00           2186         498.00      2161.45
 1208.82        2953.25           2190         486.00      2109.13
 1208.85        2953.50           2193         522.00      2266.09
 1208.88        2953.75           2197         504.00      2187.61
 1208.92        2954.00           2200         501.00      2174.53
 1208.95        2954.25           2204         503.00      2183.25
 1208.98        2954.50           2208         517.00      2244.29
 1209.01        2954.75           2211         526.00      2283.53
 1209.04        2955.00           2215         511.00      2218.13
 1209.07        2955.25           2218         532.00      2309.68
 1209.10        2955.50           2222         537.00      2331.48
 1209.13        2955.75           2225         533.00      2314.04
 1209.16        2956.00           2229         517.00      2244.29
 1209.19        2956.25           2232         559.00      2427.40
 1209.22        2956.50           2236         552.00      2396.88
 1209.25        2956.75           2239         533.00      2314.04
 1209.28        2957.00           2243         555.00      2409.96
 1209.31        2957.25           2246         539.00      2340.20
 1209.34        2957.50           2250         567.00      2462.28
 1209.37        2957.75           2254         641.00      2784.92
 1209.40        2958.00           2257         549.00      2383.80
 1209.44        2958.25           2261         594.00      2580.00
 1209.47        2958.50           2264         582.00      2527.68
 1209.50        2958.75           2268         584.00      2536.40
 1209.53        2959.00           2271         605.00      2627.96
 1209.56        2959.25           2275         609.00      2645.40
 1209.59        2959.50           2278         617.00      2680.28
 1209.62        2959.75           2282         629.00      2732.60
 1209.65        2960.00           2285         645.00      2802.36
 1209.68        2960.25           2289         670.00      2911.36
 1209.71        2960.50           2293         633.00      2750.04
 1209.74        2960.75           2296         668.00      2902.64
 1209.77        2961.00           2300         712.00      3094.48
 1209.80        2961.25           2303         930.00      4045.02
 1209.83        2961.50           2307        2768.00     12061.62
 1209.86        2961.75           2310        7474.00     32607.18
 1209.89        2962.00           2314       16152.00     70569.29
 1209.92        2962.25           2317       22789.00     99669.36
 1209.96        2962.50           2321       30962.00    135583.50
 1209.99        2962.75           2324       37865.00    165985.60
 1210.02        2963.00           2328       48143.00    211368.90
 1210.05        2963.25           2331       56664.00    249100.80
 1210.08        2963.50           2335       66826.00    294226.80
 1210.11        2963.75           2339       76414.00    336932.00
 1210.14        2964.00           2342       83546.00    368779.10
 1210.17        2964.25           2346       93579.00    413698.00
 1210.20        2964.50           2349      100419.00    444401.00
 1210.23        2964.75           2353      111163.00    492758.80
 1210.26        2965.00           2356      118866.00    527528.20
 1210.29        2965.25           2360      128722.00    572137.10
 1210.32        2965.50           2363      135090.00    601031.90
 1210.35        2965.75           2367      143923.00    641207.00
 1210.38        2966.00           2370      150701.00    672110.60
 1210.41        2966.25           2374      158714.00    708730.10
 1210.44        2966.50           2378      164995.00    737499.10
 1210.47        2966.75           2381      167267.00    747919.70
 1210.51        2967.00           2385      168387.00    753059.30
 1210.54        2967.25           2388      168002.00    751292.30
 1210.57        2967.50           2392      167939.00    751003.30
 1210.60        2967.75           2395      167675.00    749791.70
 1210.63        2968.00           2399      164964.00    737357.00
 1210.66        2968.25           2402      160600.00    717362.60
 1210.69        2968.50           2406      151578.00    676114.10
 1210.72        2968.75           2409      144485.00    643766.90
 1210.75        2969.00           2413      135689.00    603753.00
 1210.78        2969.25           2417      126338.00    561334.50
 1210.81        2969.50           2420      120411.00    534512.00
 1210.84        2969.75           2424      111391.00    493786.70
 1210.87        2970.00           2427      104642.00    463389.20
 1210.90        2970.25           2431       93343.00    412639.90
 1210.93        2970.50           2434       86004.00    379771.00
 1210.96        2970.75           2438       75260.00    331785.40
 1211.00        2971.00           2441       67995.00    299427.00
 1211.03        2971.25           2445       58832.00    258716.60
 1211.06        2971.50           2449       49505.00    217393.40
 1211.09        2971.75           2452       42358.00    185807.50
 1211.12        2972.00           2456       33063.00    144830.00
 1211.15        2972.25           2459       26287.00    115029.70
 1211.18        2972.50           2463       16168.00     70639.38
 1211.21        2972.75           2466        9301.00     40591.29
 1211.24        2973.00           2470        3110.00     13553.76
 1211.27        2973.25           2473        1355.00      5898.31
 1211.30        2973.50           2477         827.00      3595.91
 1211.33        2973.75           2481         724.00      3146.81
 1211.36        2974.00           2484         758.00      3295.05
 1211.39        2974.25           2488         681.00      2959.32
 1211.42        2974.50           2491         666.00      2893.92
 1211.45        2974.75           2495         666.00      2893.92
 1211.48        2975.00           2498         664.00      2885.20
 1211.51        2975.25           2502         613.00      2662.84
 1211.55        2975.50           2505         668.00      2902.64
 1211.58        2975.75           2509         626.00      2719.52
 1211.61        2976.00           2512         611.00      2654.12
 1211.64        2976.25           2516         629.00      2732.60
 1211.67        2976.50           2520         587.00      2549.48
 1211.70        2976.75           2523         569.00      2471.00
 1211.73        2977.00           2527         556.00      2414.32
 1211.76        2977.25           2530         589.00      2558.20
 1211.79        2977.50           2534         541.00      2348.92
 1211.82        2977.75           2537         569.00      2471.00
 1211.85        2978.00           2541         579.00      2514.60
 1211.88        2978.25           2544         546.00      2370.72
 1211.91        2978.50           2548         544.00      2362.00
 1211.94        2978.75           2552         548.00      2379.44
 1211.97        2979.00           2555         537.00      2331.48
 1212.00        2979.25           2559         549.00      2383.80
 1212.03        2979.50           2562         541.00      2348.92
 1212.07        2979.75           2566         515.00      2235.57
 1212.10        2980.00           2569         540.00      2344.56
 1212.13        2980.25           2573         518.00      2248.65
 1212.16        2980.50           2577         521.00      2261.73
 1212.19        2980.75           2580         518.00      2248.65
 1212.22        2981.00           2584         499.00      2165.81
 1212.25        2981.25           2587         543.00      2357.64
 1212.28        2981.50           2591         489.00      2122.21
 1212.31        2981.75           2594         497.00      2157.09
 1212.34        2982.00           2598         484.00      2100.41
 1212.37        2982.25           2601         499.00      2165.81
 1212.40        2982.50           2605         495.00      2148.37
 1212.43        2982.75           2609         482.00      2091.69
 1212.46        2983.00           2612         459.00      1991.42
 1212.49        2983.25           2616         481.00      2087.33
 1212.52        2983.50           2619         529.00      2296.60
 1212.55        2983.75           2623         442.00      1917.30
 1212.59        2984.00           2626         467.00      2026.29
HS scan finished at 20:12:48
end
