************************************************************
  HS Scan of (1) Internal mercury lamp
************************************************************
Integration time is 0.2294 seconds per sample
dh250418Reading 51.44 .94 3.07pr1000
************************************************************
Dead Time -------------------------  3.4E-08 
Number of Cycles Used -------------  4 
Starting Wavelength (Angstroms) ---  2950 
Final Wavelength (Angstoms) -------  2984 
Wavelength Increment (Angstroms) --  .25 
Filter Wheel #1 Position ---------- (1) Ground quartz diffuser (ND=2.32)
Filter Wheel #2 Position ---------- (1) Neutral Density 0.494



************************************************************
HS scan start time = 02:33:39
Dark Count =  .7 


Time (GMT)  Wavelength (Ang)  Step Number  Raw Counts  Counts/Second

  154.54        2950.00           2144          83.00       358.77
  154.74        2950.25           2147          80.00       345.69
  154.77        2950.50           2151          88.00       380.56
  154.80        2950.75           2155          91.00       393.64
  154.83        2951.00           2158          85.00       367.49
  154.86        2951.25           2162          90.00       389.28
  154.89        2951.50           2165          92.00       398.00
  154.92        2951.75           2169          95.00       411.08
  154.95        2952.00           2172          87.00       376.20
  154.98        2952.25           2176          90.00       389.28
  155.01        2952.50           2179          92.00       398.00
  155.04        2952.75           2183          75.00       323.89
  155.07        2953.00           2186          93.00       402.36
  155.10        2953.25           2190          90.00       389.28
  155.13        2953.50           2193          89.00       384.92
  155.16        2953.75           2197          87.00       376.20
  155.20        2954.00           2200          91.00       393.64
  155.23        2954.25           2204          91.00       393.64
  155.26        2954.50           2208          92.00       398.00
  155.29        2954.75           2211          91.00       393.64
  155.32        2955.00           2215          89.00       384.92
  155.35        2955.25           2218          90.00       389.28
  155.38        2955.50           2222         103.00       445.95
  155.41        2955.75           2225         108.00       467.75
  155.44        2956.00           2229         102.00       441.59
  155.47        2956.25           2232         116.00       502.62
  155.50        2956.50           2236          91.00       393.64
  155.53        2956.75           2239         139.00       602.89
  155.56        2957.00           2243          97.00       419.80
  155.59        2957.25           2246         117.00       506.98
  155.62        2957.50           2250         102.00       441.59
  155.65        2957.75           2254         129.00       559.30
  155.68        2958.00           2257         104.00       450.31
  155.72        2958.25           2261         105.00       454.67
  155.75        2958.50           2264         106.00       459.03
  155.78        2958.75           2268         128.00       554.94
  155.81        2959.00           2271         123.00       533.14
  155.84        2959.25           2275         111.00       480.83
  155.87        2959.50           2278         131.00       568.01
  155.90        2959.75           2282         151.00       655.20
  155.93        2960.00           2285         148.00       642.12
  155.96        2960.25           2289         147.00       637.76
  155.99        2960.50           2293         151.00       655.20
  156.02        2960.75           2296         139.00       602.89
  156.05        2961.00           2300         191.00       829.58
  156.08        2961.25           2303         481.00      2093.87
  156.11        2961.50           2307        1519.00      6620.06
  156.14        2961.75           2310        2649.00     11549.00
  156.17        2962.00           2314        4247.00     18522.12
  156.20        2962.25           2317        5537.00     24153.66
  156.24        2962.50           2321        7252.00     31643.88
  156.27        2962.75           2324        8600.00     37533.92
  156.30        2963.00           2328       10518.00     45918.63
  156.33        2963.25           2331       11987.00     52343.73
  156.36        2963.50           2335       13547.00     59169.92
  156.39        2963.75           2339       15617.00     68232.66
  156.42        2964.00           2342       16999.00     74286.35
  156.45        2964.25           2346       18929.00     82744.68
  156.48        2964.50           2349       20350.00     88975.39
  156.51        2964.75           2353       21940.00     95950.27
  156.54        2965.00           2356       23117.00    101115.60
  156.57        2965.25           2360       25055.00    109624.50
  156.60        2965.50           2363       26533.00    116117.10
  156.63        2965.75           2367       28366.00    124173.10
  156.66        2966.00           2370       29575.00    129489.10
  156.69        2966.25           2374       31224.00    136742.80
  156.72        2966.50           2378       31785.00    139211.40
  156.76        2966.75           2381       31807.00    139308.30
  156.79        2967.00           2385       31907.00    139748.30
  156.82        2967.25           2388       31884.00    139647.10
  156.85        2967.50           2392       31848.00    139488.70
  156.88        2967.75           2395       31644.00    138590.90
  156.91        2968.00           2399       30548.00    133768.80
  156.94        2968.25           2402       29447.00    128926.20
  156.97        2968.50           2406       27805.00    121707.00
  157.00        2968.75           2409       26401.00    115537.10
  157.03        2969.00           2413       24745.00    108263.10
  157.06        2969.25           2417       22673.00     99166.84
  157.09        2969.50           2420       21316.00     93212.56
  157.12        2969.75           2424       19413.00     84866.59
  157.15        2970.00           2427       18011.00     78720.88
  157.18        2970.25           2431       16076.00     70242.97
  157.21        2970.50           2434       14661.00     64046.47
  157.24        2970.75           2438       12626.00     55139.46
  157.27        2971.00           2441       11141.00     48643.16
  157.31        2971.25           2445        9168.00     40016.48
  157.34        2971.50           2449        7278.00     31757.47
  157.37        2971.75           2452        5865.00     25585.90
  157.40        2972.00           2456        3987.00     17387.35
  157.43        2972.25           2459        2775.00     12098.70
  157.46        2972.50           2463        1446.00      6301.70
  157.49        2972.75           2466         676.00      2944.06
  157.52        2973.00           2470         223.00       969.08
  157.55        2973.25           2473         154.00       668.28
  157.58        2973.50           2477         138.00       598.53
  157.61        2973.75           2481         150.00       650.84
  157.64        2974.00           2484         144.00       624.69
  157.67        2974.25           2488         139.00       602.89
  157.70        2974.50           2491         140.00       607.25
  157.73        2974.75           2495         138.00       598.53
  157.76        2975.00           2498         117.00       506.98
  157.79        2975.25           2502         125.00       541.86
  157.83        2975.50           2505         165.00       716.23
  157.86        2975.75           2509         124.00       537.50
  157.89        2976.00           2512         114.00       493.91
  157.92        2976.25           2516         117.00       506.98
  157.95        2976.50           2520         118.00       511.34
  157.98        2976.75           2523         100.00       432.87
  158.01        2977.00           2527          95.00       411.08
  158.04        2977.25           2530          99.00       428.52
  158.07        2977.50           2534         117.00       506.98
  158.10        2977.75           2537          98.00       424.16
  158.13        2978.00           2541         103.00       445.95
  158.16        2978.25           2544          94.00       406.72
  158.19        2978.50           2548         101.00       437.23
  158.22        2978.75           2552          92.00       398.00
  158.25        2979.00           2555          98.00       424.16
  158.28        2979.25           2559         101.00       437.23
  158.31        2979.50           2562          93.00       402.36
  158.35        2979.75           2566          90.00       389.28
  158.38        2980.00           2569          92.00       398.00
  158.41        2980.25           2573         111.00       480.83
  158.44        2980.50           2577          83.00       358.77
  158.47        2980.75           2580          89.00       384.92
  158.50        2981.00           2584          90.00       389.28
  158.53        2981.25           2587          88.00       380.56
  158.56        2981.50           2591          85.00       367.49
  158.59        2981.75           2594          89.00       384.92
  158.62        2982.00           2598          88.00       380.56
  158.65        2982.25           2601          84.00       363.13
  158.68        2982.50           2605          94.00       406.72
  158.71        2982.75           2609          87.00       376.20
  158.74        2983.00           2612          79.00       341.33
  158.77        2983.25           2616          79.00       341.33
  158.80        2983.50           2619          82.00       354.41
  158.83        2983.75           2623          79.00       341.33
  158.87        2984.00           2626          90.00       389.28
HS scan finished at 02:39:05
end
************************************************************
  HS Scan of (1) Internal mercury lamp
************************************************************
Integration time is 0.2294 seconds per sample
dh250418Reading 51.44 .94 3.09pr1000
************************************************************
Dead Time -------------------------  3.4E-08 
Number of Cycles Used -------------  4 
Starting Wavelength (Angstroms) ---  2950 
Final Wavelength (Angstoms) -------  2984 
Wavelength Increment (Angstroms) --  .25 
Filter Wheel #1 Position ---------- (1) Ground quartz diffuser (ND=2.32)
Filter Wheel #2 Position ---------- (1) Neutral Density 0.494



************************************************************
HS scan start time = 20:07:27
Dark Count =  1.2 


Time (GMT)  Wavelength (Ang)  Step Number  Raw Counts  Counts/Second

 1208.35        2950.00           2144          83.00       356.59
 1208.54        2950.25           2147          86.00       369.66
 1208.58        2950.50           2151          82.00       352.23
 1208.62        2950.75           2155          84.00       360.95
 1208.65        2951.00           2158          90.00       387.10
 1208.68        2951.25           2162          89.00       382.74
 1208.71        2951.50           2165          86.00       369.66
 1208.74        2951.75           2169          91.00       391.46
 1208.78        2952.00           2172          83.00       356.59
 1208.81        2952.25           2176          92.00       395.82
 1208.84        2952.50           2179          87.00       374.02
 1208.87        2952.75           2183          87.00       374.02
 1208.90        2953.00           2186          90.00       387.10
 1208.93        2953.25           2190          83.00       356.59
 1208.96        2953.50           2193          82.00       352.23
 1208.99        2953.75           2197          93.00       400.18
 1209.02        2954.00           2200         100.00       430.70
 1209.05        2954.25           2204          89.00       382.74
 1209.08        2954.50           2208          95.00       408.90
 1209.11        2954.75           2211          84.00       360.95
 1209.14        2955.00           2215          94.00       404.54
 1209.17        2955.25           2218          91.00       391.46
 1209.20        2955.50           2222          90.00       387.10
 1209.23        2955.75           2225          88.00       378.38
 1209.26        2956.00           2229          94.00       404.54
 1209.30        2956.25           2232         101.00       435.05
 1209.33        2956.50           2236          97.00       417.62
 1209.36        2956.75           2239          91.00       391.46
 1209.39        2957.00           2243          96.00       413.26
 1209.42        2957.25           2246          93.00       400.18
 1209.45        2957.50           2250          95.00       408.90
 1209.48        2957.75           2254         105.00       452.49
 1209.51        2958.00           2257         109.00       469.93
 1209.54        2958.25           2261         107.00       461.21
 1209.57        2958.50           2264         104.00       448.13
 1209.60        2958.75           2268         114.00       491.73
 1209.63        2959.00           2271         102.00       439.41
 1209.66        2959.25           2275         136.00       587.63
 1209.69        2959.50           2278         141.00       609.43
 1209.72        2959.75           2282         107.00       461.21
 1209.75        2960.00           2285         138.00       596.35
 1209.78        2960.25           2289         140.00       605.07
 1209.81        2960.50           2293         152.00       657.38
 1209.85        2960.75           2296         131.00       565.83
 1209.88        2961.00           2300         152.00       657.38
 1209.91        2961.25           2303         401.00      1742.91
 1209.94        2961.50           2307        1218.00      5305.23
 1209.97        2961.75           2310        2146.00      9352.58
 1210.00        2962.00           2314        3552.00     15486.79
 1210.03        2962.25           2317        4798.00     20925.08
 1210.06        2962.50           2321        6229.00     27173.31
 1210.09        2962.75           2324        7377.00     32187.78
 1210.12        2963.00           2328        8997.00     39266.86
 1210.15        2963.25           2331       10316.00     45033.15
 1210.18        2963.50           2335       12087.00     52779.03
 1210.21        2963.75           2339       13804.00     60292.61
 1210.24        2964.00           2342       15232.00     66544.46
 1210.27        2964.25           2346       16694.00     72947.93
 1210.30        2964.50           2349       17911.00     78280.43
 1210.33        2964.75           2353       19690.00     86078.94
 1210.37        2965.00           2356       20873.00     91267.09
 1210.40        2965.25           2360       22365.00     97812.99
 1210.43        2965.50           2363       23659.00    103492.60
 1210.46        2965.75           2367       25048.00    109591.60
 1210.49        2966.00           2370       26105.00    114234.50
 1210.52        2966.25           2374       27684.00    121173.00
 1210.55        2966.50           2378       28568.00    125059.00
 1210.58        2966.75           2381       28724.00    125744.80
 1210.61        2967.00           2385       28758.00    125894.30
 1210.64        2967.25           2388       28710.00    125683.30
 1210.67        2967.50           2392       28774.00    125964.70
 1210.70        2967.75           2395       28617.00    125274.40
 1210.73        2968.00           2399       27806.00    121709.20
 1210.76        2968.25           2402       26942.00    117912.10
 1210.79        2968.50           2406       25378.00    111040.90
 1210.82        2968.75           2409       24127.00    105547.20
 1210.85        2969.00           2413       22410.00     98010.46
 1210.89        2969.25           2417       20526.00     89745.10
 1210.92        2969.50           2420       19298.00     84360.19
 1210.95        2969.75           2424       17455.00     76282.16
 1210.98        2970.00           2427       16296.00     71204.43
 1211.01        2970.25           2431       14551.00     63562.67
 1211.04        2970.50           2434       13124.00     57316.47
 1211.07        2970.75           2438       11392.00     49738.80
 1211.10        2971.00           2441       10263.00     44801.42
 1211.13        2971.25           2445        8729.00     38095.52
 1211.16        2971.50           2449        7066.00     30829.16
 1211.19        2971.75           2452        5819.00     25382.84
 1211.22        2972.00           2456        4010.00     17485.55
 1211.25        2972.25           2459        2749.00     11983.09
 1211.28        2972.50           2463        1363.00      5937.55
 1211.31        2972.75           2466         632.00      2750.04
 1211.34        2973.00           2470         232.00      1006.14
 1211.37        2973.25           2473         157.00       679.18
 1211.41        2973.50           2477         150.00       648.66
 1211.44        2973.75           2481         149.00       644.30
 1211.47        2974.00           2484         149.00       644.30
 1211.50        2974.25           2488         119.00       513.52
 1211.53        2974.50           2491         128.00       552.76
 1211.56        2974.75           2495         129.00       557.12
 1211.59        2975.00           2498         167.00       722.77
 1211.62        2975.25           2502         119.00       513.52
 1211.65        2975.50           2505         111.00       478.65
 1211.68        2975.75           2509         106.00       456.85
 1211.71        2976.00           2512         142.00       613.79
 1211.74        2976.25           2516         103.00       443.77
 1211.77        2976.50           2520         104.00       448.13
 1211.80        2976.75           2523         109.00       469.93
 1211.83        2977.00           2527         104.00       448.13
 1211.86        2977.25           2530          99.00       426.34
 1211.89        2977.50           2534         118.00       509.16
 1211.93        2977.75           2537          99.00       426.34
 1211.96        2978.00           2541          98.00       421.98
 1211.99        2978.25           2544          87.00       374.02
 1212.02        2978.50           2548          90.00       387.10
 1212.05        2978.75           2552          95.00       408.90
 1212.08        2979.00           2555          88.00       378.38
 1212.11        2979.25           2559          92.00       395.82
 1212.14        2979.50           2562         131.00       565.83
 1212.17        2979.75           2566          91.00       391.46
 1212.20        2980.00           2569          90.00       387.10
 1212.23        2980.25           2573          91.00       391.46
 1212.26        2980.50           2577          89.00       382.74
 1212.29        2980.75           2580          85.00       365.31
 1212.32        2981.00           2584          84.00       360.95
 1212.35        2981.25           2587          85.00       365.31
 1212.38        2981.50           2591          79.00       339.15
 1212.41        2981.75           2594          96.00       413.26
 1212.45        2982.00           2598          83.00       356.59
 1212.48        2982.25           2601          92.00       395.82
 1212.51        2982.50           2605          93.00       400.18
 1212.54        2982.75           2609          78.00       334.79
 1212.57        2983.00           2612          89.00       382.74
 1212.60        2983.25           2616          87.00       374.02
 1212.63        2983.50           2619          74.00       317.35
 1212.66        2983.75           2623          77.00       330.43
 1212.69        2984.00           2626          81.00       347.87
HS scan finished at 20:12:55
end
