************************************************************
  HS Scan of (1) Internal mercury lamp
************************************************************
Integration time is 0.2294 seconds per sample
dh210419Reading 51.44 .94 3.25pr1000
************************************************************
Dead Time -------------------------  3.4E-08 
Number of Cycles Used -------------  4 
Starting Wavelength (Angstroms) ---  2950 
Final Wavelength (Angstoms) -------  2984 
Wavelength Increment (Angstroms) --  .25 
Filter Wheel #1 Position ---------- (1) Ground quartz diffuser (ND=2.32)
Filter Wheel #2 Position ---------- (1) Neutral Density 0.494



************************************************************
HS scan start time = 01:06:43
Dark Count =  1.4 


Time (GMT)  Wavelength (Ang)  Step Number  Raw Counts  Counts/Second

   67.62        2950.00           2144        1510.00      6577.76
   67.81        2950.25           2147        1538.00      6699.87
   67.84        2950.50           2151        1548.00      6743.48
   67.88        2950.75           2155        1573.00      6852.51
   67.91        2951.00           2158        1555.00      6774.01
   67.94        2951.25           2162        1555.00      6774.01
   67.97        2951.50           2165        1563.00      6808.90
   68.00        2951.75           2169        1567.00      6826.34
   68.03        2952.00           2172        1550.00      6752.20
   68.06        2952.25           2176        1557.00      6782.73
   68.09        2952.50           2179        1584.00      6900.49
   68.12        2952.75           2183        1592.00      6935.38
   68.15        2953.00           2186        1603.00      6983.35
   68.18        2953.25           2190        1605.00      6992.07
   68.21        2953.50           2193        1611.00      7018.24
   68.24        2953.75           2197        1606.00      6996.43
   68.27        2954.00           2200        1629.00      7096.74
   68.30        2954.25           2204        1617.00      7044.41
   68.33        2954.50           2208        1636.00      7127.27
   68.36        2954.75           2211        1644.00      7162.16
   68.39        2955.00           2215        1675.00      7297.36
   68.43        2955.25           2218        1677.00      7306.09
   68.46        2955.50           2222        1709.00      7445.65
   68.49        2955.75           2225        1676.00      7301.73
   68.52        2956.00           2229        1710.00      7450.01
   68.55        2956.25           2232        1713.00      7463.10
   68.58        2956.50           2236        1727.00      7524.16
   68.61        2956.75           2239        1767.00      7698.61
   68.64        2957.00           2243        1742.00      7589.58
   68.67        2957.25           2246        1775.00      7733.51
   68.70        2957.50           2250        1781.00      7759.68
   68.73        2957.75           2254        1792.00      7807.65
   68.76        2958.00           2257        1822.00      7938.50
   68.79        2958.25           2261        1868.00      8139.13
   68.82        2958.50           2264        1842.00      8025.73
   68.85        2958.75           2268        1859.00      8099.88
   68.88        2959.00           2271        1889.00      8230.72
   68.91        2959.25           2275        1918.00      8357.21
   68.95        2959.50           2278        1968.00      8575.30
   68.98        2959.75           2282        1926.00      8392.11
   69.01        2960.00           2285        1997.00      8701.79
   69.04        2960.25           2289        2085.00      9085.63
   69.07        2960.50           2293        2078.00      9055.10
   69.10        2960.75           2296        2160.00      9412.78
   69.13        2961.00           2300        2423.00     10560.03
   69.16        2961.25           2303        3652.00     15922.31
   69.19        2961.50           2307       11764.00     51365.13
   69.22        2961.75           2310       25498.00    111567.10
   69.25        2962.00           2314       49854.00    218941.10
   69.28        2962.25           2317       69602.00    306582.00
   69.31        2962.50           2321       96973.00    428928.30
   69.34        2962.75           2324      118374.00    525308.60
   69.37        2963.00           2328      144887.00    645601.90
   69.40        2963.25           2331      164074.00    733280.80
   69.43        2963.50           2335      195669.00    878824.70
   69.47        2963.75           2339      227492.00   1026913.00
   69.50        2964.00           2342      251673.00   1140462.00
   69.53        2964.25           2346      279942.00   1274353.00
   69.56        2964.50           2349      298869.00   1364698.00
   69.59        2964.75           2353      325466.00   1492624.00
   69.62        2965.00           2356      346042.00   1592380.00
   69.65        2965.25           2360      372678.00   1722559.00
   69.68        2965.50           2363      390542.00   1810536.00
   69.71        2965.75           2367      416833.00   1941012.00
   69.74        2966.00           2370      435340.00   2033582.00
   69.77        2966.25           2374      458016.00   2147835.00
   69.80        2966.50           2378      469193.00   2204491.00
   69.83        2966.75           2381      471278.00   2215085.00
   69.86        2967.00           2385      472271.00   2220134.00
   69.89        2967.25           2388      472277.00   2220164.00
   69.92        2967.50           2392      471309.00   2215243.00
   69.95        2967.75           2395      468867.00   2202836.00
   69.99        2968.00           2399      457301.00   2144218.00
   70.02        2968.25           2402      441848.00   2066278.00
   70.05        2968.50           2406      420026.00   1956940.00
   70.08        2968.75           2409      401754.00   1866032.00
   70.11        2969.00           2413      373554.00   1726860.00
   70.14        2969.25           2417      346136.00   1592838.00
   70.17        2969.50           2420      326986.00   1499970.00
   70.20        2969.75           2424      300680.00   1373372.00
   70.23        2970.00           2427      279649.00   1272958.00
   70.26        2970.25           2431      250968.00   1137139.00
   70.29        2970.50           2434      229156.00   1034698.00
   70.32        2970.75           2438      201335.00    905080.60
   70.35        2971.00           2441      178794.00    800907.40
   70.38        2971.25           2445      149157.00    665068.80
   70.41        2971.50           2449      119896.00    532187.30
   70.44        2971.75           2452       97496.00    431276.20
   70.47        2972.00           2456       70049.00    308571.80
   70.51        2972.25           2459       51711.00    227160.10
   70.54        2972.50           2463       28896.00    126500.20
   70.57        2972.75           2466       13440.00     58698.55
   70.60        2973.00           2470        4251.00     18536.53
   70.63        2973.25           2473        2707.00     11798.98
   70.66        2973.50           2477        2298.00     10014.74
   70.69        2973.75           2481        2174.00      9473.85
   70.72        2974.00           2484        2127.00      9268.83
   70.75        2974.25           2488        2057.00      8963.50
   70.78        2974.50           2491        2060.00      8976.59
   70.81        2974.75           2495        1987.00      8658.17
   70.84        2975.00           2498        1990.00      8671.26
   70.87        2975.25           2502        1953.00      8509.87
   70.90        2975.50           2505        1939.00      8448.81
   70.93        2975.75           2509        1911.00      8326.68
   70.96        2976.00           2512        1919.00      8361.58
   70.99        2976.25           2516        1861.00      8108.60
   71.03        2976.50           2520        1819.00      7925.41
   71.06        2976.75           2523        1797.00      7829.46
   71.09        2977.00           2527        1779.00      7750.95
   71.12        2977.25           2530        1786.00      7781.48
   71.15        2977.50           2534        1783.00      7768.40
   71.18        2977.75           2537        1755.00      7646.28
   71.21        2978.00           2541        1756.00      7650.64
   71.24        2978.25           2544        1695.00      7384.59
   71.27        2978.50           2548        1634.00      7118.55
   71.30        2978.75           2552        1651.00      7192.69
   71.33        2979.00           2555        1648.00      7179.61
   71.36        2979.25           2559        1662.00      7240.67
   71.39        2979.50           2562        1648.00      7179.61
   71.42        2979.75           2566        1604.00      6987.71
   71.45        2980.00           2569        1605.00      6992.07
   71.48        2980.25           2573        1574.00      6856.87
   71.51        2980.50           2577        1577.00      6869.96
   71.55        2980.75           2580        1595.00      6948.46
   71.58        2981.00           2584        1541.00      6712.95
   71.61        2981.25           2587        1564.00      6813.26
   71.64        2981.50           2591        1543.00      6721.68
   71.67        2981.75           2594        1539.00      6704.23
   71.70        2982.00           2598        1554.00      6769.65
   71.73        2982.25           2601        1537.00      6695.51
   71.76        2982.50           2605        1545.00      6730.40
   71.79        2982.75           2609        1497.00      6521.06
   71.82        2983.00           2612        1557.00      6782.73
   71.85        2983.25           2616        1482.00      6455.65
   71.88        2983.50           2619        1492.00      6499.26
   71.91        2983.75           2623        1508.00      6569.04
   71.94        2984.00           2626        1496.00      6516.70
HS scan finished at 01:12:10
end
************************************************************
  HS Scan of (1) Internal mercury lamp
************************************************************
Integration time is 0.2294 seconds per sample
dh210419Reading 51.44 .94 3.74pr1000
************************************************************
Dead Time -------------------------  3.4E-08 
Number of Cycles Used -------------  4 
Starting Wavelength (Angstroms) ---  2950 
Final Wavelength (Angstoms) -------  2984 
Wavelength Increment (Angstroms) --  .25 
Filter Wheel #1 Position ---------- (1) Ground quartz diffuser (ND=2.32)
Filter Wheel #2 Position ---------- (1) Neutral Density 0.494



************************************************************
HS scan start time = 20:07:26
Dark Count =  5.9 


Time (GMT)  Wavelength (Ang)  Step Number  Raw Counts  Counts/Second

 1208.34        2950.00           2144        1206.00      5232.40
 1208.53        2950.25           2147        1205.00      5228.04
 1208.56        2950.50           2151        1239.00      5376.31
 1208.59        2950.75           2155        1256.00      5450.44
 1208.62        2951.00           2158        1226.00      5319.62
 1208.65        2951.25           2162        1257.00      5454.80
 1208.68        2951.50           2165        1258.00      5459.17
 1208.71        2951.75           2169        1215.00      5271.65
 1208.74        2952.00           2172        1226.00      5319.62
 1208.77        2952.25           2176        1287.00      5585.63
 1208.80        2952.50           2179        1267.00      5498.41
 1208.83        2952.75           2183        1229.00      5332.70
 1208.86        2953.00           2186        1246.00      5406.84
 1208.90        2953.25           2190        1274.00      5528.94
 1208.93        2953.50           2193        1297.00      5629.24
 1208.96        2953.75           2197        1248.00      5415.56
 1208.99        2954.00           2200        1281.00      5559.46
 1209.02        2954.25           2204        1326.00      5755.70
 1209.05        2954.50           2208        1287.00      5585.63
 1209.08        2954.75           2211        1290.00      5598.71
 1209.11        2955.00           2215        1317.00      5716.46
 1209.14        2955.25           2218        1313.00      5699.01
 1209.17        2955.50           2222        1296.00      5624.88
 1209.20        2955.75           2225        1337.00      5803.67
 1209.23        2956.00           2229        1355.00      5882.17
 1209.26        2956.25           2232        1365.00      5925.78
 1209.29        2956.50           2236        1343.00      5829.84
 1209.32        2956.75           2239        1382.00      5999.92
 1209.35        2957.00           2243        1369.00      5943.22
 1209.38        2957.25           2246        1420.00      6165.63
 1209.41        2957.50           2250        1422.00      6174.36
 1209.45        2957.75           2254        1446.00      6279.02
 1209.48        2958.00           2257        1438.00      6244.13
 1209.51        2958.25           2261        1429.00      6204.88
 1209.54        2958.50           2264        1474.00      6401.13
 1209.57        2958.75           2268        1490.00      6470.91
 1209.60        2959.00           2271        1520.00      6601.74
 1209.63        2959.25           2275        1518.00      6593.02
 1209.66        2959.50           2278        1575.00      6841.61
 1209.69        2959.75           2282        1528.00      6636.63
 1209.72        2960.00           2285        1586.00      6889.58
 1209.75        2960.25           2289        1657.00      7199.23
 1209.78        2960.50           2293        1689.00      7338.80
 1209.81        2960.75           2296        1740.00      7561.23
 1209.84        2961.00           2300        1755.00      7626.65
 1209.87        2961.25           2303        2076.00      9026.75
 1209.90        2961.50           2307        4123.00     17958.22
 1209.93        2961.75           2310       11252.00     49105.90
 1209.97        2962.00           2314       30033.00    131480.50
 1210.00        2962.25           2317       46901.00    205860.90
 1210.03        2962.50           2321       70003.00    308347.00
 1210.06        2962.75           2324       85679.00    378300.60
 1210.09        2963.00           2328      108625.00    481304.30
 1210.12        2963.25           2331      127945.00    568598.60
 1210.15        2963.50           2335      152357.00    679654.10
 1210.18        2963.75           2339      175049.00    783651.60
 1210.21        2964.00           2342      191681.00    860352.20
 1210.24        2964.25           2346      217394.00    979736.10
 1210.27        2964.50           2349      237686.00   1074652.00
 1210.30        2964.75           2353      262006.00   1189237.00
 1210.33        2965.00           2356      278317.00   1266601.00
 1210.36        2965.25           2360      300681.00   1373356.00
 1210.39        2965.50           2363      313968.00   1437160.00
 1210.42        2965.75           2367      342494.00   1575107.00
 1210.46        2966.00           2370      359109.00   1656073.00
 1210.49        2966.25           2374      380838.00   1762656.00
 1210.52        2966.50           2378      398657.00   1850659.00
 1210.55        2966.75           2381      405424.00   1884223.00
 1210.58        2967.00           2385      409134.00   1902657.00
 1210.61        2967.25           2388      409789.00   1905914.00
 1210.64        2967.50           2392      409712.00   1905532.00
 1210.67        2967.75           2395      408863.00   1901310.00
 1210.70        2968.00           2399      403840.00   1876359.00
 1210.73        2968.25           2402      393722.00   1826232.00
 1210.76        2968.50           2406      374708.00   1732507.00
 1210.79        2968.75           2409      359579.00   1658370.00
 1210.82        2969.00           2413      338990.00   1558091.00
 1210.85        2969.25           2417      317399.00   1453681.00
 1210.88        2969.50           2420      300267.00   1371372.00
 1210.91        2969.75           2424      276302.00   1257021.00
 1210.94        2970.00           2427      257090.00   1166001.00
 1210.98        2970.25           2431      230743.00   1042106.00
 1211.01        2970.50           2434      212028.00    954740.70
 1211.04        2970.75           2438      190643.00    855553.30
 1211.07        2971.00           2441      172010.00    769680.50
 1211.10        2971.25           2445      145682.00    649203.80
 1211.13        2971.50           2449      118773.00    527091.20
 1211.16        2971.75           2452      100683.00    445570.70
 1211.19        2972.00           2456       77293.00    340836.80
 1211.22        2972.25           2459       59692.00    262516.20
 1211.25        2972.50           2463       36623.00    160494.60
 1211.28        2972.75           2466       21292.00     93084.46
 1211.31        2973.00           2470        6504.00     28353.83
 1211.34        2973.25           2473        2930.00     12752.26
 1211.37        2973.50           2477        1969.00      8560.03
 1211.40        2973.75           2481        1799.00      7818.56
 1211.43        2974.00           2484        1784.00      7753.13
 1211.46        2974.25           2488        1694.00      7360.60
 1211.50        2974.50           2491        1664.00      7229.76
 1211.53        2974.75           2495        1617.00      7024.78
 1211.56        2975.00           2498        1585.00      6885.22
 1211.59        2975.25           2502        1571.00      6824.16
 1211.62        2975.50           2505        1550.00      6732.58
 1211.65        2975.75           2509        1564.00      6793.64
 1211.68        2976.00           2512        1534.00      6662.80
 1211.71        2976.25           2516        1504.00      6531.97
 1211.74        2976.50           2520        1485.00      6449.10
 1211.77        2976.75           2523        1447.00      6283.38
 1211.80        2977.00           2527        1476.00      6409.85
 1211.83        2977.25           2530        1442.00      6261.58
 1211.86        2977.50           2534        1422.00      6174.36
 1211.89        2977.75           2537        1395.00      6056.61
 1211.92        2978.00           2541        1358.00      5895.25
 1211.95        2978.25           2544        1371.00      5951.95
 1211.98        2978.50           2548        1372.00      5956.31
 1212.02        2978.75           2552        1341.00      5821.12
 1212.05        2979.00           2555        1320.00      5729.54
 1212.08        2979.25           2559        1277.00      5542.02
 1212.11        2979.50           2562        1325.00      5751.34
 1212.14        2979.75           2566        1253.00      5437.36
 1212.17        2980.00           2569        1284.00      5572.55
 1212.20        2980.25           2573        1287.00      5585.63
 1212.23        2980.50           2577        1278.00      5546.38
 1212.26        2980.75           2580        1269.00      5507.13
 1212.29        2981.00           2584        1240.00      5380.67
 1212.32        2981.25           2587        1242.00      5389.39
 1212.35        2981.50           2591        1238.00      5371.95
 1212.38        2981.75           2594        1240.00      5380.67
 1212.41        2982.00           2598        1222.00      5302.18
 1212.44        2982.25           2601        1223.00      5306.54
 1212.47        2982.50           2605        1228.00      5328.34
 1212.50        2982.75           2609        1204.00      5223.68
 1212.53        2983.00           2612        1199.00      5201.88
 1212.57        2983.25           2616        1235.00      5358.87
 1212.60        2983.50           2619        1185.00      5140.83
 1212.63        2983.75           2623        1183.00      5132.11
 1212.66        2984.00           2626        1156.00      5014.37
HS scan finished at 20:12:53
end
