************************************************************
  HS Scan of (1) Internal mercury lamp
************************************************************
Integration time is 0.2294 seconds per sample
dh280418Reading 51.44 .94 3.01pr1000
************************************************************
Dead Time -------------------------  3.4E-08 
Number of Cycles Used -------------  4 
Starting Wavelength (Angstroms) ---  2950 
Final Wavelength (Angstoms) -------  2984 
Wavelength Increment (Angstroms) --  .25 
Filter Wheel #1 Position ---------- (1) Ground quartz diffuser (ND=2.32)
Filter Wheel #2 Position ---------- (1) Neutral Density 0.494



************************************************************
HS scan start time = 01:05:28
Dark Count =  .5 


Time (GMT)  Wavelength (Ang)  Step Number  Raw Counts  Counts/Second

   66.36        2950.00           2144          94.00       407.59
   66.55        2950.25           2147          79.00       342.20
   66.58        2950.50           2151          99.00       429.39
   66.61        2950.75           2155          92.00       398.87
   66.64        2951.00           2158          90.00       390.15
   66.67        2951.25           2162          97.00       420.67
   66.70        2951.50           2165          96.00       416.31
   66.74        2951.75           2169          98.00       425.03
   66.77        2952.00           2172          95.00       411.95
   66.80        2952.25           2176         116.00       503.50
   66.83        2952.50           2179          95.00       411.95
   66.86        2952.75           2183          89.00       385.79
   66.89        2953.00           2186         103.00       446.82
   66.92        2953.25           2190          91.00       394.51
   66.95        2953.50           2193          93.00       403.23
   66.98        2953.75           2197         120.00       520.93
   67.01        2954.00           2200         136.00       590.68
   67.04        2954.25           2204         104.00       451.18
   67.07        2954.50           2208         120.00       520.93
   67.10        2954.75           2211         126.00       547.09
   67.13        2955.00           2215         125.00       542.73
   67.16        2955.25           2218         119.00       516.57
   67.19        2955.50           2222         106.00       459.90
   67.22        2955.75           2225          98.00       425.03
   67.26        2956.00           2229         102.00       442.47
   67.29        2956.25           2232         127.00       551.45
   67.32        2956.50           2236         109.00       472.98
   67.35        2956.75           2239         103.00       446.82
   67.38        2957.00           2243         144.00       625.56
   67.41        2957.25           2246         122.00       529.65
   67.44        2957.50           2250         100.00       433.75
   67.47        2957.75           2254         136.00       590.68
   67.50        2958.00           2257         135.00       586.32
   67.53        2958.25           2261         119.00       516.57
   67.56        2958.50           2264         133.00       577.61
   67.59        2958.75           2268         122.00       529.65
   67.62        2959.00           2271         122.00       529.65
   67.65        2959.25           2275         121.00       525.29
   67.68        2959.50           2278         145.00       629.92
   67.71        2959.75           2282         118.00       512.21
   67.74        2960.00           2285         129.00       560.17
   67.78        2960.25           2289         135.00       586.32
   67.81        2960.50           2293         136.00       590.68
   67.84        2960.75           2296         137.00       595.04
   67.87        2961.00           2300         157.00       682.23
   67.90        2961.25           2303         260.00      1131.26
   67.93        2961.50           2307         853.00      3716.69
   67.96        2961.75           2310        1821.00      7938.06
   67.99        2962.00           2314        3365.00     14673.84
   68.02        2962.25           2317        4655.00     20303.90
   68.05        2962.50           2321        6763.00     29508.67
   68.08        2962.75           2324        8120.00     35437.18
   68.11        2963.00           2328        9999.00     43650.18
   68.14        2963.25           2331       11348.00     49549.41
   68.17        2963.50           2335       12931.00     56474.95
   68.20        2963.75           2339       14839.00     64826.69
   68.23        2964.00           2342       16341.00     71404.62
   68.26        2964.25           2346       18665.00     81588.26
   68.30        2964.50           2349       20425.00     89305.19
   68.33        2964.75           2353       22529.00     98535.76
   68.36        2965.00           2356       23814.00    104176.10
   68.39        2965.25           2360       25513.00    111637.00
   68.42        2965.50           2363       26809.00    117330.70
   68.45        2965.75           2367       28707.00    125673.20
   68.48        2966.00           2370       30060.00    131623.00
   68.51        2966.25           2374       31894.00    139692.00
   68.54        2966.50           2378       32921.00    144212.40
   68.57        2966.75           2381       33290.00    145836.90
   68.60        2967.00           2385       33506.00    146787.90
   68.63        2967.25           2388       33569.00    147065.30
   68.66        2967.50           2392       33380.00    146233.10
   68.69        2967.75           2395       33217.00    145515.50
   68.72        2968.00           2399       31940.00    139894.40
   68.75        2968.25           2402       30813.00    134935.40
   68.78        2968.50           2406       29034.00    127110.90
   68.82        2968.75           2409       27848.00    121896.90
   68.85        2969.00           2413       26168.00    114514.30
   68.88        2969.25           2417       24076.00    105326.40
   68.91        2969.50           2420       22755.00     99527.61
   68.94        2969.75           2424       20748.00     90721.87
   68.97        2970.00           2427       19028.00     83179.55
   69.00        2970.25           2431       17041.00     74471.24
   69.03        2970.50           2434       15581.00     68075.88
   69.06        2970.75           2438       13651.00     59625.99
   69.09        2971.00           2441       12182.00     53197.70
   69.12        2971.25           2445       10278.00     44870.06
   69.15        2971.50           2449        8301.00     36228.12
   69.18        2971.75           2452        6925.00     30216.29
   69.21        2972.00           2456        5071.00     22119.94
   69.24        2972.25           2459        3793.00     16541.56
   69.27        2972.50           2463        2078.00      9059.02
   69.30        2972.75           2466        1044.00      4549.53
   69.33        2973.00           2470         329.00      1432.07
   69.37        2973.25           2473         191.00       830.45
   69.40        2973.50           2477         174.00       756.34
   69.43        2973.75           2481         140.00       608.12
   69.46        2974.00           2484         156.00       677.87
   69.49        2974.25           2488         130.00       564.53
   69.52        2974.50           2491         141.00       612.48
   69.55        2974.75           2495         127.00       551.45
   69.58        2975.00           2498         153.00       664.79
   69.61        2975.25           2502         126.00       547.09
   69.64        2975.50           2505         133.00       577.61
   69.67        2975.75           2509         120.00       520.93
   69.70        2976.00           2512         143.00       621.20
   69.73        2976.25           2516         134.00       581.96
   69.76        2976.50           2520         145.00       629.92
   69.79        2976.75           2523         107.00       464.26
   69.82        2977.00           2527         121.00       525.29
   69.85        2977.25           2530          98.00       425.03
   69.89        2977.50           2534         111.00       481.70
   69.92        2977.75           2537         119.00       516.57
   69.95        2978.00           2541          97.00       420.67
   69.98        2978.25           2544         104.00       451.18
   70.01        2978.50           2548         121.00       525.29
   70.04        2978.75           2552         105.00       455.54
   70.07        2979.00           2555          99.00       429.39
   70.10        2979.25           2559         126.00       547.09
   70.13        2979.50           2562         105.00       455.54
   70.16        2979.75           2566         118.00       512.21
   70.19        2980.00           2569          97.00       420.67
   70.22        2980.25           2573         101.00       438.11
   70.25        2980.50           2577         111.00       481.70
   70.28        2980.75           2580         104.00       451.18
   70.31        2981.00           2584         111.00       481.70
   70.34        2981.25           2587          90.00       390.15
   70.37        2981.50           2591         111.00       481.70
   70.41        2981.75           2594          94.00       407.59
   70.44        2982.00           2598          94.00       407.59
   70.47        2982.25           2601         100.00       433.75
   70.50        2982.50           2605          99.00       429.39
   70.53        2982.75           2609          94.00       407.59
   70.56        2983.00           2612          86.00       372.72
   70.59        2983.25           2616          93.00       403.23
   70.62        2983.50           2619          92.00       398.87
   70.65        2983.75           2623          93.00       403.23
   70.68        2984.00           2626          90.00       390.15
HS scan finished at 01:10:54
end
************************************************************
  HS Scan of (1) Internal mercury lamp
************************************************************
Integration time is 0.2294 seconds per sample
dh280418Reading 51.44 .94 3.07pr1000
************************************************************
Dead Time -------------------------  3.4E-08 
Number of Cycles Used -------------  4 
Starting Wavelength (Angstroms) ---  2950 
Final Wavelength (Angstoms) -------  2984 
Wavelength Increment (Angstroms) --  .25 
Filter Wheel #1 Position ---------- (1) Ground quartz diffuser (ND=2.32)
Filter Wheel #2 Position ---------- (1) Neutral Density 0.494



************************************************************
HS scan start time = 20:07:28
Dark Count =  .8 


Time (GMT)  Wavelength (Ang)  Step Number  Raw Counts  Counts/Second

 1208.37        2950.00           2144          92.00       397.56
 1208.56        2950.25           2147         102.00       441.16
 1208.60        2950.50           2151          93.00       401.92
 1208.63        2950.75           2155          89.00       384.49
 1208.66        2951.00           2158          92.00       397.56
 1208.69        2951.25           2162          89.00       384.49
 1208.72        2951.50           2165          97.00       419.36
 1208.75        2951.75           2169          96.00       415.00
 1208.78        2952.00           2172          85.00       367.05
 1208.81        2952.25           2176         100.00       432.44
 1208.84        2952.50           2179         109.00       471.67
 1208.87        2952.75           2183         125.00       541.42
 1208.90        2953.00           2186         113.00       489.11
 1208.93        2953.25           2190          99.00       428.08
 1208.96        2953.50           2193         125.00       541.42
 1208.99        2953.75           2197         121.00       523.98
 1209.02        2954.00           2200         102.00       441.16
 1209.05        2954.25           2204         103.00       445.52
 1209.08        2954.50           2208         120.00       519.63
 1209.12        2954.75           2211          99.00       428.08
 1209.15        2955.00           2215         102.00       441.16
 1209.18        2955.25           2218         101.00       436.80
 1209.21        2955.50           2222         128.00       554.50
 1209.24        2955.75           2225         106.00       458.59
 1209.28        2956.00           2229         103.00       445.52
 1209.31        2956.25           2232         110.00       476.03
 1209.34        2956.50           2236         110.00       476.03
 1209.37        2956.75           2239         112.00       484.75
 1209.40        2957.00           2243         101.00       436.80
 1209.43        2957.25           2246         125.00       541.42
 1209.46        2957.50           2250         112.00       484.75
 1209.49        2957.75           2254         127.00       550.14
 1209.52        2958.00           2257         104.00       449.88
 1209.55        2958.25           2261         143.00       619.89
 1209.58        2958.50           2264         121.00       523.98
 1209.61        2958.75           2268         122.00       528.34
 1209.64        2959.00           2271         159.00       689.64
 1209.67        2959.25           2275         142.00       615.53
 1209.70        2959.50           2278         145.00       628.61
 1209.73        2959.75           2282         152.00       659.13
 1209.76        2960.00           2285         129.00       558.86
 1209.80        2960.25           2289         139.00       602.45
 1209.83        2960.50           2293         135.00       585.02
 1209.86        2960.75           2296         173.00       750.67
 1209.89        2961.00           2300         164.00       711.44
 1209.92        2961.25           2303         335.00      1456.92
 1209.95        2961.50           2307        1133.00      4936.31
 1209.98        2961.75           2310        2187.00      9533.17
 1210.01        2962.00           2314        3763.00     16409.32
 1210.04        2962.25           2317        5177.00     22581.41
 1210.07        2962.50           2321        7080.00     30892.06
 1210.10        2962.75           2324        8547.00     37301.86
 1210.13        2963.00           2328       10361.00     45231.67
 1210.16        2963.25           2331       11686.00     51026.55
 1210.19        2963.50           2335       13655.00     59642.19
 1210.22        2963.75           2339       15681.00     68512.51
 1210.25        2964.00           2342       17196.00     75149.05
 1210.28        2964.25           2346       18915.00     82682.85
 1210.31        2964.50           2349       20242.00     88501.31
 1210.35        2964.75           2353       22099.00     96647.49
 1210.38        2965.00           2356       23744.00    103867.50
 1210.41        2965.25           2360       25321.00    110792.30
 1210.44        2965.50           2363       26766.00    117140.40
 1210.47        2965.75           2367       28635.00    125355.30
 1210.50        2966.00           2370       29929.00    131045.50
 1210.53        2966.25           2374       31420.00    137604.80
 1210.56        2966.50           2378       32298.00    141468.70
 1210.59        2966.75           2381       32551.00    142582.30
 1210.62        2967.00           2385       32592.00    142762.80
 1210.65        2967.25           2388       32540.00    142533.90
 1210.68        2967.50           2392       32493.00    142327.00
 1210.71        2967.75           2395       32514.00    142419.40
 1210.74        2968.00           2399       31678.00    138740.10
 1210.77        2968.25           2402       30115.00    131863.60
 1210.80        2968.50           2406       28643.00    125390.50
 1210.83        2968.75           2409       27382.00    119847.40
 1210.87        2969.00           2413       25698.00    112448.30
 1210.90        2969.25           2417       23910.00    104596.30
 1210.93        2969.50           2420       22331.00     97665.53
 1210.96        2969.75           2424       20502.00     89641.59
 1210.99        2970.00           2427       18985.00     82989.72
 1211.02        2970.25           2431       17049.00     74504.98
 1211.05        2970.50           2434       15655.00     68398.65
 1211.08        2970.75           2438       13665.00     59685.95
 1211.11        2971.00           2441       12102.00     52846.40
 1211.14        2971.25           2445       10096.00     44072.98
 1211.17        2971.50           2449        8112.00     35400.92
 1211.20        2971.75           2452        6705.00     29254.02
 1211.23        2972.00           2456        4891.00     21332.82
 1211.26        2972.25           2459        3636.00     15855.10
 1211.29        2972.50           2463        1974.00      8604.09
 1211.32        2972.75           2466        1064.00      4635.43
 1211.35        2973.00           2470         326.00      1417.68
 1211.39        2973.25           2473         180.00       781.19
 1211.42        2973.50           2477         141.00       611.17
 1211.45        2973.75           2481         155.00       672.20
 1211.48        2974.00           2484         157.00       680.92
 1211.51        2974.25           2488         138.00       598.09
 1211.54        2974.50           2491         146.00       632.97
 1211.57        2974.75           2495         134.00       580.66
 1211.60        2975.00           2498         157.00       680.92
 1211.63        2975.25           2502         136.00       589.38
 1211.66        2975.50           2505         126.00       545.78
 1211.69        2975.75           2509         118.00       510.91
 1211.72        2976.00           2512         140.00       606.81
 1211.75        2976.25           2516         131.00       567.58
 1211.78        2976.50           2520         145.00       628.61
 1211.81        2976.75           2523         107.00       462.95
 1211.84        2977.00           2527         127.00       550.14
 1211.87        2977.25           2530         140.00       606.81
 1211.91        2977.50           2534         130.00       563.22
 1211.94        2977.75           2537         114.00       493.47
 1211.97        2978.00           2541         123.00       532.70
 1212.00        2978.25           2544         102.00       441.16
 1212.03        2978.50           2548         117.00       506.55
 1212.06        2978.75           2552          97.00       419.36
 1212.09        2979.00           2555          99.00       428.08
 1212.12        2979.25           2559         122.00       528.34
 1212.15        2979.50           2562         101.00       436.80
 1212.18        2979.75           2566         124.00       537.06
 1212.21        2980.00           2569         127.00       550.14
 1212.24        2980.25           2573         120.00       519.63
 1212.27        2980.50           2577         121.00       523.98
 1212.30        2980.75           2580         101.00       436.80
 1212.33        2981.00           2584         115.00       497.83
 1212.36        2981.25           2587          97.00       419.36
 1212.39        2981.50           2591          94.00       406.28
 1212.43        2981.75           2594          91.00       393.20
 1212.46        2982.00           2598         119.00       515.27
 1212.49        2982.25           2601          86.00       371.41
 1212.52        2982.50           2605          96.00       415.00
 1212.55        2982.75           2609          96.00       415.00
 1212.58        2983.00           2612         100.00       432.44
 1212.61        2983.25           2616          94.00       406.28
 1212.64        2983.50           2619          91.00       393.20
 1212.67        2983.75           2623          88.00       380.13
 1212.70        2984.00           2626          98.00       423.72
HS scan finished at 20:12:55
end
