************************************************************
  HS Scan of 
************************************************************
Integration time is 0.2294 seconds per sample
dh250417Reading 51.44 .94 2.62pr1000
************************************************************
Dead Time -------------------------  3.4E-08 
Number of Cycles Used -------------  4 
Starting Wavelength (Angstroms) ---  2950 
Final Wavelength (Angstoms) -------  2984 
Wavelength Increment (Angstroms) --  .25 
Filter Wheel #1 Position ---------- (1) Ground quartz diffuser (ND=2.32)
Filter Wheel #2 Position ---------- (1) Neutral Density 0.494



************************************************************
HS scan start time = 02:34:54
Dark Count =  .3 


Time (GMT)  Wavelength (Ang)  Step Number  Raw Counts  Counts/Second

  155.81        2950.00           2144         635.00      2767.04
  156.00        2950.25           2147         634.00      2762.68
  156.03        2950.50           2151         669.00      2915.29
  156.06        2950.75           2155         675.00      2941.45
  156.09        2951.00           2158         644.00      2806.28
  156.12        2951.25           2162         670.00      2919.64
  156.15        2951.50           2165         639.00      2784.48
  156.18        2951.75           2169         678.00      2954.53
  156.21        2952.00           2172         659.00      2871.68
  156.24        2952.25           2176         660.00      2876.04
  156.27        2952.50           2179         668.00      2910.92
  156.31        2952.75           2183         657.00      2862.96
  156.34        2953.00           2186         667.00      2906.56
  156.37        2953.25           2190         681.00      2967.61
  156.40        2953.50           2193         686.00      2989.41
  156.43        2953.75           2197         693.00      3019.93
  156.46        2954.00           2200         684.00      2980.69
  156.49        2954.25           2204         694.00      3024.29
  156.52        2954.50           2208         688.00      2998.13
  156.55        2954.75           2211         701.00      3054.81
  156.58        2955.00           2215         688.00      2998.13
  156.61        2955.25           2218         707.00      3080.97
  156.64        2955.50           2222         715.00      3115.85
  156.67        2955.75           2225         716.00      3120.21
  156.70        2956.00           2229         731.00      3185.61
  156.73        2956.25           2232         711.00      3098.41
  156.76        2956.50           2236         755.00      3290.25
  156.79        2956.75           2239         734.00      3198.69
  156.83        2957.00           2243         707.00      3080.97
  156.86        2957.25           2246         751.00      3272.81
  156.89        2957.50           2250         759.00      3307.70
  156.92        2957.75           2254         765.00      3333.86
  156.95        2958.00           2257         784.00      3416.70
  156.98        2958.25           2261         781.00      3403.62
  157.01        2958.50           2264         802.00      3495.18
  157.04        2958.75           2268         814.00      3547.51
  157.07        2959.00           2271         781.00      3403.62
  157.10        2959.25           2275         831.00      3621.63
  157.13        2959.50           2278         844.00      3678.32
  157.16        2959.75           2282         857.00      3735.00
  157.19        2960.00           2285         886.00      3861.45
  157.22        2960.25           2289         871.00      3796.04
  157.25        2960.50           2293         880.00      3835.29
  157.28        2960.75           2296         923.00      4022.78
  157.31        2961.00           2300        1023.00      4458.83
  157.35        2961.25           2303        1588.00      6922.73
  157.38        2961.50           2307        6263.00     27325.73
  157.41        2961.75           2310       13090.00     57171.62
  157.44        2962.00           2314       23582.00    103158.50
  157.47        2962.25           2317       31985.00    140093.40
  157.50        2962.50           2321       43328.00    190098.70
  157.53        2962.75           2324       51549.00    226447.80
  157.56        2963.00           2328       63928.00    281352.10
  157.59        2963.25           2331       72902.00    321283.50
  157.62        2963.50           2335       84784.00    374322.80
  157.65        2963.75           2339       97888.00    433041.00
  157.68        2964.00           2342      106677.00    472556.80
  157.71        2964.25           2346      118281.00    524893.40
  157.74        2964.50           2349      127550.00    566834.10
  157.77        2964.75           2353      140553.00    625874.80
  157.80        2965.00           2356      149382.00    666100.40
  157.83        2965.25           2360      160060.00    714899.30
  157.86        2965.50           2363      168524.00    753696.80
  157.90        2965.75           2367      179543.00    804362.10
  157.93        2966.00           2370      187752.00    842222.40
  157.96        2966.25           2374      197236.00    886086.40
  157.99        2966.50           2378      202334.00    909720.10
  158.02        2966.75           2381      203880.00    916894.80
  158.05        2967.00           2385      203985.00    917382.10
  158.08        2967.25           2388      204061.00    917734.90
  158.11        2967.50           2392      203589.00    915543.90
  158.14        2967.75           2395      202732.00    911566.70
  158.17        2968.00           2399      197288.00    886327.30
  158.20        2968.25           2402      190906.00    856795.00
  158.23        2968.50           2406      180239.00    807568.20
  158.26        2968.75           2409      171809.00    768782.70
  158.29        2969.00           2413      160370.00    716318.40
  158.32        2969.25           2417      149528.00    666766.50
  158.35        2969.50           2420      141599.00    630634.70
  158.38        2969.75           2424      129734.00    576733.90
  158.42        2970.00           2427      120058.00    532924.60
  158.45        2970.25           2431      107239.00    475087.20
  158.48        2970.50           2434       98639.00    436413.40
  158.51        2970.75           2438       86539.00    382173.10
  158.54        2971.00           2441       77631.00    342369.90
  158.57        2971.25           2445       65765.00    289517.30
  158.60        2971.50           2449       53883.00    236784.00
  158.63        2971.75           2452       45729.00    200705.40
  158.66        2972.00           2456       34737.00    152209.80
  158.69        2972.25           2459       25986.00    113715.60
  158.72        2972.50           2463       14547.00     63549.11
  158.75        2972.75           2466        6945.00     30304.53
  158.78        2973.00           2470        2071.00      9029.36
  158.81        2973.25           2473        1240.00      5405.09
  158.84        2973.50           2477        1012.00      4410.86
  158.87        2973.75           2481         937.00      4083.83
  158.90        2974.00           2484         957.00      4171.04
  158.94        2974.25           2488         905.00      3944.30
  158.97        2974.50           2491         945.00      4118.71
  159.00        2974.75           2495         817.00      3560.59
  159.03        2975.00           2498         866.00      3774.24
  159.06        2975.25           2502         827.00      3604.19
  159.10        2975.50           2505         820.00      3573.67
  159.13        2975.75           2509         823.00      3586.75
  159.16        2976.00           2512         818.00      3564.95
  159.19        2976.25           2516         776.00      3381.82
  159.22        2976.50           2520         769.00      3351.30
  159.25        2976.75           2523         797.00      3473.38
  159.28        2977.00           2527         796.00      3469.02
  159.31        2977.25           2530         743.00      3237.93
  159.34        2977.50           2534         735.00      3203.05
  159.37        2977.75           2537         741.00      3229.21
  159.40        2978.00           2541         745.00      3246.65
  159.43        2978.25           2544         732.00      3189.97
  159.46        2978.50           2548         701.00      3054.81
  159.49        2978.75           2552         706.00      3076.61
  159.52        2979.00           2555         735.00      3203.05
  159.55        2979.25           2559         694.00      3024.29
  159.58        2979.50           2562         689.00      3002.49
  159.61        2979.75           2566         704.00      3067.89
  159.65        2980.00           2569         697.00      3037.37
  159.68        2980.25           2573         704.00      3067.89
  159.71        2980.50           2577         680.00      2963.25
  159.74        2980.75           2580         699.00      3046.09
  159.77        2981.00           2584         680.00      2963.25
  159.80        2981.25           2587         690.00      3006.85
  159.83        2981.50           2591         685.00      2985.05
  159.86        2981.75           2594         683.00      2976.33
  159.89        2982.00           2598         654.00      2849.88
  159.92        2982.25           2601         648.00      2823.72
  159.95        2982.50           2605         647.00      2819.36
  159.98        2982.75           2609         670.00      2919.64
  160.01        2983.00           2612         649.00      2828.08
  160.04        2983.25           2616         661.00      2880.40
  160.07        2983.50           2619         646.00      2815.00
  160.10        2983.75           2623         666.00      2902.20
  160.13        2984.00           2626         639.00      2784.48
HS scan finished at 02:40:22
end
************************************************************
  HS Scan of 
************************************************************
Integration time is 0.2294 seconds per sample
dh250417Reading 51.44 .94 2.72pr1000
************************************************************
Dead Time -------------------------  3.4E-08 
Number of Cycles Used -------------  4 
Starting Wavelength (Angstroms) ---  2950 
Final Wavelength (Angstoms) -------  2984 
Wavelength Increment (Angstroms) --  .25 
Filter Wheel #1 Position ---------- (1) Ground quartz diffuser (ND=2.32)
Filter Wheel #2 Position ---------- (1) Neutral Density 0.494



************************************************************
HS scan start time = 20:07:26
Dark Count =  .5 


Time (GMT)  Wavelength (Ang)  Step Number  Raw Counts  Counts/Second

 1208.34        2950.00           2144         629.00      2740.01
 1208.53        2950.25           2147         659.00      2870.81
 1208.56        2950.50           2151         654.00      2849.01
 1208.59        2950.75           2155         659.00      2870.81
 1208.62        2951.00           2158         638.00      2779.25
 1208.65        2951.25           2162         654.00      2849.01
 1208.68        2951.50           2165         664.00      2892.61
 1208.71        2951.75           2169         636.00      2770.53
 1208.74        2952.00           2172         668.00      2910.05
 1208.77        2952.25           2176         687.00      2992.89
 1208.80        2952.50           2179         653.00      2844.65
 1208.83        2952.75           2183         667.00      2905.69
 1208.87        2953.00           2186         671.00      2923.13
 1208.90        2953.25           2190         658.00      2866.45
 1208.93        2953.50           2193         652.00      2840.29
 1208.96        2953.75           2197         668.00      2910.05
 1208.99        2954.00           2200         663.00      2888.25
 1209.02        2954.25           2204         682.00      2971.09
 1209.05        2954.50           2208         697.00      3036.49
 1209.08        2954.75           2211         694.00      3023.41
 1209.11        2955.00           2215         704.00      3067.02
 1209.14        2955.25           2218         671.00      2923.13
 1209.17        2955.50           2222         710.00      3093.18
 1209.20        2955.75           2225         695.00      3027.78
 1209.23        2956.00           2229         726.00      3162.94
 1209.26        2956.25           2232         737.00      3210.90
 1209.29        2956.50           2236         726.00      3162.94
 1209.32        2956.75           2239         723.00      3149.86
 1209.35        2957.00           2243         752.00      3276.30
 1209.39        2957.25           2246         718.00      3128.06
 1209.42        2957.50           2250         750.00      3267.58
 1209.45        2957.75           2254         759.00      3306.82
 1209.48        2958.00           2257         736.00      3206.54
 1209.51        2958.25           2261         750.00      3267.58
 1209.54        2958.50           2264         770.00      3354.79
 1209.57        2958.75           2268         761.00      3315.54
 1209.60        2959.00           2271         796.00      3468.15
 1209.63        2959.25           2275         800.00      3485.59
 1209.66        2959.50           2278         778.00      3389.67
 1209.69        2959.75           2282         807.00      3516.11
 1209.72        2960.00           2285         814.00      3546.64
 1209.75        2960.25           2289         824.00      3590.24
 1209.78        2960.50           2293         848.00      3694.88
 1209.81        2960.75           2296         882.00      3843.14
 1209.84        2961.00           2300         935.00      4074.23
 1209.87        2961.25           2303        1187.00      5173.10
 1209.91        2961.50           2307        3683.00     16061.52
 1209.94        2961.75           2310        8425.00     36770.01
 1209.97        2962.00           2314       17392.00     76009.18
 1210.00        2962.25           2317       25273.00    110582.80
 1210.03        2962.50           2321       36153.00    158447.20
 1210.06        2962.75           2324       44535.00    195428.90
 1210.09        2963.00           2328       55424.00    243611.50
 1210.12        2963.25           2331       63135.00    277827.80
 1210.15        2963.50           2335       74589.00    328801.30
 1210.18        2963.75           2339       86186.00    380592.90
 1210.21        2964.00           2342       95107.00    420558.80
 1210.24        2964.25           2346      106795.00    473087.10
 1210.27        2964.50           2349      114472.00    507692.30
 1210.30        2964.75           2353      125346.00    556849.50
 1210.33        2965.00           2356      133622.00    594373.50
 1210.36        2965.25           2360      143355.00    638628.00
 1210.39        2965.50           2363      150591.00    671616.30
 1210.43        2965.75           2367      161227.00    720241.50
 1210.46        2966.00           2370      169375.00    757602.50
 1210.49        2966.25           2374      178498.00    799548.60
 1210.52        2966.50           2378      184607.00    827704.80
 1210.55        2966.75           2381      186400.00    835979.10
 1210.58        2967.00           2385      187227.00    839797.10
 1210.61        2967.25           2388      187403.00    840609.80
 1210.64        2967.50           2392      187620.00    841611.90
 1210.67        2967.75           2395      187048.00    838970.60
 1210.70        2968.00           2399      183711.00    823571.80
 1210.73        2968.25           2402      178314.00    798701.50
 1210.76        2968.50           2406      169347.00    757474.00
 1210.79        2968.75           2409      161356.00    720832.10
 1210.82        2969.00           2413      151919.00    677678.70
 1210.85        2969.25           2417      141412.00    629782.70
 1210.88        2969.50           2420      133131.00    592144.60
 1210.91        2969.75           2424      122811.00    545374.90
 1210.95        2970.00           2427      114727.00    508843.20
 1210.98        2970.25           2431      103100.00    456460.60
 1211.01        2970.50           2434       95271.00    421294.60
 1211.04        2970.75           2438       84322.00    372256.00
 1211.07        2971.00           2441       75110.00    331124.10
 1211.10        2971.25           2445       63133.00    277819.00
 1211.13        2971.50           2449       51978.00    228346.20
 1211.16        2971.75           2452       44269.00    194253.90
 1211.19        2972.00           2456       33752.00    147871.10
 1211.22        2972.25           2459       26131.00    114351.80
 1211.25        2972.50           2463       15294.00     66819.03
 1211.28        2972.75           2466        8091.00     35310.46
 1211.31        2973.00           2470        2544.00     11091.80
 1211.34        2973.25           2473        1286.00      5604.82
 1211.37        2973.50           2477         966.00      4209.41
 1211.40        2973.75           2481         915.00      3987.03
 1211.43        2974.00           2484         873.00      3803.89
 1211.47        2974.25           2488         849.00      3699.24
 1211.50        2974.50           2491         852.00      3712.33
 1211.53        2974.75           2495         832.00      3625.12
 1211.56        2975.00           2498         814.00      3546.64
 1211.59        2975.25           2502         825.00      3594.60
 1211.62        2975.50           2505         802.00      3494.31
 1211.65        2975.75           2509         803.00      3498.67
 1211.68        2976.00           2512         792.00      3450.71
 1211.71        2976.25           2516         765.00      3332.98
 1211.74        2976.50           2520         786.00      3424.55
 1211.77        2976.75           2523         769.00      3350.43
 1211.80        2977.00           2527         722.00      3145.50
 1211.83        2977.25           2530         724.00      3154.22
 1211.86        2977.50           2534         715.00      3114.98
 1211.89        2977.75           2537         731.00      3184.74
 1211.92        2978.00           2541         738.00      3215.26
 1211.95        2978.25           2544         706.00      3075.74
 1211.98        2978.50           2548         717.00      3123.70
 1212.02        2978.75           2552         709.00      3088.82
 1212.05        2979.00           2555         714.00      3110.62
 1212.08        2979.25           2559         701.00      3053.94
 1212.11        2979.50           2562         676.00      2944.93
 1212.14        2979.75           2566         665.00      2896.97
 1212.17        2980.00           2569         679.00      2958.01
 1212.20        2980.25           2573         676.00      2944.93
 1212.23        2980.50           2577         654.00      2849.01
 1212.26        2980.75           2580         678.00      2953.65
 1212.29        2981.00           2584         660.00      2875.17
 1212.32        2981.25           2587         651.00      2835.93
 1212.35        2981.50           2591         632.00      2753.09
 1212.38        2981.75           2594         656.00      2857.73
 1212.41        2982.00           2598         646.00      2814.13
 1212.44        2982.25           2601         629.00      2740.01
 1212.47        2982.50           2605         634.00      2761.81
 1212.50        2982.75           2609         622.00      2709.49
 1212.54        2983.00           2612         633.00      2757.45
 1212.57        2983.25           2616         627.00      2731.29
 1212.60        2983.50           2619         625.00      2722.57
 1212.63        2983.75           2623         649.00      2827.21
 1212.66        2984.00           2626         620.00      2700.77
HS scan finished at 20:12:53
end
