************************************************************
  HS Scan of 
************************************************************
Integration time is 0.2294 seconds per sample
dh240417Reading 51.44 .94 2.92pr1000
************************************************************
Dead Time -------------------------  3.4E-08 
Number of Cycles Used -------------  4 
Starting Wavelength (Angstroms) ---  2950 
Final Wavelength (Angstoms) -------  2984 
Wavelength Increment (Angstroms) --  .25 
Filter Wheel #1 Position ---------- (1) Ground quartz diffuser (ND=2.32)
Filter Wheel #2 Position ---------- (1) Neutral Density 0.494



************************************************************
HS scan start time = 01:14:13
Dark Count =  .3 


Time (GMT)  Wavelength (Ang)  Step Number  Raw Counts  Counts/Second

   75.11        2950.00           2144         595.00      2592.64
   75.30        2950.25           2147         616.00      2684.20
   75.33        2950.50           2151         589.00      2566.48
   75.36        2950.75           2155         641.00      2793.20
   75.39        2951.00           2158         610.00      2658.04
   75.42        2951.25           2162         614.00      2675.48
   75.45        2951.50           2165         626.00      2727.80
   75.48        2951.75           2169         601.00      2618.80
   75.52        2952.00           2172         628.00      2736.52
   75.55        2952.25           2176         627.00      2732.16
   75.58        2952.50           2179         620.00      2701.64
   75.61        2952.75           2183         625.00      2723.44
   75.64        2953.00           2186         637.00      2775.76
   75.67        2953.25           2190         628.00      2736.52
   75.70        2953.50           2193         648.00      2823.72
   75.73        2953.75           2197         659.00      2871.68
   75.76        2954.00           2200         656.00      2858.60
   75.79        2954.25           2204         667.00      2906.56
   75.82        2954.50           2208         657.00      2862.96
   75.85        2954.75           2211         660.00      2876.04
   75.88        2955.00           2215         698.00      3041.73
   75.91        2955.25           2218         670.00      2919.64
   75.94        2955.50           2222         691.00      3011.21
   75.97        2955.75           2225         688.00      2998.13
   76.00        2956.00           2229         684.00      2980.69
   76.04        2956.25           2232         661.00      2880.40
   76.07        2956.50           2236         684.00      2980.69
   76.10        2956.75           2239         687.00      2993.77
   76.13        2957.00           2243         700.00      3050.45
   76.16        2957.25           2246         736.00      3207.41
   76.19        2957.50           2250         696.00      3033.01
   76.22        2957.75           2254         733.00      3194.33
   76.25        2958.00           2257         756.00      3294.62
   76.28        2958.25           2261         751.00      3272.81
   76.31        2958.50           2264         758.00      3303.34
   76.34        2958.75           2268         789.00      3438.50
   76.37        2959.00           2271         769.00      3351.30
   76.40        2959.25           2275         804.00      3503.90
   76.43        2959.50           2278         813.00      3543.15
   76.46        2959.75           2282         795.00      3464.66
   76.49        2960.00           2285         837.00      3647.79
   76.52        2960.25           2289         837.00      3647.79
   76.56        2960.50           2293         903.00      3935.58
   76.59        2960.75           2296         875.00      3813.49
   76.62        2961.00           2300         990.00      4314.93
   76.65        2961.25           2303        1643.00      7162.60
   76.68        2961.50           2307        5534.00     24142.31
   76.71        2961.75           2310       11644.00     50845.02
   76.74        2962.00           2314       21859.00     95596.61
   76.77        2962.25           2317       30806.00    134905.50
   76.80        2962.50           2321       41951.00    184019.20
   76.83        2962.75           2324       50348.00    221131.90
   76.86        2963.00           2328       61463.00    270402.70
   76.89        2963.25           2331       69952.00    308144.90
   76.92        2963.50           2335       82129.00    362454.60
   76.95        2963.75           2339       94604.00    418303.50
   76.98        2964.00           2342      104028.00    460635.40
   77.01        2964.25           2346      116952.00    518889.70
   77.04        2964.50           2349      126156.00    560518.70
   77.08        2964.75           2353      138184.00    615100.40
   77.11        2965.00           2356      146480.00    652866.40
   77.14        2965.25           2360      158035.00    705632.30
   77.17        2965.50           2363      166548.00    744629.90
   77.20        2965.75           2367      178146.00    797928.90
   77.23        2966.00           2370      185982.00    834050.60
   77.26        2966.25           2374      196433.00    882367.30
   77.29        2966.50           2378      202690.00    911371.90
   77.32        2966.75           2381      204167.00    918227.00
   77.35        2967.00           2385      204906.00    921658.20
   77.38        2967.25           2388      205390.00    923905.80
   77.41        2967.50           2392      205241.00    923213.80
   77.44        2967.75           2395      204421.00    919406.20
   77.47        2968.00           2399      199528.00    896707.10
   77.50        2968.25           2402      192308.00    863277.60
   77.53        2968.50           2406      181639.00    814019.50
   77.56        2968.75           2409      172903.00    773810.20
   77.60        2969.00           2413      160987.00    719143.40
   77.63        2969.25           2417      149458.00    666447.10
   77.66        2969.50           2420      141127.00    628486.60
   77.69        2969.75           2424      128443.00    570881.10
   77.72        2970.00           2427      118815.00    527306.40
   77.75        2970.25           2431      106377.00    471206.20
   77.78        2970.50           2434       98148.00    434208.50
   77.81        2970.75           2438       87146.00    384889.30
   77.84        2971.00           2441       77263.00    340727.90
   77.87        2971.25           2445       63872.00    281103.30
   77.90        2971.50           2449       51489.00    226182.20
   77.93        2971.75           2452       42997.00    188637.10
   77.96        2972.00           2456       31543.00    138148.20
   77.99        2972.25           2459       22758.00     99541.64
   78.02        2972.50           2463       11392.00     49742.73
   78.05        2972.75           2466        5026.00     21924.36
   78.08        2973.00           2470        1664.00      7254.19
   78.12        2973.25           2473        1071.00      4668.13
   78.15        2973.50           2477         959.00      4179.76
   78.18        2973.75           2481         914.00      3983.54
   78.21        2974.00           2484         866.00      3774.24
   78.24        2974.25           2488         880.00      3835.29
   78.27        2974.50           2491         842.00      3669.60
   78.30        2974.75           2495         833.00      3630.35
   78.33        2975.00           2498         816.00      3556.23
   78.36        2975.25           2502         812.00      3538.79
   78.39        2975.50           2505         827.00      3604.19
   78.42        2975.75           2509         782.00      3407.98
   78.45        2976.00           2512         756.00      3294.62
   78.48        2976.25           2516         761.00      3316.42
   78.51        2976.50           2520         730.00      3181.25
   78.55        2976.75           2523         740.00      3224.85
   78.58        2977.00           2527         738.00      3216.13
   78.61        2977.25           2530         741.00      3229.21
   78.64        2977.50           2534         718.00      3128.93
   78.67        2977.75           2537         728.00      3172.53
   78.70        2978.00           2541         694.00      3024.29
   78.73        2978.25           2544         705.00      3072.25
   78.76        2978.50           2548         704.00      3067.89
   78.79        2978.75           2552         699.00      3046.09
   78.82        2979.00           2555         682.00      2971.97
   78.86        2979.25           2559         665.00      2897.84
   78.89        2979.50           2562         676.00      2945.81
   78.92        2979.75           2566         676.00      2945.81
   78.95        2980.00           2569         676.00      2945.81
   78.98        2980.25           2573         653.00      2845.52
   79.01        2980.50           2577         643.00      2801.92
   79.04        2980.75           2580         647.00      2819.36
   79.07        2981.00           2584         685.00      2985.05
   79.10        2981.25           2587         644.00      2806.28
   79.13        2981.50           2591         667.00      2906.56
   79.16        2981.75           2594         662.00      2884.76
   79.19        2982.00           2598         627.00      2732.16
   79.22        2982.25           2601         639.00      2784.48
   79.25        2982.50           2605         649.00      2828.08
   79.28        2982.75           2609         632.00      2753.96
   79.31        2983.00           2612         621.00      2706.00
   79.34        2983.25           2616         640.00      2788.84
   79.38        2983.50           2619         626.00      2727.80
   79.41        2983.75           2623         601.00      2618.80
   79.44        2984.00           2626         640.00      2788.84
HS scan finished at 01:19:40
end
************************************************************
  HS Scan of 
************************************************************
Integration time is 0.2294 seconds per sample
dh240417Reading 51.44 .94 3.03pr1000
************************************************************
Dead Time -------------------------  3.4E-08 
Number of Cycles Used -------------  4 
Starting Wavelength (Angstroms) ---  2950 
Final Wavelength (Angstoms) -------  2984 
Wavelength Increment (Angstroms) --  .25 
Filter Wheel #1 Position ---------- (1) Ground quartz diffuser (ND=2.32)
Filter Wheel #2 Position ---------- (1) Neutral Density 0.494



************************************************************
HS scan start time = 20:07:26
Dark Count =  1.2 


Time (GMT)  Wavelength (Ang)  Step Number  Raw Counts  Counts/Second

 1208.34        2950.00           2144         619.00      2693.36
 1208.53        2950.25           2147         611.00      2658.48
 1208.56        2950.50           2151         625.00      2719.52
 1208.59        2950.75           2155         610.00      2654.12
 1208.62        2951.00           2158         621.00      2702.08
 1208.65        2951.25           2162         629.00      2736.96
 1208.68        2951.50           2165         623.00      2710.80
 1208.71        2951.75           2169         634.00      2758.76
 1208.74        2952.00           2172         621.00      2702.08
 1208.77        2952.25           2176         642.00      2793.64
 1208.81        2952.50           2179         613.00      2667.20
 1208.84        2952.75           2183         626.00      2723.88
 1208.87        2953.00           2186         613.00      2667.20
 1208.90        2953.25           2190         634.00      2758.76
 1208.93        2953.50           2193         640.00      2784.92
 1208.96        2953.75           2197         627.00      2728.24
 1209.00        2954.00           2200         633.00      2754.40
 1209.03        2954.25           2204         645.00      2806.72
 1209.06        2954.50           2208         632.00      2750.04
 1209.09        2954.75           2211         661.00      2876.48
 1209.12        2955.00           2215         641.00      2789.28
 1209.15        2955.25           2218         683.00      2972.40
 1209.18        2955.50           2222         653.00      2841.60
 1209.21        2955.75           2225         648.00      2819.80
 1209.24        2956.00           2229         679.00      2954.96
 1209.27        2956.25           2232         666.00      2898.28
 1209.30        2956.50           2236         693.00      3016.00
 1209.33        2956.75           2239         699.00      3042.16
 1209.36        2957.00           2243         691.00      3007.28
 1209.39        2957.25           2246         708.00      3081.40
 1209.42        2957.50           2250         714.00      3107.56
 1209.45        2957.75           2254         702.00      3055.24
 1209.48        2958.00           2257         712.00      3098.84
 1209.52        2958.25           2261         735.00      3199.13
 1209.55        2958.50           2264         744.00      3238.37
 1209.58        2958.75           2268         754.00      3281.97
 1209.61        2959.00           2271         762.00      3316.85
 1209.64        2959.25           2275         779.00      3390.98
 1209.67        2959.50           2278         791.00      3443.30
 1209.70        2959.75           2282         810.00      3526.14
 1209.73        2960.00           2285         775.00      3373.53
 1209.76        2960.25           2289         817.00      3556.66
 1209.79        2960.50           2293         826.00      3595.91
 1209.82        2960.75           2296         872.00      3796.48
 1209.85        2961.00           2300         917.00      3992.70
 1209.88        2961.25           2303        1070.00      4659.85
 1209.91        2961.50           2307        3098.00     13505.77
 1209.94        2961.75           2310        7796.00     34018.40
 1209.97        2962.00           2314       17321.00     75695.00
 1210.00        2962.25           2317       25480.00    111489.00
 1210.04        2962.50           2321       36585.00    160347.90
 1210.07        2962.75           2324       45055.00    197723.20
 1210.10        2963.00           2328       55881.00    245634.00
 1210.13        2963.25           2331       64807.00    285254.50
 1210.16        2963.50           2335       77123.00    340099.30
 1210.19        2963.75           2339       89341.00    394711.60
 1210.22        2964.00           2342       98514.00    435847.90
 1210.25        2964.25           2346      110827.00    491248.50
 1210.28        2964.50           2349      118583.00    526253.90
 1210.31        2964.75           2353      131017.00    582548.60
 1210.34        2965.00           2356      139222.00    619816.10
 1210.37        2965.25           2360      150309.00    670326.10
 1210.40        2965.50           2363      158118.00    706007.90
 1210.43        2965.75           2367      168670.00    754362.90
 1210.46        2966.00           2370      176757.00    791531.10
 1210.49        2966.25           2374      187883.00    842823.10
 1210.52        2966.50           2378      195059.00    876001.80
 1210.56        2966.75           2381      196724.00    883710.80
 1210.59        2967.00           2385      197817.00    888773.70
 1210.62        2967.25           2388      197703.00    888245.60
 1210.65        2967.50           2392      197747.00    888449.40
 1210.68        2967.75           2395      197124.00    885563.50
 1210.71        2968.00           2399      193040.00    866659.10
 1210.74        2968.25           2402      187623.00    841622.40
 1210.78        2968.50           2406      178549.00    799780.20
 1210.81        2968.75           2409      169813.00    759610.30
 1210.84        2969.00           2413      158414.00    707362.10
 1210.87        2969.25           2417      147493.00    657480.40
 1210.90        2969.50           2420      139429.00    620757.70
 1210.93        2969.75           2424      126877.00    563780.60
 1210.96        2970.00           2427      118491.00    525838.10
 1210.99        2970.25           2431      107190.00    474862.50
 1211.02        2970.50           2434       99004.00    438048.60
 1211.05        2970.75           2438       88439.00    390672.80
 1211.08        2971.00           2441       79473.00    350587.50
 1211.11        2971.25           2445       68234.00    300494.80
 1211.14        2971.50           2449       55929.00    245846.80
 1211.17        2971.75           2452       46891.00    205837.40
 1211.20        2972.00           2456       35881.00    157245.60
 1211.23        2972.25           2459       28078.00    122904.90
 1211.27        2972.50           2463       17716.00     77425.88
 1211.30        2972.75           2466        9957.00     43463.49
 1211.33        2973.00           2470        3117.00     13588.67
 1211.36        2973.25           2473        1513.00      6591.71
 1211.39        2973.50           2477         979.00      4263.04
 1211.42        2973.75           2481         906.00      3944.73
 1211.45        2974.00           2484         901.00      3922.93
 1211.48        2974.25           2488         875.00      3809.56
 1211.51        2974.50           2491         840.00      3656.95
 1211.54        2974.75           2495         794.00      3456.38
 1211.57        2975.00           2498         821.00      3574.10
 1211.60        2975.25           2502         805.00      3504.34
 1211.63        2975.50           2505         808.00      3517.42
 1211.66        2975.75           2509         751.00      3268.89
 1211.69        2976.00           2512         762.00      3316.85
 1211.72        2976.25           2516         746.00      3247.09
 1211.75        2976.50           2520         712.00      3098.84
 1211.79        2976.75           2523         734.00      3194.77
 1211.82        2977.00           2527         748.00      3255.81
 1211.85        2977.25           2530         717.00      3120.65
 1211.88        2977.50           2534         705.00      3068.32
 1211.91        2977.75           2537         670.00      2915.72
 1211.94        2978.00           2541         689.00      2998.56
 1211.97        2978.25           2544         683.00      2972.40
 1212.00        2978.50           2548         706.00      3072.68
 1212.03        2978.75           2552         683.00      2972.40
 1212.06        2979.00           2555         680.00      2959.32
 1212.09        2979.25           2559         669.00      2911.36
 1212.12        2979.50           2562         659.00      2867.76
 1212.15        2979.75           2566         679.00      2954.96
 1212.18        2980.00           2569         649.00      2824.16
 1212.21        2980.25           2573         649.00      2824.16
 1212.24        2980.50           2577         629.00      2736.96
 1212.27        2980.75           2580         621.00      2702.08
 1212.31        2981.00           2584         651.00      2832.88
 1212.34        2981.25           2587         644.00      2802.36
 1212.37        2981.50           2591         637.00      2771.84
 1212.40        2981.75           2594         628.00      2732.60
 1212.43        2982.00           2598         622.00      2706.44
 1212.46        2982.25           2601         609.00      2649.76
 1212.49        2982.50           2605         656.00      2854.68
 1212.52        2982.75           2609         599.00      2606.16
 1212.55        2983.00           2612         594.00      2584.36
 1212.58        2983.25           2616         610.00      2654.12
 1212.61        2983.50           2619         604.00      2627.96
 1212.64        2983.75           2623         598.00      2601.80
 1212.67        2984.00           2626         601.00      2614.88
HS scan finished at 20:12:54
end
