************************************************************
  HS Scan of (1) Internal mercury lamp
************************************************************
Integration time is 0.2294 seconds per sample
dh270418Reading 51.44 .94 2.96pr1000
************************************************************
Dead Time -------------------------  3.4E-08 
Number of Cycles Used -------------  4 
Starting Wavelength (Angstroms) ---  2950 
Final Wavelength (Angstoms) -------  2984 
Wavelength Increment (Angstroms) --  .25 
Filter Wheel #1 Position ---------- (1) Ground quartz diffuser (ND=2.32)
Filter Wheel #2 Position ---------- (1) Neutral Density 0.494



************************************************************
HS scan start time = 01:05:36
Dark Count =  .6 


Time (GMT)  Wavelength (Ang)  Step Number  Raw Counts  Counts/Second

   66.49        2950.00           2144          96.00       415.87
   66.68        2950.25           2147          97.00       420.23
   66.71        2950.50           2151          87.00       376.64
   66.75        2950.75           2155         109.00       472.54
   66.78        2951.00           2158          90.00       389.72
   66.81        2951.25           2162          90.00       389.72
   66.84        2951.50           2165          95.00       411.51
   66.87        2951.75           2169         119.00       516.14
   66.90        2952.00           2172          95.00       411.51
   66.93        2952.25           2176          89.00       385.36
   66.96        2952.50           2179          93.00       402.80
   66.99        2952.75           2183         102.00       442.03
   67.02        2953.00           2186          93.00       402.80
   67.05        2953.25           2190         103.00       446.39
   67.08        2953.50           2193         103.00       446.39
   67.11        2953.75           2197         117.00       507.42
   67.14        2954.00           2200         100.00       433.31
   67.17        2954.25           2204          95.00       411.51
   67.20        2954.50           2208         101.00       437.67
   67.23        2954.75           2211          89.00       385.36
   67.27        2955.00           2215         102.00       442.03
   67.30        2955.25           2218         100.00       433.31
   67.33        2955.50           2222          99.00       428.95
   67.36        2955.75           2225         100.00       433.31
   67.39        2956.00           2229         106.00       459.47
   67.42        2956.25           2232         110.00       476.90
   67.45        2956.50           2236         107.00       463.83
   67.48        2956.75           2239         105.00       455.11
   67.51        2957.00           2243         112.00       485.62
   67.54        2957.25           2246         115.00       498.70
   67.57        2957.50           2250         108.00       468.19
   67.60        2957.75           2254         104.00       450.75
   67.63        2958.00           2257         144.00       625.12
   67.66        2958.25           2261         138.00       598.97
   67.69        2958.50           2264         118.00       511.78
   67.72        2958.75           2268         127.00       551.01
   67.75        2959.00           2271         132.00       572.81
   67.79        2959.25           2275         123.00       533.58
   67.82        2959.50           2278         126.00       546.65
   67.85        2959.75           2282         125.00       542.29
   67.88        2960.00           2285         200.00       869.25
   67.91        2960.25           2289         129.00       559.73
   67.94        2960.50           2293         137.00       594.61
   67.97        2960.75           2296         137.00       594.61
   68.00        2961.00           2300         188.00       816.94
   68.03        2961.25           2303         455.00      1980.95
   68.06        2961.50           2307        1489.00      6489.66
   68.09        2961.75           2310        2637.00     11497.08
   68.12        2962.00           2314        4270.00     18622.95
   68.15        2962.25           2317        5457.00     23804.79
   68.18        2962.50           2321        7079.00     30888.57
   68.21        2962.75           2324        8511.00     37145.40
   68.24        2963.00           2328       10416.00     45473.05
   68.27        2963.25           2331       11938.00     52129.81
   68.31        2963.50           2335       14044.00     61345.79
   68.34        2963.75           2339       15911.00     69520.72
   68.37        2964.00           2342       17441.00     76223.44
   68.40        2964.25           2346       19041.00     83236.11
   68.43        2964.50           2349       20427.00     89313.53
   68.46        2964.75           2353       22163.00     96929.21
   68.49        2965.00           2356       23492.00    102762.10
   68.52        2965.25           2360       25277.00    110600.00
   68.55        2965.50           2363       26721.00    116943.60
   68.58        2965.75           2367       28376.00    124217.50
   68.61        2966.00           2370       29844.00    130672.60
   68.64        2966.25           2374       31202.00    136646.50
   68.67        2966.50           2378       32191.00    140998.70
   68.70        2966.75           2381       32417.00    141993.40
   68.73        2967.00           2385       32301.00    141482.80
   68.76        2967.25           2388       32394.00    141892.10
   68.79        2967.50           2392       32497.00    142345.50
   68.83        2967.75           2395       32025.00    140268.10
   68.86        2968.00           2399       31088.00    136144.90
   68.89        2968.25           2402       29952.00    131147.60
   68.92        2968.50           2406       28109.00    123043.80
   68.95        2968.75           2409       26635.00    116565.70
   68.98        2969.00           2413       24952.00    109172.60
   69.01        2969.25           2417       23016.00    100672.70
   69.04        2969.50           2420       21757.00     95147.77
   69.07        2969.75           2424       19763.00     86401.66
   69.10        2970.00           2427       18355.00     80229.03
   69.13        2970.25           2431       16281.00     71141.36
   69.16        2970.50           2434       14781.00     64572.30
   69.19        2970.75           2438       12803.00     55914.40
   69.22        2971.00           2441       11406.00     49802.66
   69.25        2971.25           2445        9603.00     41918.47
   69.28        2971.50           2449        7874.00     34361.83
   69.31        2971.75           2452        6413.00     27979.53
   69.35        2972.00           2456        4424.00     19295.13
   69.38        2972.25           2459        3034.00     13229.14
   69.41        2972.50           2463        1576.00      6869.08
   69.44        2972.75           2466         717.00      3123.26
   69.47        2973.00           2470         268.00      1165.70
   69.50        2973.25           2473         154.00       668.72
   69.53        2973.50           2477         154.00       668.72
   69.56        2973.75           2481         134.00       581.53
   69.59        2974.00           2484         147.00       638.20
   69.62        2974.25           2488         118.00       511.78
   69.65        2974.50           2491         145.00       629.48
   69.68        2974.75           2495         137.00       594.61
   69.71        2975.00           2498         140.00       607.68
   69.74        2975.25           2502         143.00       620.76
   69.77        2975.50           2505         143.00       620.76
   69.80        2975.75           2509         137.00       594.61
   69.83        2976.00           2512         112.00       485.62
   69.87        2976.25           2516         152.00       660.00
   69.90        2976.50           2520          96.00       415.87
   69.93        2976.75           2523         104.00       450.75
   69.96        2977.00           2527         140.00       607.68
   69.99        2977.25           2530         105.00       455.11
   70.02        2977.50           2534         121.00       524.86
   70.05        2977.75           2537         109.00       472.54
   70.08        2978.00           2541         104.00       450.75
   70.11        2978.25           2544         107.00       463.83
   70.14        2978.50           2548         102.00       442.03
   70.17        2978.75           2552         102.00       442.03
   70.20        2979.00           2555         118.00       511.78
   70.23        2979.25           2559         107.00       463.83
   70.26        2979.50           2562         104.00       450.75
   70.29        2979.75           2566         101.00       437.67
   70.32        2980.00           2569          98.00       424.59
   70.35        2980.25           2573          95.00       411.51
   70.38        2980.50           2577          95.00       411.51
   70.42        2980.75           2580          96.00       415.87
   70.45        2981.00           2584          96.00       415.87
   70.48        2981.25           2587          89.00       385.36
   70.51        2981.50           2591          96.00       415.87
   70.54        2981.75           2594          85.00       367.92
   70.57        2982.00           2598          97.00       420.23
   70.60        2982.25           2601          89.00       385.36
   70.63        2982.50           2605          93.00       402.80
   70.66        2982.75           2609          89.00       385.36
   70.69        2983.00           2612          99.00       428.95
   70.72        2983.25           2616          92.00       398.44
   70.75        2983.50           2619          86.00       372.28
   70.78        2983.75           2623          88.00       381.00
   70.81        2984.00           2626          91.00       394.08
HS scan finished at 01:11:02
end
************************************************************
  HS Scan of (1) Internal mercury lamp
************************************************************
Integration time is 0.2294 seconds per sample
dh270418Reading 51.44 .94 3.09pr1000
************************************************************
Dead Time -------------------------  3.4E-08 
Number of Cycles Used -------------  4 
Starting Wavelength (Angstroms) ---  2950 
Final Wavelength (Angstoms) -------  2984 
Wavelength Increment (Angstroms) --  .25 
Filter Wheel #1 Position ---------- (1) Ground quartz diffuser (ND=2.32)
Filter Wheel #2 Position ---------- (1) Neutral Density 0.494



************************************************************
HS scan start time = 20:09:58
Dark Count =  .8 


Time (GMT)  Wavelength (Ang)  Step Number  Raw Counts  Counts/Second

 1210.87        2950.00           2144          76.00       327.82
 1211.06        2950.25           2147          84.00       362.69
 1211.09        2950.50           2151          86.00       371.41
 1211.12        2950.75           2155          91.00       393.20
 1211.15        2951.00           2158          87.00       375.77
 1211.18        2951.25           2162          90.00       388.85
 1211.21        2951.50           2165          89.00       384.49
 1211.24        2951.75           2169          84.00       362.69
 1211.27        2952.00           2172          91.00       393.20
 1211.30        2952.25           2176          99.00       428.08
 1211.33        2952.50           2179          90.00       388.85
 1211.37        2952.75           2183          88.00       380.13
 1211.40        2953.00           2186         113.00       489.11
 1211.43        2953.25           2190          90.00       388.85
 1211.46        2953.50           2193          90.00       388.85
 1211.49        2953.75           2197          93.00       401.92
 1211.52        2954.00           2200          94.00       406.28
 1211.55        2954.25           2204          98.00       423.72
 1211.58        2954.50           2208          88.00       380.13
 1211.61        2954.75           2211          89.00       384.49
 1211.64        2955.00           2215          93.00       401.92
 1211.67        2955.25           2218          89.00       384.49
 1211.70        2955.50           2222          92.00       397.56
 1211.73        2955.75           2225          97.00       419.36
 1211.76        2956.00           2229          98.00       423.72
 1211.79        2956.25           2232         114.00       493.47
 1211.82        2956.50           2236         113.00       489.11
 1211.86        2956.75           2239         117.00       506.55
 1211.89        2957.00           2243          97.00       419.36
 1211.92        2957.25           2246         100.00       432.44
 1211.95        2957.50           2250         109.00       471.67
 1211.98        2957.75           2254         113.00       489.11
 1212.01        2958.00           2257         104.00       449.88
 1212.04        2958.25           2261         103.00       445.52
 1212.07        2958.50           2264         110.00       476.03
 1212.10        2958.75           2268         122.00       528.34
 1212.14        2959.00           2271         127.00       550.14
 1212.17        2959.25           2275         107.00       462.95
 1212.20        2959.50           2278         109.00       471.67
 1212.23        2959.75           2282         109.00       471.67
 1212.26        2960.00           2285         123.00       532.70
 1212.29        2960.25           2289         142.00       615.53
 1212.32        2960.50           2293         144.00       624.25
 1212.35        2960.75           2296         163.00       707.08
 1212.38        2961.00           2300         154.00       667.84
 1212.41        2961.25           2303         317.00      1378.44
 1212.44        2961.50           2307        1155.00      5032.25
 1212.48        2961.75           2310        2118.00      9232.19
 1212.51        2962.00           2314        3525.00     15370.72
 1212.54        2962.25           2317        4701.00     20503.39
 1212.57        2962.50           2321        6326.00     27598.69
 1212.60        2962.75           2324        7487.00     32670.10
 1212.63        2963.00           2328        9085.00     39653.25
 1212.66        2963.25           2331       10405.00     45424.07
 1212.69        2963.50           2335       12141.00     53017.02
 1212.72        2963.75           2339       13947.00     60920.30
 1212.75        2964.00           2342       15307.00     66874.65
 1212.78        2964.25           2346       16897.00     73839.02
 1212.81        2964.50           2349       17944.00     78426.81
 1212.84        2964.75           2353       19762.00     86396.41
 1212.87        2965.00           2356       21016.00     91896.09
 1212.90        2965.25           2360       22710.00     99328.79
 1212.93        2965.50           2363       23826.00    104227.50
 1212.96        2965.75           2367       25277.00    110599.10
 1213.00        2966.00           2370       26452.00    115760.70
 1213.03        2966.25           2374       27784.00    121614.30
 1213.06        2966.50           2378       28905.00    126542.40
 1213.09        2966.75           2381       29574.00    129484.20
 1213.12        2967.00           2385       29757.00    130289.10
 1213.15        2967.25           2388       29745.00    130236.30
 1213.18        2967.50           2392       30137.00    131960.40
 1213.21        2967.75           2395       29812.00    130531.00
 1213.24        2968.00           2399       29226.00    127953.90
 1213.27        2968.25           2402       28096.00    122985.70
 1213.30        2968.50           2406       26367.00    115387.30
 1213.33        2968.75           2409       25062.00    109654.80
 1213.36        2969.00           2413       23231.00    101615.50
 1213.39        2969.25           2417       21372.00     93457.79
 1213.42        2969.50           2420       19798.00     86554.26
 1213.45        2969.75           2424       18091.00     79071.05
 1213.48        2970.00           2427       16918.00     73931.03
 1213.52        2970.25           2431       15202.00     66414.85
 1213.55        2970.50           2434       13791.00     60237.46
 1213.58        2970.75           2438       11859.00     51783.33
 1213.61        2971.00           2441       10595.00     46254.90
 1213.64        2971.25           2445        9126.00     39832.46
 1213.67        2971.50           2449        7370.00     32158.95
 1213.70        2971.75           2452        6102.00     26620.43
 1213.73        2972.00           2456        4596.00     20045.04
 1213.76        2972.25           2459        3276.00     14284.18
 1213.79        2972.50           2463        1652.00      7199.67
 1213.82        2972.75           2466         751.00      3270.63
 1213.85        2973.00           2470         231.00      1003.52
 1213.88        2973.25           2473         151.00       654.77
 1213.91        2973.50           2477         142.00       615.53
 1213.94        2973.75           2481         143.00       619.89
 1213.97        2974.00           2484         143.00       619.89
 1214.00        2974.25           2488         144.00       624.25
 1214.04        2974.50           2491         139.00       602.45
 1214.07        2974.75           2495         129.00       558.86
 1214.10        2975.00           2498         148.00       641.69
 1214.13        2975.25           2502         104.00       449.88
 1214.16        2975.50           2505         107.00       462.95
 1214.19        2975.75           2509         116.00       502.19
 1214.22        2976.00           2512         123.00       532.70
 1214.25        2976.25           2516         126.00       545.78
 1214.28        2976.50           2520         110.00       476.03
 1214.31        2976.75           2523         100.00       432.44
 1214.34        2977.00           2527         124.00       537.06
 1214.37        2977.25           2530         125.00       541.42
 1214.40        2977.50           2534         121.00       523.98
 1214.43        2977.75           2537         101.00       436.80
 1214.46        2978.00           2541          98.00       423.72
 1214.49        2978.25           2544         101.00       436.80
 1214.52        2978.50           2548          93.00       401.92
 1214.56        2978.75           2552         102.00       441.16
 1214.59        2979.00           2555          98.00       423.72
 1214.62        2979.25           2559          96.00       415.00
 1214.65        2979.50           2562          92.00       397.56
 1214.68        2979.75           2566          94.00       406.28
 1214.71        2980.00           2569          86.00       371.41
 1214.74        2980.25           2573          90.00       388.85
 1214.77        2980.50           2577          83.00       358.33
 1214.80        2980.75           2580          90.00       388.85
 1214.83        2981.00           2584          92.00       397.56
 1214.86        2981.25           2587          92.00       397.56
 1214.89        2981.50           2591          80.00       345.25
 1214.92        2981.75           2594         108.00       467.31
 1214.95        2982.00           2598          88.00       380.13
 1214.98        2982.25           2601          80.00       345.25
 1215.01        2982.50           2605          86.00       371.41
 1215.04        2982.75           2609          84.00       362.69
 1215.08        2983.00           2612          86.00       371.41
 1215.11        2983.25           2616          81.00       349.61
 1215.14        2983.50           2619          84.00       362.69
 1215.17        2983.75           2623          82.00       353.97
 1215.20        2984.00           2626          83.00       358.33
HS scan finished at 20:15:25
end
