************************************************************
  HS Scan of (1) Internal mercury lamp
************************************************************
Integration time is 0.2294 seconds per sample
dh070518Reading 51.44 .94 3.49pr1000
************************************************************
Dead Time -------------------------  3.4E-08 
Number of Cycles Used -------------  4 
Starting Wavelength (Angstroms) ---  2950 
Final Wavelength (Angstoms) -------  2984 
Wavelength Increment (Angstroms) --  .25 
Filter Wheel #1 Position ---------- (1) Ground quartz diffuser (ND=2.32)
Filter Wheel #2 Position ---------- (1) Neutral Density 0.494



************************************************************
HS scan start time = 01:12:35
Dark Count =  2.2 


Time (GMT)  Wavelength (Ang)  Step Number  Raw Counts  Counts/Second

   73.48        2950.00           2144          82.00       347.87
   73.68        2950.25           2147          79.00       334.79
   73.71        2950.50           2151          88.00       374.02
   73.74        2950.75           2155          80.00       339.15
   73.77        2951.00           2158          91.00       387.10
   73.80        2951.25           2162          86.00       365.31
   73.83        2951.50           2165          80.00       339.15
   73.86        2951.75           2169          87.00       369.66
   73.89        2952.00           2172          81.00       343.51
   73.92        2952.25           2176          81.00       343.51
   73.95        2952.50           2179          87.00       369.66
   73.98        2952.75           2183          89.00       378.38
   74.01        2953.00           2186          89.00       378.38
   74.04        2953.25           2190          89.00       378.38
   74.07        2953.50           2193          89.00       378.38
   74.10        2953.75           2197          93.00       395.82
   74.14        2954.00           2200          95.00       404.54
   74.17        2954.25           2204          98.00       417.62
   74.20        2954.50           2208          84.00       356.59
   74.23        2954.75           2211          96.00       408.90
   74.26        2955.00           2215         103.00       439.41
   74.29        2955.25           2218         127.00       544.04
   74.32        2955.50           2222         117.00       500.44
   74.35        2955.75           2225          97.00       413.26
   74.38        2956.00           2229          91.00       387.10
   74.41        2956.25           2232          97.00       413.26
   74.44        2956.50           2236          96.00       408.90
   74.47        2956.75           2239         104.00       443.77
   74.50        2957.00           2243          95.00       404.54
   74.53        2957.25           2246          98.00       417.62
   74.56        2957.50           2250          98.00       417.62
   74.59        2957.75           2254          92.00       391.46
   74.62        2958.00           2257         102.00       435.05
   74.66        2958.25           2261         108.00       461.21
   74.69        2958.50           2264         126.00       539.68
   74.72        2958.75           2268         102.00       435.05
   74.75        2959.00           2271          97.00       413.26
   74.78        2959.25           2275         129.00       552.76
   74.81        2959.50           2278         117.00       500.44
   74.84        2959.75           2282         112.00       478.65
   74.87        2960.00           2285         119.00       509.16
   74.90        2960.25           2289         164.00       705.34
   74.93        2960.50           2293         139.00       596.35
   74.96        2960.75           2296         169.00       727.13
   74.99        2961.00           2300         188.00       809.96
   75.02        2961.25           2303         461.00      2000.14
   75.05        2961.50           2307        1403.00      6107.63
   75.08        2961.75           2310        2410.00     10499.82
   75.11        2962.00           2314        4038.00     17603.38
   75.14        2962.25           2317        5301.00     23116.68
   75.18        2962.50           2321        6938.00     30265.66
   75.21        2962.75           2324        8337.00     36378.01
   75.24        2963.00           2328       10057.00     43896.33
   75.27        2963.25           2331       11334.00     49480.73
   75.30        2963.50           2335       13193.00     57614.06
   75.33        2963.75           2339       15061.00     65791.30
   75.36        2964.00           2342       16632.00     72671.94
   75.39        2964.25           2346       18221.00     79634.69
   75.42        2964.50           2349       19492.00     85206.38
   75.45        2964.75           2353       21233.00     92841.88
   75.48        2965.00           2356       22846.00     99919.53
   75.51        2965.25           2360       24651.00    107843.70
   75.54        2965.50           2363       25664.00    112292.80
   75.57        2965.75           2367       27280.00    119393.00
   75.60        2966.00           2370       28267.00    123731.30
   75.63        2966.25           2374       29977.00    131250.50
   75.66        2966.50           2378       30624.00    134096.50
   75.70        2966.75           2381       30823.00    134971.90
   75.73        2967.00           2385       30681.00    134347.20
   75.76        2967.25           2388       31112.00    136243.40
   75.79        2967.50           2392       30730.00    134562.80
   75.82        2967.75           2395       30713.00    134488.00
   75.85        2968.00           2399       29781.00    130388.50
   75.88        2968.25           2402       28615.00    125261.20
   75.91        2968.50           2406       27014.00    118224.10
   75.94        2968.75           2409       25440.00    111308.90
   75.97        2969.00           2413       23422.00    102447.80
   76.00        2969.25           2417       21705.00     94912.59
   76.03        2969.50           2420       20311.00     88797.78
   76.06        2969.75           2424       18640.00     81471.24
   76.09        2970.00           2427       17132.00     74862.50
   76.12        2970.25           2431       15197.00     66386.82
   76.15        2970.50           2434       13805.00     60292.61
   76.18        2970.75           2438       12051.00     52617.16
   76.22        2971.00           2441       10750.00     46926.60
   76.25        2971.25           2445        8880.00     38751.11
   76.28        2971.50           2449        7127.00     31091.26
   76.31        2971.75           2452        5989.00     26120.84
   76.34        2972.00           2456        4155.00     18114.03
   76.37        2972.25           2459        2817.00     12275.39
   76.40        2972.50           2463        1338.00      5824.17
   76.43        2972.75           2466         601.00      2610.52
   76.46        2973.00           2470         247.00      1067.17
   76.49        2973.25           2473         167.00       718.41
   76.52        2973.50           2477         164.00       705.34
   76.55        2973.75           2481         142.00       609.43
   76.58        2974.00           2484         144.00       618.15
   76.61        2974.25           2488         132.00       565.83
   76.64        2974.50           2491         163.00       700.98
   76.67        2974.75           2495         137.00       587.63
   76.70        2975.00           2498         146.00       626.87
   76.74        2975.25           2502         121.00       517.88
   76.77        2975.50           2505         117.00       500.44
   76.80        2975.75           2509         132.00       565.83
   76.83        2976.00           2512         108.00       461.21
   76.86        2976.25           2516         127.00       544.04
   76.89        2976.50           2520          92.00       391.46
   76.92        2976.75           2523         105.00       448.13
   76.95        2977.00           2527          98.00       417.62
   76.98        2977.25           2530          95.00       404.54
   77.01        2977.50           2534         113.00       483.01
   77.04        2977.75           2537          98.00       417.62
   77.07        2978.00           2541          84.00       356.59
   77.10        2978.25           2544         126.00       539.68
   77.13        2978.50           2548          91.00       387.10
   77.16        2978.75           2552          92.00       391.46
   77.19        2979.00           2555          97.00       413.26
   77.22        2979.25           2559         101.00       430.70
   77.25        2979.50           2562          90.00       382.74
   77.29        2979.75           2566          88.00       374.02
   77.32        2980.00           2569          84.00       356.59
   77.35        2980.25           2573          89.00       378.38
   77.38        2980.50           2577          92.00       391.46
   77.41        2980.75           2580          90.00       382.74
   77.44        2981.00           2584          89.00       378.38
   77.47        2981.25           2587          78.00       330.43
   77.50        2981.50           2591          90.00       382.74
   77.53        2981.75           2594          91.00       387.10
   77.56        2982.00           2598          89.00       378.38
   77.59        2982.25           2601          89.00       378.38
   77.62        2982.50           2605          87.00       369.66
   77.65        2982.75           2609         106.00       452.49
   77.68        2983.00           2612          85.00       360.95
   77.71        2983.25           2616          81.00       343.51
   77.74        2983.50           2619          80.00       339.15
   77.77        2983.75           2623          89.00       378.38
   77.81        2984.00           2626          84.00       356.59
HS scan finished at 01:18:02
end
************************************************************
  HS Scan of (1) Internal mercury lamp
************************************************************
Integration time is 0.2294 seconds per sample
dh070518Reading 51.44 .94 4.01pr1000
************************************************************
Dead Time -------------------------  3.4E-08 
Number of Cycles Used -------------  4 
Starting Wavelength (Angstroms) ---  2950 
Final Wavelength (Angstoms) -------  2984 
Wavelength Increment (Angstroms) --  .25 
Filter Wheel #1 Position ---------- (1) Ground quartz diffuser (ND=2.32)
Filter Wheel #2 Position ---------- (1) Neutral Density 0.494



************************************************************
HS scan start time = 20:37:28
Dark Count =  11.5 


Time (GMT)  Wavelength (Ang)  Step Number  Raw Counts  Counts/Second

 1238.36        2950.00           2144          42.00       132.96
 1238.55        2950.25           2147          47.00       154.75
 1238.58        2950.50           2151          50.00       167.83
 1238.61        2950.75           2155          41.00       128.60
 1238.64        2951.00           2158          44.00       141.67
 1238.67        2951.25           2162          51.00       172.19
 1238.70        2951.50           2165          42.00       132.96
 1238.73        2951.75           2169          48.00       159.11
 1238.76        2952.00           2172          46.00       150.39
 1238.80        2952.25           2176          46.00       150.39
 1238.83        2952.50           2179          47.00       154.75
 1238.86        2952.75           2183          44.00       141.67
 1238.89        2953.00           2186          43.00       137.32
 1238.92        2953.25           2190          46.00       150.39
 1238.95        2953.50           2193          55.00       189.63
 1238.98        2953.75           2197          51.00       172.19
 1239.01        2954.00           2200          50.00       167.83
 1239.04        2954.25           2204          47.00       154.75
 1239.07        2954.50           2208          49.00       163.47
 1239.10        2954.75           2211          45.00       146.03
 1239.13        2955.00           2215          49.00       163.47
 1239.16        2955.25           2218          50.00       167.83
 1239.19        2955.50           2222          54.00       185.27
 1239.22        2955.75           2225          49.00       163.47
 1239.25        2956.00           2229          49.00       163.47
 1239.28        2956.25           2232          50.00       167.83
 1239.32        2956.50           2236          49.00       163.47
 1239.35        2956.75           2239          52.00       176.55
 1239.38        2957.00           2243          54.00       185.27
 1239.41        2957.25           2246          51.00       172.19
 1239.44        2957.50           2250          55.00       189.63
 1239.47        2957.75           2254          49.00       163.47
 1239.50        2958.00           2257          54.00       185.27
 1239.53        2958.25           2261          55.00       189.63
 1239.56        2958.50           2264          57.00       198.34
 1239.59        2958.75           2268          55.00       189.63
 1239.62        2959.00           2271          62.00       220.14
 1239.65        2959.25           2275          60.00       211.42
 1239.68        2959.50           2278          63.00       224.50
 1239.71        2959.75           2282          54.00       185.27
 1239.74        2960.00           2285          62.00       220.14
 1239.77        2960.25           2289          62.00       220.14
 1239.80        2960.50           2293          62.00       220.14
 1239.83        2960.75           2296          68.00       246.30
 1239.87        2961.00           2300          91.00       346.56
 1239.90        2961.25           2303         227.00       939.44
 1239.93        2961.50           2307         701.00      3005.97
 1239.96        2961.75           2310        1166.00      5033.56
 1239.99        2962.00           2314        1898.00      8225.93
 1240.02        2962.25           2317        2413.00     10472.34
 1240.05        2962.50           2321        3201.00     13910.24
 1240.08        2962.75           2324        3872.00     16838.32
 1240.11        2963.00           2328        4712.00     20504.70
 1240.14        2963.25           2331        5458.00     23761.56
 1240.17        2963.50           2335        6233.00     27145.79
 1240.20        2963.75           2339        6977.00     30395.39
 1240.23        2964.00           2342        7592.00     33082.10
 1240.26        2964.25           2346        8587.00     37429.90
 1240.29        2964.50           2349        9166.00     39960.53
 1240.32        2964.75           2353       10062.00     43877.53
 1240.35        2965.00           2356       10750.00     46885.93
 1240.39        2965.25           2360       11299.00     49286.98
 1240.42        2965.50           2363       11988.00     52300.85
 1240.45        2965.75           2367       12717.00     55490.38
 1240.48        2966.00           2370       13360.00     58304.23
 1240.51        2966.25           2374       13852.00     60457.63
 1240.54        2966.50           2378       14321.00     62510.67
 1240.58        2966.75           2381       14385.00     62790.85
 1240.61        2967.00           2385       14486.00     63233.01
 1240.65        2967.25           2388       14500.00     63294.31
 1240.68        2967.50           2392       14586.00     63670.82
 1240.71        2967.75           2395       14439.00     63027.24
 1240.74        2968.00           2399       13960.00     60930.37
 1240.77        2968.25           2402       13457.00     58728.75
 1240.80        2968.50           2406       12564.00     54820.92
 1240.83        2968.75           2409       12152.00     53018.33
 1240.86        2969.00           2413       11285.00     49225.74
 1240.89        2969.25           2417       10601.00     46234.35
 1240.92        2969.50           2420        9935.00     43322.27
 1240.95        2969.75           2424        8957.00     39047.01
 1240.98        2970.00           2427        8122.00     35397.86
 1241.01        2970.25           2431        7460.00     32505.39
 1241.04        2970.50           2434        6783.00     29547.98
 1241.07        2970.75           2438        5937.00     25853.14
 1241.10        2971.00           2441        5263.00     22910.17
 1241.13        2971.25           2445        4444.00     19334.85
 1241.17        2971.50           2449        3435.00     14931.29
 1241.20        2971.75           2452        2772.00     12038.49
 1241.23        2972.00           2456        2022.00      8766.78
 1241.26        2972.25           2459        1460.00      6315.65
 1241.29        2972.50           2463         757.00      3250.14
 1241.32        2972.75           2466         326.00      1371.03
 1241.35        2973.00           2470         140.00       560.17
 1241.38        2973.25           2473          84.00       316.05
 1241.41        2973.50           2477          71.00       259.37
 1241.44        2973.75           2481          66.00       237.58
 1241.47        2974.00           2484          67.00       241.94
 1241.50        2974.25           2488          62.00       220.14
 1241.53        2974.50           2491          63.00       224.50
 1241.56        2974.75           2495          61.00       215.78
 1241.59        2975.00           2498          64.00       228.86
 1241.62        2975.25           2502          61.00       215.78
 1241.65        2975.50           2505          55.00       189.63
 1241.69        2975.75           2509          55.00       189.63
 1241.72        2976.00           2512          61.00       215.78
 1241.75        2976.25           2516          55.00       189.63
 1241.78        2976.50           2520          61.00       215.78
 1241.81        2976.75           2523          56.00       193.99
 1241.84        2977.00           2527          54.00       185.27
 1241.87        2977.25           2530          49.00       163.47
 1241.90        2977.50           2534          48.00       159.11
 1241.93        2977.75           2537          47.00       154.75
 1241.97        2978.00           2541          50.00       167.83
 1242.00        2978.25           2544          50.00       167.83
 1242.03        2978.50           2548          51.00       172.19
 1242.06        2978.75           2552          54.00       185.27
 1242.09        2979.00           2555          54.00       185.27
 1242.12        2979.25           2559          53.00       180.91
 1242.15        2979.50           2562          54.00       185.27
 1242.18        2979.75           2566          53.00       180.91
 1242.21        2980.00           2569          51.00       172.19
 1242.24        2980.25           2573          44.00       141.67
 1242.27        2980.50           2577          48.00       159.11
 1242.30        2980.75           2580          48.00       159.11
 1242.33        2981.00           2584          50.00       167.83
 1242.36        2981.25           2587          46.00       150.39
 1242.40        2981.50           2591          51.00       172.19
 1242.43        2981.75           2594          49.00       163.47
 1242.46        2982.00           2598          49.00       163.47
 1242.49        2982.25           2601          51.00       172.19
 1242.52        2982.50           2605          53.00       180.91
 1242.55        2982.75           2609          43.00       137.32
 1242.59        2983.00           2612          48.00       159.11
 1242.62        2983.25           2616          46.00       150.39
 1242.65        2983.50           2619          46.00       150.39
 1242.68        2983.75           2623          47.00       154.75
 1242.71        2984.00           2626          40.00       124.24
HS scan finished at 20:42:56
end
