************************************************************
  HS Scan of (1) Internal mercury lamp
************************************************************
Integration time is 0.2294 seconds per sample
dh090518Reading 51.44 .94 3.27pr1000
************************************************************
Dead Time -------------------------  3.4E-08 
Number of Cycles Used -------------  4 
Starting Wavelength (Angstroms) ---  2950 
Final Wavelength (Angstoms) -------  2984 
Wavelength Increment (Angstroms) --  .25 
Filter Wheel #1 Position ---------- (1) Ground quartz diffuser (ND=2.32)
Filter Wheel #2 Position ---------- (1) Neutral Density 0.494



************************************************************
HS scan start time = 02:32:09
Dark Count =  1.4 


Time (GMT)  Wavelength (Ang)  Step Number  Raw Counts  Counts/Second

  153.05        2950.00           2144          85.00       364.43
  153.24        2950.25           2147          82.00       351.36
  153.27        2950.50           2151          94.00       403.67
  153.30        2950.75           2155          90.00       386.23
  153.33        2951.00           2158          84.00       360.07
  153.36        2951.25           2162          85.00       364.43
  153.39        2951.50           2165          77.00       329.56
  153.42        2951.75           2169          80.00       342.64
  153.45        2952.00           2172          84.00       360.07
  153.48        2952.25           2176          90.00       386.23
  153.51        2952.50           2179          81.00       347.00
  153.55        2952.75           2183         103.00       442.90
  153.58        2953.00           2186          86.00       368.79
  153.61        2953.25           2190          99.00       425.46
  153.64        2953.50           2193          89.00       381.87
  153.67        2953.75           2197         107.00       460.34
  153.70        2954.00           2200          77.00       329.56
  153.73        2954.25           2204          83.00       355.71
  153.76        2954.50           2208          87.00       373.15
  153.79        2954.75           2211         120.00       517.01
  153.82        2955.00           2215          88.00       377.51
  153.85        2955.25           2218          85.00       364.43
  153.88        2955.50           2222          90.00       386.23
  153.91        2955.75           2225          84.00       360.07
  153.94        2956.00           2229          86.00       368.79
  153.97        2956.25           2232          91.00       390.59
  154.00        2956.50           2236          96.00       412.39
  154.03        2956.75           2239          90.00       386.23
  154.07        2957.00           2243         105.00       451.62
  154.10        2957.25           2246          99.00       425.46
  154.13        2957.50           2250          90.00       386.23
  154.16        2957.75           2254          97.00       416.75
  154.19        2958.00           2257         100.00       429.82
  154.22        2958.25           2261         119.00       512.65
  154.25        2958.50           2264         105.00       451.62
  154.28        2958.75           2268         132.00       569.32
  154.31        2959.00           2271          98.00       421.10
  154.34        2959.25           2275         123.00       530.09
  154.37        2959.50           2278         117.00       503.93
  154.40        2959.75           2282         112.00       482.14
  154.43        2960.00           2285         126.00       543.17
  154.46        2960.25           2289         136.00       586.76
  154.49        2960.50           2293         141.00       608.56
  154.52        2960.75           2296         122.00       525.73
  154.56        2961.00           2300         152.00       656.51
  154.59        2961.25           2303         291.00      1262.48
  154.62        2961.50           2307        1081.00      4706.94
  154.65        2961.75           2310        2147.00      9356.07
  154.68        2962.00           2314        3822.00     16664.19
  154.71        2962.25           2317        5066.00     22094.19
  154.74        2962.50           2321        6520.00     28443.36
  154.77        2962.75           2324        7769.00     33899.56
  154.80        2963.00           2328        9514.00     41525.89
  154.83        2963.25           2331       11097.00     48447.65
  154.86        2963.50           2335       12954.00     56571.65
  154.89        2963.75           2339       14684.00     64144.10
  154.92        2964.00           2342       15830.00     69162.45
  154.95        2964.25           2346       17844.00     77985.93
  154.98        2964.50           2349       19231.00     84065.57
  155.01        2964.75           2353       20969.00     91687.30
  155.04        2965.00           2356       22299.00     97522.48
  155.07        2965.25           2360       24173.00    105748.30
  155.11        2965.50           2363       25655.00    112256.80
  155.14        2965.75           2367       27261.00    119313.00
  155.17        2966.00           2370       28502.00    124767.90
  155.20        2966.25           2374       29958.00    131170.40
  155.23        2966.50           2378       30792.00    134839.10
  155.26        2966.75           2381       30769.00    134737.90
  155.29        2967.00           2385       30686.00    134372.80
  155.32        2967.25           2388       30835.00    135028.30
  155.35        2967.50           2392       30704.00    134451.90
  155.38        2967.75           2395       30293.00    132643.90
  155.41        2968.00           2399       29448.00    128927.50
  155.44        2968.25           2402       28358.00    124134.90
  155.47        2968.50           2406       26513.00    116026.10
  155.50        2968.75           2409       25295.00    110675.50
  155.53        2969.00           2413       23702.00    103680.50
  155.56        2969.25           2417       21968.00     96070.05
  155.59        2969.50           2420       20957.00     91634.66
  155.63        2969.75           2424       19126.00     83605.23
  155.66        2970.00           2427       17547.00     76684.43
  155.69        2970.25           2431       15715.00     68658.78
  155.72        2970.50           2434       14382.00     62821.93
  155.75        2970.75           2438       12681.00     55377.06
  155.78        2971.00           2441       11242.00     49081.84
  155.81        2971.25           2445        9438.00     41193.66
  155.84        2971.50           2449        7767.00     33890.82
  155.87        2971.75           2452        6623.00     28893.24
  155.90        2972.00           2456        4891.00     21330.20
  155.93        2972.25           2459        3577.00     15595.02
  155.96        2972.50           2463        1894.00      8252.53
  155.99        2972.75           2466         900.00      3917.70
  156.02        2973.00           2470         293.00      1271.20
  156.05        2973.25           2473         161.00       695.74
  156.08        2973.50           2477         134.00       578.04
  156.11        2973.75           2481         143.00       617.28
  156.15        2974.00           2484         127.00       547.53
  156.18        2974.25           2488         127.00       547.53
  156.21        2974.50           2491         116.00       499.57
  156.24        2974.75           2495         120.00       517.01
  156.27        2975.00           2498         108.00       464.70
  156.30        2975.25           2502         111.00       477.78
  156.33        2975.50           2505         127.00       547.53
  156.36        2975.75           2509         127.00       547.53
  156.39        2976.00           2512         100.00       429.82
  156.42        2976.25           2516         100.00       429.82
  156.45        2976.50           2520         124.00       534.45
  156.48        2976.75           2523         137.00       591.12
  156.51        2977.00           2527         111.00       477.78
  156.54        2977.25           2530          99.00       425.46
  156.57        2977.50           2534         103.00       442.90
  156.62        2977.75           2537          98.00       421.10
  156.65        2978.00           2541         105.00       451.62
  156.68        2978.25           2544         101.00       434.18
  156.71        2978.50           2548          95.00       408.03
  156.74        2978.75           2552          90.00       386.23
  156.77        2979.00           2555          96.00       412.39
  156.80        2979.25           2559          92.00       394.95
  156.83        2979.50           2562          94.00       403.67
  156.86        2979.75           2566         104.00       447.26
  156.89        2980.00           2569          95.00       408.03
  156.93        2980.25           2573          87.00       373.15
  156.96        2980.50           2577          90.00       386.23
  156.99        2980.75           2580          91.00       390.59
  157.02        2981.00           2584          92.00       394.95
  157.05        2981.25           2587          77.00       329.56
  157.08        2981.50           2591          78.00       333.92
  157.11        2981.75           2594          90.00       386.23
  157.14        2982.00           2598          83.00       355.71
  157.17        2982.25           2601          80.00       342.64
  157.20        2982.50           2605          88.00       377.51
  157.23        2982.75           2609          82.00       351.36
  157.26        2983.00           2612          84.00       360.07
  157.29        2983.25           2616          83.00       355.71
  157.32        2983.50           2619          76.00       325.20
  157.35        2983.75           2623          86.00       368.79
  157.38        2984.00           2626         106.00       455.98
HS scan finished at 02:37:36
end
************************************************************
  HS Scan of (1) Internal mercury lamp
************************************************************
Integration time is 0.2294 seconds per sample
dh090518Reading 51.44 .94 3.43pr1000
************************************************************
Dead Time -------------------------  3.4E-08 
Number of Cycles Used -------------  4 
Starting Wavelength (Angstroms) ---  2950 
Final Wavelength (Angstoms) -------  2984 
Wavelength Increment (Angstroms) --  .25 
Filter Wheel #1 Position ---------- (1) Ground quartz diffuser (ND=2.32)
Filter Wheel #2 Position ---------- (1) Neutral Density 0.494



************************************************************
HS scan start time = 20:37:25
Dark Count =  2.4 


Time (GMT)  Wavelength (Ang)  Step Number  Raw Counts  Counts/Second

 1238.32        2950.00           2144          81.00       342.64
 1238.51        2950.25           2147          91.00       386.23
 1238.54        2950.50           2151          91.00       386.23
 1238.57        2950.75           2155          84.00       355.71
 1238.60        2951.00           2158          82.00       347.00
 1238.63        2951.25           2162          88.00       373.15
 1238.66        2951.50           2165          84.00       355.71
 1238.69        2951.75           2169          93.00       394.95
 1238.72        2952.00           2172          85.00       360.07
 1238.75        2952.25           2176         105.00       447.26
 1238.78        2952.50           2179          87.00       368.79
 1238.82        2952.75           2183          82.00       347.00
 1238.85        2953.00           2186          92.00       390.59
 1238.88        2953.25           2190          87.00       368.79
 1238.91        2953.50           2193          85.00       360.07
 1238.94        2953.75           2197          83.00       351.36
 1238.97        2954.00           2200          92.00       390.59
 1239.00        2954.25           2204          89.00       377.51
 1239.03        2954.50           2208          90.00       381.87
 1239.06        2954.75           2211          86.00       364.43
 1239.09        2955.00           2215          87.00       368.79
 1239.12        2955.25           2218          90.00       381.87
 1239.15        2955.50           2222          90.00       381.87
 1239.18        2955.75           2225          84.00       355.71
 1239.21        2956.00           2229          90.00       381.87
 1239.24        2956.25           2232          96.00       408.03
 1239.27        2956.50           2236          91.00       386.23
 1239.31        2956.75           2239         116.00       495.21
 1239.34        2957.00           2243          97.00       412.39
 1239.38        2957.25           2246         116.00       495.21
 1239.41        2957.50           2250          93.00       394.95
 1239.44        2957.75           2254          99.00       421.10
 1239.47        2958.00           2257         101.00       429.82
 1239.50        2958.25           2261         100.00       425.46
 1239.53        2958.50           2264         102.00       434.18
 1239.56        2958.75           2268          98.00       416.75
 1239.60        2959.00           2271         129.00       551.88
 1239.63        2959.25           2275         123.00       525.73
 1239.66        2959.50           2278         108.00       460.34
 1239.69        2959.75           2282         101.00       429.82
 1239.72        2960.00           2285          98.00       416.75
 1239.75        2960.25           2289         131.00       560.60
 1239.78        2960.50           2293         141.00       604.20
 1239.81        2960.75           2296         151.00       647.79
 1239.84        2961.00           2300         164.00       704.46
 1239.87        2961.25           2303         362.00      1567.65
 1239.90        2961.50           2307        1254.00      5456.99
 1239.93        2961.75           2310        2175.00      9473.85
 1239.96        2962.00           2314        3775.00     16454.72
 1239.99        2962.25           2317        4918.00     21443.70
 1240.02        2962.50           2321        6539.00     28521.98
 1240.05        2962.75           2324        7647.00     33362.15
 1240.08        2963.00           2328        9266.00     40437.42
 1240.12        2963.25           2331       10743.00     46895.12
 1240.15        2963.50           2335       12657.00     55267.67
 1240.18        2963.75           2339       14469.00     63198.42
 1240.21        2964.00           2342       15744.00     68781.41
 1240.24        2964.25           2346       17247.00     75365.50
 1240.27        2964.50           2349       18484.00     80786.55
 1240.30        2964.75           2353       20164.00     88152.22
 1240.33        2965.00           2356       21694.00     94863.46
 1240.36        2965.25           2360       23383.00    102275.70
 1240.39        2965.50           2363       24531.00    107315.90
 1240.42        2965.75           2367       26196.00    114629.00
 1240.45        2966.00           2370       27165.00    118886.70
 1240.48        2966.25           2374       28615.00    125260.30
 1240.51        2966.50           2378       29637.00    129754.30
 1240.54        2966.75           2381       29743.00    130220.40
 1240.57        2967.00           2385       29598.00    129582.70
 1240.60        2967.25           2388       29761.00    130299.60
 1240.64        2967.50           2392       29933.00    131056.10
 1240.67        2967.75           2395       29625.00    129701.50
 1240.70        2968.00           2399       29144.00    127586.30
 1240.73        2968.25           2402       28140.00    123172.10
 1240.76        2968.50           2406       26546.00    116166.70
 1240.79        2968.75           2409       25288.00    110640.40
 1240.82        2969.00           2413       23029.00    100721.80
 1240.85        2969.25           2417       21263.00     92972.59
 1240.88        2969.50           2420       19842.00     86740.18
 1240.91        2969.75           2424       18157.00     79353.30
 1240.94        2970.00           2427       16836.00     73564.77
 1240.97        2970.25           2431       15073.00     65842.96
 1241.00        2970.50           2434       13592.00     59359.44
 1241.03        2970.75           2438       11918.00     52034.44
 1241.06        2971.00           2441       10529.00     45959.29
 1241.09        2971.25           2445        8900.00     38837.65
 1241.12        2971.50           2449        7313.00     31902.94
 1241.16        2971.75           2452        5987.00     26111.23
 1241.19        2972.00           2456        4288.00     18693.66
 1241.22        2972.25           2459        2981.00     12990.04
 1241.25        2972.50           2463        1496.00      6512.34
 1241.28        2972.75           2466         694.00      3015.13
 1241.31        2973.00           2470         290.00      1253.76
 1241.34        2973.25           2473         157.00       673.95
 1241.37        2973.50           2477         144.00       617.28
 1241.40        2973.75           2481         122.00       521.37
 1241.43        2974.00           2484         140.00       599.84
 1241.46        2974.25           2488         132.00       564.96
 1241.49        2974.50           2491         127.00       543.17
 1241.52        2974.75           2495         110.00       469.06
 1241.55        2975.00           2498         121.00       517.01
 1241.58        2975.25           2502         111.00       473.42
 1241.61        2975.50           2505          99.00       421.10
 1241.64        2975.75           2509         115.00       490.85
 1241.68        2976.00           2512         106.00       451.62
 1241.71        2976.25           2516          96.00       408.03
 1241.74        2976.50           2520         119.00       508.29
 1241.77        2976.75           2523          97.00       412.39
 1241.80        2977.00           2527          97.00       412.39
 1241.83        2977.25           2530          95.00       403.67
 1241.86        2977.50           2534          94.00       399.31
 1241.89        2977.75           2537         116.00       495.21
 1241.92        2978.00           2541          92.00       390.59
 1241.95        2978.25           2544          93.00       394.95
 1241.98        2978.50           2548          95.00       403.67
 1242.01        2978.75           2552          95.00       403.67
 1242.04        2979.00           2555          94.00       399.31
 1242.07        2979.25           2559          84.00       355.71
 1242.10        2979.50           2562          91.00       386.23
 1242.13        2979.75           2566         107.00       455.98
 1242.16        2980.00           2569          89.00       377.51
 1242.20        2980.25           2573          87.00       368.79
 1242.23        2980.50           2577          86.00       364.43
 1242.26        2980.75           2580          82.00       347.00
 1242.29        2981.00           2584          89.00       377.51
 1242.32        2981.25           2587          85.00       360.07
 1242.35        2981.50           2591          92.00       390.59
 1242.38        2981.75           2594          90.00       381.87
 1242.41        2982.00           2598          87.00       368.79
 1242.44        2982.25           2601          83.00       351.36
 1242.47        2982.50           2605          82.00       347.00
 1242.50        2982.75           2609          85.00       360.07
 1242.53        2983.00           2612          77.00       325.20
 1242.56        2983.25           2616          77.00       325.20
 1242.59        2983.50           2619          76.00       320.84
 1242.62        2983.75           2623          81.00       342.64
 1242.65        2984.00           2626          93.00       394.95
HS scan finished at 20:42:53
end
