************************************************************
  HS Scan of 
************************************************************
Integration time is 0.2294 seconds per sample
dh300417Reading 51.44 .94 3.13pr1000
************************************************************
Dead Time -------------------------  3.4E-08 
Number of Cycles Used -------------  4 
Starting Wavelength (Angstroms) ---  2950 
Final Wavelength (Angstoms) -------  2984 
Wavelength Increment (Angstroms) --  .25 
Filter Wheel #1 Position ---------- (1) Ground quartz diffuser (ND=2.32)
Filter Wheel #2 Position ---------- (1) Neutral Density 0.494



************************************************************
HS scan start time = 01:13:13
Dark Count =  1.2 


Time (GMT)  Wavelength (Ang)  Step Number  Raw Counts  Counts/Second

   74.11        2950.00           2144         572.00      2488.44
   74.31        2950.25           2147         582.00      2532.04
   74.34        2950.50           2151         624.00      2715.16
   74.37        2950.75           2155         618.00      2689.00
   74.40        2951.00           2158         594.00      2584.36
   74.43        2951.25           2162         581.00      2527.68
   74.46        2951.50           2165         613.00      2667.20
   74.49        2951.75           2169         603.00      2623.60
   74.52        2952.00           2172         612.00      2662.84
   74.55        2952.25           2176         624.00      2715.16
   74.59        2952.50           2179         619.00      2693.36
   74.62        2952.75           2183         632.00      2750.04
   74.65        2953.00           2186         605.00      2632.32
   74.68        2953.25           2190         647.00      2815.44
   74.71        2953.50           2193         623.00      2710.80
   74.74        2953.75           2197         634.00      2758.76
   74.77        2954.00           2200         631.00      2745.68
   74.80        2954.25           2204         632.00      2750.04
   74.83        2954.50           2208         648.00      2819.80
   74.86        2954.75           2211         655.00      2850.32
   74.90        2955.00           2215         668.00      2907.00
   74.93        2955.25           2218         659.00      2867.76
   74.96        2955.50           2222         668.00      2907.00
   74.99        2955.75           2225         646.00      2811.08
   75.02        2956.00           2229         690.00      3002.92
   75.05        2956.25           2232         680.00      2959.32
   75.08        2956.50           2236         704.00      3063.96
   75.11        2956.75           2239         675.00      2937.52
   75.14        2957.00           2243         708.00      3081.40
   75.17        2957.25           2246         716.00      3116.28
   75.20        2957.50           2250         707.00      3077.04
   75.23        2957.75           2254         727.00      3164.25
   75.26        2958.00           2257         754.00      3281.97
   75.29        2958.25           2261         754.00      3281.97
   75.32        2958.50           2264         754.00      3281.97
   75.35        2958.75           2268         745.00      3242.73
   75.38        2959.00           2271         783.00      3408.42
   75.41        2959.25           2275         778.00      3386.61
   75.45        2959.50           2278         781.00      3399.70
   75.48        2959.75           2282         794.00      3456.38
   75.51        2960.00           2285         802.00      3491.26
   75.54        2960.25           2289         838.00      3648.23
   75.57        2960.50           2293         855.00      3722.35
   75.60        2960.75           2296         896.00      3901.13
   75.63        2961.00           2300        1033.00      4498.51
   75.66        2961.25           2303        1806.00      7869.59
   75.69        2961.50           2307        6123.00     26710.39
   75.72        2961.75           2310       12634.00     55172.28
   75.75        2962.00           2314       23432.00    102496.10
   75.78        2962.25           2317       32896.00    144099.20
   75.81        2962.50           2321       45341.00    198986.90
   75.84        2962.75           2324       54636.00    240116.20
   75.87        2963.00           2328       66651.00    293453.00
   75.90        2963.25           2331       75958.00    334902.50
   75.93        2963.50           2335       88742.00    392029.40
   75.97        2963.75           2339      101984.00    451439.40
   76.00        2964.00           2342      111507.00    494314.20
   76.03        2964.25           2346      124046.00    550960.70
   76.06        2964.50           2349      133806.00    595205.80
   76.09        2964.75           2353      145240.00    647211.10
   76.12        2965.00           2356      154105.00    687660.30
   76.15        2965.25           2360      165055.00    737778.80
   76.18        2965.50           2363      173345.00    775837.80
   76.21        2965.75           2367      183793.00    823946.80
   76.24        2966.00           2370      192719.00    865174.30
   76.27        2966.25           2374      202751.00    911650.70
   76.30        2966.50           2378      208856.00    940007.20
   76.34        2966.75           2381      210643.00    948318.10
   76.37        2967.00           2385      210544.00    947857.50
   76.40        2967.25           2388      210941.00    949704.40
   76.43        2967.50           2392      210753.00    948829.80
   76.46        2967.75           2395      209622.00    943569.10
   76.49        2968.00           2399      204588.00    920177.40
   76.52        2968.25           2402      198460.00    891753.00
   76.55        2968.50           2406      187600.00    841516.20
   76.58        2968.75           2409      178218.00    798256.10
   76.61        2969.00           2413      166755.00    745575.30
   76.64        2969.25           2417      154527.00    689588.60
   76.68        2969.50           2420      146100.00    651130.10
   76.71        2969.75           2424      134559.00    598624.90
   76.74        2970.00           2427      125338.00    556810.10
   76.77        2970.25           2431      113164.00    501787.30
   76.80        2970.50           2434      104253.00    461643.60
   76.83        2970.75           2438       90102.00    398119.90
   76.86        2971.00           2441       80388.00    354673.30
   76.89        2971.25           2445       67317.00    296415.20
   76.93        2971.50           2449       55220.00    242704.20
   76.97        2971.75           2452       46498.00    204100.20
   77.00        2972.00           2456       34964.00    153205.70
   77.03        2972.25           2459       26002.00    113782.00
   77.06        2972.50           2463       14404.00     62919.12
   77.09        2972.75           2466        6872.00     29981.73
   77.12        2973.00           2470        1943.00      8467.13
   77.15        2973.25           2473        1147.00      4995.62
   77.18        2973.50           2477         942.00      4101.71
   77.21        2973.75           2481         887.00      3861.88
   77.24        2974.00           2484         886.00      3857.52
   77.27        2974.25           2488         889.00      3870.61
   77.30        2974.50           2491         835.00      3635.15
   77.33        2974.75           2495         830.00      3613.35
   77.36        2975.00           2498         796.00      3465.10
   77.39        2975.25           2502         812.00      3534.86
   77.42        2975.50           2505         805.00      3504.34
   77.45        2975.75           2509         801.00      3486.90
   77.49        2976.00           2512         758.00      3299.41
   77.52        2976.25           2516         750.00      3264.53
   77.55        2976.50           2520         747.00      3251.45
   77.58        2976.75           2523         788.00      3430.22
   77.61        2977.00           2527         772.00      3360.45
   77.64        2977.25           2530         719.00      3129.37
   77.67        2977.50           2534         721.00      3138.09
   77.70        2977.75           2537         727.00      3164.25
   77.73        2978.00           2541         666.00      2898.28
   77.76        2978.25           2544         703.00      3059.60
   77.79        2978.50           2548         699.00      3042.16
   77.82        2978.75           2552         691.00      3007.28
   77.85        2979.00           2555         671.00      2920.08
   77.88        2979.25           2559         675.00      2937.52
   77.91        2979.50           2562         668.00      2907.00
   77.94        2979.75           2566         664.00      2889.56
   77.97        2980.00           2569         692.00      3011.64
   78.01        2980.25           2573         647.00      2815.44
   78.04        2980.50           2577         664.00      2889.56
   78.07        2980.75           2580         663.00      2885.20
   78.10        2981.00           2584         659.00      2867.76
   78.13        2981.25           2587         638.00      2776.20
   78.16        2981.50           2591         610.00      2654.12
   78.19        2981.75           2594         606.00      2636.68
   78.22        2982.00           2598         631.00      2745.68
   78.25        2982.25           2601         626.00      2723.88
   78.28        2982.50           2605         619.00      2693.36
   78.31        2982.75           2609         629.00      2736.96
   78.34        2983.00           2612         618.00      2689.00
   78.37        2983.25           2616         588.00      2558.20
   78.40        2983.50           2619         634.00      2758.76
   78.43        2983.75           2623         587.00      2553.84
   78.46        2984.00           2626         610.00      2654.12
HS scan finished at 01:18:41
end
************************************************************
  HS Scan of 
************************************************************
Integration time is 0.2294 seconds per sample
dh300417Reading 51.44 .94 3.09pr1000
************************************************************
Dead Time -------------------------  3.4E-08 
Number of Cycles Used -------------  4 
Starting Wavelength (Angstroms) ---  2950 
Final Wavelength (Angstoms) -------  2984 
Wavelength Increment (Angstroms) --  .25 
Filter Wheel #1 Position ---------- (1) Ground quartz diffuser (ND=2.32)
Filter Wheel #2 Position ---------- (1) Neutral Density 0.494



************************************************************
HS scan start time = 20:07:29
Dark Count =  1.2 


Time (GMT)  Wavelength (Ang)  Step Number  Raw Counts  Counts/Second

 1208.39        2950.00           2144         530.00      2305.32
 1208.58        2950.25           2147         557.00      2423.04
 1208.61        2950.50           2151         535.00      2327.12
 1208.64        2950.75           2155         538.00      2340.20
 1208.67        2951.00           2158         511.00      2222.49
 1208.71        2951.25           2162         544.00      2366.36
 1208.74        2951.50           2165         548.00      2383.80
 1208.77        2951.75           2169         547.00      2379.44
 1208.80        2952.00           2172         547.00      2379.44
 1208.83        2952.25           2176         540.00      2348.92
 1208.86        2952.50           2179         551.00      2396.88
 1208.89        2952.75           2183         533.00      2318.40
 1208.92        2953.00           2186         568.00      2471.00
 1208.95        2953.25           2190         540.00      2348.92
 1208.98        2953.50           2193         547.00      2379.44
 1209.01        2953.75           2197         563.00      2449.20
 1209.05        2954.00           2200         563.00      2449.20
 1209.08        2954.25           2204         578.00      2514.60
 1209.11        2954.50           2208         567.00      2466.64
 1209.14        2954.75           2211         558.00      2427.40
 1209.17        2955.00           2215         572.00      2488.44
 1209.20        2955.25           2218         589.00      2562.56
 1209.23        2955.50           2222         578.00      2514.60
 1209.26        2955.75           2225         600.00      2610.52
 1209.29        2956.00           2229         623.00      2710.80
 1209.32        2956.25           2232         579.00      2518.96
 1209.35        2956.50           2236         605.00      2632.32
 1209.38        2956.75           2239         574.00      2497.16
 1209.41        2957.00           2243         620.00      2697.72
 1209.44        2957.25           2246         624.00      2715.16
 1209.47        2957.50           2250         642.00      2793.64
 1209.50        2957.75           2254         640.00      2784.92
 1209.53        2958.00           2257         652.00      2837.24
 1209.57        2958.25           2261         662.00      2880.84
 1209.60        2958.50           2264         653.00      2841.60
 1209.63        2958.75           2268         654.00      2845.96
 1209.66        2959.00           2271         666.00      2898.28
 1209.69        2959.25           2275         662.00      2880.84
 1209.72        2959.50           2278         708.00      3081.40
 1209.75        2959.75           2282         683.00      2972.40
 1209.78        2960.00           2285         717.00      3120.65
 1209.81        2960.25           2289         742.00      3229.65
 1209.84        2960.50           2293         743.00      3234.01
 1209.87        2960.75           2296         768.00      3343.01
 1209.90        2961.00           2300         862.00      3752.88
 1209.93        2961.25           2303        1202.00      5235.46
 1209.96        2961.50           2307        4450.00     19406.00
 1209.99        2961.75           2310        9513.00     41522.40
 1210.02        2962.00           2314       17961.00     78499.56
 1210.05        2962.25           2317       25282.00    110619.30
 1210.08        2962.50           2321       36132.00    158351.60
 1210.12        2962.75           2324       44330.00    194520.30
 1210.15        2963.00           2328       55103.00    242185.70
 1210.18        2963.25           2331       62298.00    274106.80
 1210.21        2963.50           2335       72262.00    318428.00
 1210.24        2963.75           2339       82641.00    364738.50
 1210.27        2964.00           2342       91722.00    405378.00
 1210.30        2964.25           2346      102705.00    454681.10
 1210.33        2964.50           2349      110362.00    489152.50
 1210.36        2964.75           2353      119726.00    531419.70
 1210.39        2965.00           2356      127391.00    566109.50
 1210.42        2965.25           2360      137737.00    613064.20
 1210.45        2965.50           2363      145137.00    646741.80
 1210.48        2965.75           2367      154501.00    689469.70
 1210.51        2966.00           2370      161929.00    723453.40
 1210.54        2966.25           2374      171218.00    766063.30
 1210.57        2966.50           2378      177467.00    794798.90
 1210.60        2966.75           2381      179238.00    802953.10
 1210.64        2967.00           2385      179418.00    803782.10
 1210.67        2967.25           2388      179803.00    805555.50
 1210.70        2967.50           2392      179750.00    805311.40
 1210.73        2967.75           2395      179098.00    802308.30
 1210.76        2968.00           2399      175681.00    786580.30
 1210.79        2968.25           2402      170270.00    761709.00
 1210.82        2968.50           2406      162029.00    723911.50
 1210.85        2968.75           2409      155160.00    692481.60
 1210.88        2969.00           2413      145477.00    648291.10
 1210.91        2969.25           2417      134981.00    600541.50
 1210.94        2969.50           2420      126806.00    563459.10
 1210.97        2969.75           2424      116566.00    517142.40
 1211.00        2970.00           2427      109005.00    483037.40
 1211.03        2970.25           2431       98718.00    436764.10
 1211.06        2970.50           2434       90235.00    398715.70
 1211.09        2970.75           2438       79693.00    351569.80
 1211.12        2971.00           2441       72132.00    317848.90
 1211.16        2971.25           2445       60911.00    267947.90
 1211.19        2971.50           2449       48808.00    214314.50
 1211.22        2971.75           2452       40513.00    177669.00
 1211.25        2972.00           2456       30034.00    131505.60
 1211.28        2972.25           2459       23188.00    101425.00
 1211.31        2972.50           2463       14095.00     61566.40
 1211.34        2972.75           2466        7674.00     33485.36
 1211.37        2973.00           2470        2125.00      9260.98
 1211.40        2973.25           2473        1043.00      4542.11
 1211.43        2973.50           2477         857.00      3731.07
 1211.46        2973.75           2481         817.00      3556.66
 1211.49        2974.00           2484         787.00      3425.86
 1211.52        2974.25           2488         746.00      3247.09
 1211.55        2974.50           2491         746.00      3247.09
 1211.58        2974.75           2495         741.00      3225.29
 1211.61        2975.00           2498         721.00      3138.09
 1211.64        2975.25           2502         710.00      3090.12
 1211.68        2975.50           2505         696.00      3029.08
 1211.71        2975.75           2509         694.00      3020.36
 1211.74        2976.00           2512         672.00      2924.44
 1211.77        2976.25           2516         649.00      2824.16
 1211.80        2976.50           2520         641.00      2789.28
 1211.83        2976.75           2523         636.00      2767.48
 1211.86        2977.00           2527         613.00      2667.20
 1211.89        2977.25           2530         627.00      2728.24
 1211.92        2977.50           2534         596.00      2593.08
 1211.95        2977.75           2537         633.00      2754.40
 1211.98        2978.00           2541         595.00      2588.72
 1212.01        2978.25           2544         618.00      2689.00
 1212.04        2978.50           2548         607.00      2641.04
 1212.07        2978.75           2552         596.00      2593.08
 1212.10        2979.00           2555         577.00      2510.24
 1212.13        2979.25           2559         588.00      2558.20
 1212.16        2979.50           2562         593.00      2580.00
 1212.20        2979.75           2566         610.00      2654.12
 1212.23        2980.00           2569         571.00      2484.08
 1212.26        2980.25           2573         575.00      2501.52
 1212.29        2980.50           2577         567.00      2466.64
 1212.32        2980.75           2580         556.00      2418.68
 1212.35        2981.00           2584         546.00      2375.08
 1212.38        2981.25           2587         551.00      2396.88
 1212.41        2981.50           2591         567.00      2466.64
 1212.44        2981.75           2594         565.00      2457.92
 1212.47        2982.00           2598         549.00      2388.16
 1212.50        2982.25           2601         541.00      2353.28
 1212.53        2982.50           2605         525.00      2283.53
 1212.56        2982.75           2609         556.00      2418.68
 1212.59        2983.00           2612         540.00      2348.92
 1212.62        2983.25           2616         533.00      2318.40
 1212.65        2983.50           2619         529.00      2300.96
 1212.68        2983.75           2623         523.00      2274.81
 1212.72        2984.00           2626         538.00      2340.20
HS scan finished at 20:12:56
end
