************************************************************
  HS Scan of (1) Internal mercury lamp
************************************************************
Integration time is 0.2294 seconds per sample
dh030518Reading 51.44 .94 2.84pr1000
************************************************************
Dead Time -------------------------  3.4E-08 
Number of Cycles Used -------------  4 
Starting Wavelength (Angstroms) ---  2950 
Final Wavelength (Angstoms) -------  2984 
Wavelength Increment (Angstroms) --  .25 
Filter Wheel #1 Position ---------- (1) Ground quartz diffuser (ND=2.32)
Filter Wheel #2 Position ---------- (1) Neutral Density 0.494



************************************************************
HS scan start time = 01:28:02
Dark Count =  .6 


Time (GMT)  Wavelength (Ang)  Step Number  Raw Counts  Counts/Second

   88.93        2950.00           2144          91.00       394.08
   89.12        2950.25           2147          92.00       398.44
   89.15        2950.50           2151          95.00       411.51
   89.18        2950.75           2155          97.00       420.23
   89.21        2951.00           2158         127.00       551.01
   89.24        2951.25           2162         100.00       433.31
   89.27        2951.50           2165          95.00       411.51
   89.30        2951.75           2169         100.00       433.31
   89.33        2952.00           2172          97.00       420.23
   89.37        2952.25           2176          96.00       415.87
   89.40        2952.50           2179          97.00       420.23
   89.43        2952.75           2183          97.00       420.23
   89.46        2953.00           2186         109.00       472.54
   89.49        2953.25           2190         102.00       442.03
   89.52        2953.50           2193         106.00       459.47
   89.55        2953.75           2197         103.00       446.39
   89.58        2954.00           2200         103.00       446.39
   89.61        2954.25           2204         124.00       537.93
   89.64        2954.50           2208         125.00       542.29
   89.67        2954.75           2211         141.00       612.04
   89.70        2955.00           2215         105.00       455.11
   89.73        2955.25           2218         103.00       446.39
   89.76        2955.50           2222         108.00       468.19
   89.79        2955.75           2225         106.00       459.47
   89.82        2956.00           2229         148.00       642.56
   89.85        2956.25           2232         130.00       564.09
   89.89        2956.50           2236         110.00       476.90
   89.92        2956.75           2239         111.00       481.26
   89.95        2957.00           2243         115.00       498.70
   89.98        2957.25           2246         107.00       463.83
   90.01        2957.50           2250         107.00       463.83
   90.04        2957.75           2254         150.00       651.28
   90.07        2958.00           2257         113.00       489.98
   90.10        2958.25           2261         133.00       577.17
   90.13        2958.50           2264         138.00       598.97
   90.16        2958.75           2268         139.00       603.33
   90.19        2959.00           2271         149.00       646.92
   90.22        2959.25           2275         119.00       516.14
   90.25        2959.50           2278         121.00       524.86
   90.28        2959.75           2282         131.00       568.45
   90.31        2960.00           2285         123.00       533.58
   90.34        2960.25           2289         165.00       716.67
   90.37        2960.50           2293         152.00       660.00
   90.41        2960.75           2296         134.00       581.53
   90.44        2961.00           2300         176.00       764.62
   90.47        2961.25           2303         410.00      1784.76
   90.50        2961.50           2307        1425.00      6210.55
   90.53        2961.75           2310        2557.00     11148.08
   90.56        2962.00           2314        4147.00     18086.10
   90.59        2962.25           2317        5436.00     23713.10
   90.62        2962.50           2321        7573.00     33046.70
   90.65        2962.75           2324        8941.00     39024.72
   90.68        2963.00           2328       10912.00     47642.07
   90.71        2963.25           2331       12417.00     54225.43
   90.74        2963.50           2335       14332.00     62606.54
   90.77        2963.75           2339       16399.00     71658.25
   90.80        2964.00           2342       17976.00     78567.93
   90.83        2964.25           2346       19921.00     87094.49
   90.86        2964.50           2349       21629.00     94586.18
   90.89        2964.75           2353       23185.00    101414.50
   90.93        2965.00           2356       24744.00    108259.10
   90.96        2965.25           2360       26707.00    116882.10
   90.99        2965.50           2363       28101.00    123008.60
   91.02        2965.75           2367       30103.00    131811.70
   91.05        2966.00           2370       31375.00    137407.70
   91.08        2966.25           2374       32719.00    143322.70
   91.11        2966.50           2378       33558.00    147016.40
   91.14        2966.75           2381       33708.00    147676.90
   91.17        2967.00           2385       33969.00    148826.10
   91.20        2967.25           2388       33796.00    148064.30
   91.23        2967.50           2392       33885.00    148456.30
   91.26        2967.75           2395       33376.00    146215.10
   91.29        2968.00           2399       32263.00    141315.60
   91.33        2968.25           2402       30925.00    135427.70
   91.36        2968.50           2406       29035.00    127114.90
   91.39        2968.75           2409       27953.00    122358.00
   91.42        2969.00           2413       26015.00    113841.70
   91.45        2969.25           2417       24054.00    105229.40
   91.48        2969.50           2420       22597.00     98833.74
   91.51        2969.75           2424       20517.00     89708.26
   91.54        2970.00           2427       19063.00     83332.56
   91.57        2970.25           2431       17017.00     74365.65
   91.60        2970.50           2434       15582.00     68079.81
   91.63        2970.75           2438       13640.00     59577.40
   91.67        2971.00           2441       12137.00     53000.40
   91.70        2971.25           2445       10302.00     44974.57
   91.73        2971.50           2449        8441.00     36839.49
   91.76        2971.75           2452        6959.00     30364.38
   91.79        2972.00           2456        4968.00     21669.84
   91.82        2972.25           2459        3409.00     14865.40
   91.85        2972.50           2463        1759.00      7667.21
   91.88        2972.75           2466         996.00      4339.79
   91.91        2973.00           2470         321.00      1396.75
   91.94        2973.25           2473         179.00       777.70
   91.97        2973.50           2477         152.00       660.00
   92.00        2973.75           2481         153.00       664.36
   92.03        2974.00           2484         138.00       598.97
   92.06        2974.25           2488         130.00       564.09
   92.09        2974.50           2491         150.00       651.28
   92.12        2974.75           2495         156.00       677.43
   92.15        2975.00           2498         122.00       529.22
   92.19        2975.25           2502         141.00       612.04
   92.22        2975.50           2505         134.00       581.53
   92.25        2975.75           2509         125.00       542.29
   92.28        2976.00           2512         121.00       524.86
   92.31        2976.25           2516         167.00       725.39
   92.34        2976.50           2520         155.00       673.08
   92.37        2976.75           2523         174.00       755.90
   92.40        2977.00           2527         156.00       677.43
   92.43        2977.25           2530         119.00       516.14
   92.46        2977.50           2534         114.00       494.34
   92.49        2977.75           2537         134.00       581.53
   92.52        2978.00           2541         113.00       489.98
   92.55        2978.25           2544         109.00       472.54
   92.58        2978.50           2548         101.00       437.67
   92.61        2978.75           2552         112.00       485.62
   92.64        2979.00           2555         127.00       551.01
   92.67        2979.25           2559         103.00       446.39
   92.71        2979.50           2562          97.00       420.23
   92.74        2979.75           2566         101.00       437.67
   92.77        2980.00           2569         108.00       468.19
   92.80        2980.25           2573          99.00       428.95
   92.83        2980.50           2577         102.00       442.03
   92.86        2980.75           2580          89.00       385.36
   92.89        2981.00           2584          97.00       420.23
   92.92        2981.25           2587         119.00       516.14
   92.95        2981.50           2591         111.00       481.26
   92.98        2981.75           2594         103.00       446.39
   93.01        2982.00           2598         110.00       476.90
   93.04        2982.25           2601         120.00       520.50
   93.07        2982.50           2605         101.00       437.67
   93.10        2982.75           2609          91.00       394.08
   93.13        2983.00           2612          95.00       411.51
   93.16        2983.25           2616         100.00       433.31
   93.19        2983.50           2619         130.00       564.09
   93.23        2983.75           2623          96.00       415.87
   93.26        2984.00           2626          88.00       381.00
HS scan finished at 01:33:29
end
************************************************************
  HS Scan of (1) Internal mercury lamp
************************************************************
Integration time is 0.2294 seconds per sample
dh030518Reading 51.44 .94 3.43pr1000
************************************************************
Dead Time -------------------------  3.4E-08 
Number of Cycles Used -------------  4 
Starting Wavelength (Angstroms) ---  2950 
Final Wavelength (Angstoms) -------  2984 
Wavelength Increment (Angstroms) --  .25 
Filter Wheel #1 Position ---------- (1) Ground quartz diffuser (ND=2.32)
Filter Wheel #2 Position ---------- (1) Neutral Density 0.494



************************************************************
HS scan start time = 20:37:23
Dark Count =  2.7 


Time (GMT)  Wavelength (Ang)  Step Number  Raw Counts  Counts/Second

 1238.28        2950.00           2144          68.00       284.66
 1238.47        2950.25           2147          66.00       275.94
 1238.50        2950.50           2151          59.00       245.42
 1238.54        2950.75           2155          67.00       280.30
 1238.57        2951.00           2158          68.00       284.66
 1238.60        2951.25           2162          74.00       310.81
 1238.63        2951.50           2165          68.00       284.66
 1238.66        2951.75           2169          61.00       254.14
 1238.69        2952.00           2172          70.00       293.38
 1238.72        2952.25           2176          76.00       319.53
 1238.75        2952.50           2179          77.00       323.89
 1238.78        2952.75           2183          72.00       302.10
 1238.81        2953.00           2186          77.00       323.89
 1238.84        2953.25           2190          66.00       275.94
 1238.87        2953.50           2193          67.00       280.30
 1238.90        2953.75           2197          66.00       275.94
 1238.93        2954.00           2200          65.00       271.58
 1238.96        2954.25           2204          73.00       306.45
 1238.99        2954.50           2208          73.00       306.45
 1239.02        2954.75           2211          81.00       341.33
 1239.06        2955.00           2215          71.00       297.74
 1239.09        2955.25           2218          76.00       319.53
 1239.12        2955.50           2222          84.00       354.41
 1239.15        2955.75           2225          77.00       323.89
 1239.18        2956.00           2229          78.00       328.25
 1239.21        2956.25           2232          78.00       328.25
 1239.24        2956.50           2236          82.00       345.69
 1239.27        2956.75           2239          78.00       328.25
 1239.30        2957.00           2243          77.00       323.89
 1239.33        2957.25           2246          75.00       315.17
 1239.36        2957.50           2250          89.00       376.20
 1239.39        2957.75           2254          81.00       341.33
 1239.42        2958.00           2257          82.00       345.69
 1239.45        2958.25           2261          84.00       354.41
 1239.48        2958.50           2264          86.00       363.13
 1239.51        2958.75           2268          81.00       341.33
 1239.54        2959.00           2271          91.00       384.92
 1239.58        2959.25           2275          97.00       411.08
 1239.61        2959.50           2278          92.00       389.28
 1239.64        2959.75           2282          82.00       345.69
 1239.67        2960.00           2285          91.00       384.92
 1239.70        2960.25           2289          86.00       363.13
 1239.73        2960.50           2293          88.00       371.84
 1239.76        2960.75           2296         103.00       437.23
 1239.79        2961.00           2300         142.00       607.25
 1239.82        2961.25           2303         366.00      1583.78
 1239.85        2961.50           2307        1312.00      5708.61
 1239.88        2961.75           2310        2253.00      9812.78
 1239.91        2962.00           2314        3507.00     15283.88
 1239.94        2962.25           2317        4412.00     19233.58
 1239.97        2962.50           2321        5694.00     24830.46
 1240.00        2962.75           2324        6847.00     29865.97
 1240.03        2963.00           2328        8271.00     36087.41
 1240.06        2963.25           2331        9467.00     41314.76
 1240.10        2963.50           2335       10776.00     47038.12
 1240.13        2963.75           2339       12200.00     53266.83
 1240.16        2964.00           2342       13305.00     58102.03
 1240.19        2964.25           2346       14767.00     64501.81
 1240.22        2964.50           2349       15939.00     69634.15
 1240.25        2964.75           2353       17157.00     74969.85
 1240.28        2965.00           2356       18124.00     79207.35
 1240.31        2965.25           2360       19517.00     85313.81
 1240.34        2965.50           2363       20573.00     89944.66
 1240.37        2965.75           2367       22018.00     96283.74
 1240.40        2966.00           2370       22970.00    100461.60
 1240.43        2966.25           2374       23927.00    104662.60
 1240.46        2966.50           2378       24386.00    106677.90
 1240.49        2966.75           2381       24434.00    106888.60
 1240.52        2967.00           2385       24646.00    107819.60
 1240.55        2967.25           2388       24393.00    106708.60
 1240.58        2967.50           2392       24595.00    107595.60
 1240.62        2967.75           2395       24415.00    106805.20
 1240.65        2968.00           2399       23476.00    102682.60
 1240.68        2968.25           2402       22534.00     98548.04
 1240.71        2968.50           2406       21207.00     92725.61
 1240.74        2968.75           2409       20184.00     88238.62
 1240.77        2969.00           2413       18863.00     82446.58
 1240.80        2969.25           2417       17509.00     76512.21
 1240.83        2969.50           2420       16500.00     72091.50
 1240.86        2969.75           2424       14779.00     64554.35
 1240.89        2970.00           2427       13783.00     60194.13
 1240.92        2970.25           2431       12249.00     53481.21
 1240.95        2970.50           2434       11048.00     48227.66
 1240.98        2970.75           2438        9645.00     42092.90
 1241.01        2971.00           2441        8542.00     37271.70
 1241.04        2971.25           2445        6987.00     30477.51
 1241.07        2971.50           2449        5545.00     24179.85
 1241.10        2971.75           2452        4465.00     19464.93
 1241.14        2972.00           2456        3069.00     13372.69
 1241.17        2972.25           2459        2151.00      9367.85
 1241.20        2972.50           2463        1059.00      4605.34
 1241.23        2972.75           2466         502.00      2176.71
 1241.26        2973.00           2470         170.00       729.31
 1241.29        2973.25           2473         127.00       541.86
 1241.32        2973.50           2477         124.00       528.78
 1241.35        2973.75           2481          94.00       398.00
 1241.38        2974.00           2484         116.00       493.91
 1241.41        2974.25           2488         102.00       432.87
 1241.44        2974.50           2491         104.00       441.59
 1241.47        2974.75           2495          90.00       380.56
 1241.50        2975.00           2498          94.00       398.00
 1241.53        2975.25           2502          87.00       367.49
 1241.56        2975.50           2505          86.00       363.13
 1241.59        2975.75           2509          87.00       367.49
 1241.62        2976.00           2512          86.00       363.13
 1241.65        2976.25           2516          82.00       345.69
 1241.69        2976.50           2520          76.00       319.53
 1241.72        2976.75           2523          83.00       350.05
 1241.75        2977.00           2527          79.00       332.61
 1241.78        2977.25           2530          75.00       315.17
 1241.81        2977.50           2534          86.00       363.13
 1241.84        2977.75           2537          74.00       310.81
 1241.87        2978.00           2541          83.00       350.05
 1241.90        2978.25           2544          76.00       319.53
 1241.93        2978.50           2548          71.00       297.74
 1241.96        2978.75           2552          66.00       275.94
 1241.99        2979.00           2555          70.00       293.38
 1242.02        2979.25           2559          73.00       306.45
 1242.05        2979.50           2562          68.00       284.66
 1242.08        2979.75           2566          72.00       302.10
 1242.11        2980.00           2569          74.00       310.81
 1242.14        2980.25           2573          68.00       284.66
 1242.17        2980.50           2577          67.00       280.30
 1242.21        2980.75           2580          76.00       319.53
 1242.24        2981.00           2584          72.00       302.10
 1242.27        2981.25           2587          64.00       267.22
 1242.30        2981.50           2591          71.00       297.74
 1242.33        2981.75           2594          63.00       262.86
 1242.36        2982.00           2598          68.00       284.66
 1242.39        2982.25           2601          65.00       271.58
 1242.42        2982.50           2605          69.00       289.02
 1242.45        2982.75           2609          69.00       289.02
 1242.48        2983.00           2612          66.00       275.94
 1242.51        2983.25           2616          67.00       280.30
 1242.55        2983.50           2619          62.00       258.50
 1242.58        2983.75           2623          61.00       254.14
 1242.61        2984.00           2626          69.00       289.02
HS scan finished at 20:42:50
end
