************************************************************
  HS Scan of 
************************************************************
Integration time is 0.2294 seconds per sample
dh040517Reading 51.44 .94 3.11pr1000
************************************************************
Dead Time -------------------------  3.4E-08 
Number of Cycles Used -------------  4 
Starting Wavelength (Angstroms) ---  2950 
Final Wavelength (Angstoms) -------  2984 
Wavelength Increment (Angstroms) --  .25 
Filter Wheel #1 Position ---------- (1) Ground quartz diffuser (ND=2.32)
Filter Wheel #2 Position ---------- (1) Neutral Density 0.494



************************************************************
HS scan start time = 01:04:38
Dark Count =  1 


Time (GMT)  Wavelength (Ang)  Step Number  Raw Counts  Counts/Second

   65.53        2950.00           2144         541.00      2354.16
   65.72        2950.25           2147         525.00      2284.40
   65.75        2950.50           2151         521.00      2266.96
   65.78        2950.75           2155         548.00      2384.67
   65.82        2951.00           2158         540.00      2349.80
   65.85        2951.25           2162         552.00      2402.11
   65.88        2951.50           2165         546.00      2375.96
   65.91        2951.75           2169         574.00      2498.03
   65.94        2952.00           2172         565.00      2458.79
   65.97        2952.25           2176         557.00      2423.91
   66.00        2952.50           2179         555.00      2415.19
   66.03        2952.75           2183         591.00      2572.15
   66.06        2953.00           2186         557.00      2423.91
   66.09        2953.25           2190         584.00      2541.63
   66.12        2953.50           2193         558.00      2428.27
   66.15        2953.75           2197         594.00      2585.23
   66.18        2954.00           2200         567.00      2467.51
   66.21        2954.25           2204         589.00      2563.43
   66.24        2954.50           2208         587.00      2554.71
   66.27        2954.75           2211         590.00      2567.79
   66.31        2955.00           2215         577.00      2511.11
   66.34        2955.25           2218         593.00      2580.87
   66.37        2955.50           2222         608.00      2646.27
   66.40        2955.75           2225         628.00      2733.47
   66.43        2956.00           2229         632.00      2750.91
   66.46        2956.25           2232         606.00      2637.55
   66.49        2956.50           2236         616.00      2681.15
   66.52        2956.75           2239         627.00      2729.11
   66.55        2957.00           2243         607.00      2641.91
   66.58        2957.25           2246         642.00      2794.51
   66.61        2957.50           2250         649.00      2825.03
   66.64        2957.75           2254         626.00      2724.75
   66.67        2958.00           2257         642.00      2794.51
   66.70        2958.25           2261         680.00      2960.19
   66.73        2958.50           2264         668.00      2907.87
   66.76        2958.75           2268         704.00      3064.84
   66.79        2959.00           2271         680.00      2960.19
   66.83        2959.25           2275         689.00      2999.43
   66.86        2959.50           2278         707.00      3077.92
   66.89        2959.75           2282         732.00      3186.92
   66.92        2960.00           2285         733.00      3191.28
   66.95        2960.25           2289         727.00      3165.12
   66.98        2960.50           2293         777.00      3383.13
   67.01        2960.75           2296         788.00      3431.09
   67.04        2961.00           2300         902.00      3928.16
   67.07        2961.25           2303        1616.00      7041.79
   67.10        2961.50           2307        6379.00     27829.29
   67.13        2961.75           2310       12464.00     54429.32
   67.16        2962.00           2314       21691.00     94856.44
   67.19        2962.25           2317       29665.00    129883.60
   67.22        2962.50           2321       40208.00    176324.20
   67.25        2962.75           2324       48797.00    214266.70
   67.28        2963.00           2328       59902.00    263470.00
   67.31        2963.25           2331       68438.00    301403.40
   67.34        2963.50           2335       80272.00    354156.10
   67.38        2963.75           2339       91536.00    404545.50
   67.41        2964.00           2342       99763.00    441459.00
   67.44        2964.25           2346      111625.00    494847.20
   67.47        2964.50           2349      120800.00    536276.30
   67.50        2964.75           2353      131853.00    586342.30
   67.53        2965.00           2356      139690.00    621945.70
   67.56        2965.25           2360      150272.00    670158.30
   67.59        2965.50           2363      158795.00    709106.40
   67.62        2965.75           2367      168454.00    753372.30
   67.65        2966.00           2370      175107.00    783940.90
   67.68        2966.25           2374      184445.00    826955.10
   67.71        2966.50           2378      190253.00    853773.50
   67.74        2966.75           2381      191105.00    857711.80
   67.77        2967.00           2385      191798.00    860915.90
   67.80        2967.25           2388      191356.00    858872.10
   67.83        2967.50           2392      191557.00    859801.60
   67.86        2967.75           2395      190082.00    852983.20
   67.90        2968.00           2399      183972.00    824773.30
   67.93        2968.25           2402      177283.00    793952.90
   67.96        2968.50           2406      167470.00    748856.60
   67.99        2968.75           2409      159906.00    714191.10
   68.02        2969.00           2413      149686.00    667484.20
   68.05        2969.25           2417      139892.00    622864.50
   68.08        2969.50           2420      131581.00    585108.20
   68.11        2969.75           2424      119479.00    530304.10
   68.14        2970.00           2427      110731.00    490816.70
   68.17        2970.25           2431       99775.00    441512.90
   68.20        2970.50           2434       91795.00    405706.10
   68.23        2970.75           2438       80931.00    357099.40
   68.26        2971.00           2441       72778.00    320727.80
   68.29        2971.25           2445       62171.00    273543.60
   68.32        2971.50           2449       50805.00    223151.40
   68.35        2971.75           2452       42373.00    185879.00
   68.38        2972.00           2456       31457.00    137766.70
   68.42        2972.25           2459       22884.00    100091.60
   68.45        2972.50           2463       12199.00     53269.89
   68.48        2972.75           2466        6117.00     26685.06
   68.51        2973.00           2470        2185.00      9523.57
   68.54        2973.25           2473        1150.00      5009.57
   68.57        2973.50           2477         862.00      3753.75
   68.60        2973.75           2481         813.00      3540.10
   68.63        2974.00           2484         833.00      3627.30
   68.66        2974.25           2488         772.00      3361.33
   68.69        2974.50           2491         773.00      3365.69
   68.72        2974.75           2495         732.00      3186.92
   68.75        2975.00           2498         741.00      3226.16
   68.78        2975.25           2502         729.00      3173.84
   68.81        2975.50           2505         717.00      3121.52
   68.84        2975.75           2509         694.00      3021.23
   68.87        2976.00           2512         686.00      2986.35
   68.90        2976.25           2516         693.00      3016.87
   68.94        2976.50           2520         666.00      2899.15
   68.97        2976.75           2523         668.00      2907.87
   69.00        2977.00           2527         646.00      2811.95
   69.03        2977.25           2530         658.00      2864.27
   69.06        2977.50           2534         647.00      2816.31
   69.09        2977.75           2537         651.00      2833.75
   69.12        2978.00           2541         638.00      2777.07
   69.15        2978.25           2544         613.00      2668.07
   69.18        2978.50           2548         619.00      2694.23
   69.22        2978.75           2552         631.00      2746.55
   69.26        2979.00           2555         629.00      2737.83
   69.29        2979.25           2559         609.00      2650.63
   69.32        2979.50           2562         624.00      2716.03
   69.35        2979.75           2566         608.00      2646.27
   69.38        2980.00           2569         605.00      2633.19
   69.41        2980.25           2573         580.00      2524.19
   69.44        2980.50           2577         572.00      2489.31
   69.47        2980.75           2580         571.00      2484.95
   69.50        2981.00           2584         559.00      2432.63
   69.53        2981.25           2587         584.00      2541.63
   69.56        2981.50           2591         573.00      2493.67
   69.59        2981.75           2594         561.00      2441.35
   69.62        2982.00           2598         576.00      2506.75
   69.65        2982.25           2601         552.00      2402.11
   69.68        2982.50           2605         535.00      2328.00
   69.72        2982.75           2609         549.00      2389.03
   69.75        2983.00           2612         535.00      2328.00
   69.78        2983.25           2616         560.00      2436.99
   69.81        2983.50           2619         563.00      2450.07
   69.84        2983.75           2623         551.00      2397.75
   69.87        2984.00           2626         543.00      2362.88
HS scan finished at 01:10:05
end
************************************************************
  HS Scan of 
************************************************************
Integration time is 0.2294 seconds per sample
dh040517Reading 51.44 .94 3.25pr1000
************************************************************
Dead Time -------------------------  3.4E-08 
Number of Cycles Used -------------  4 
Starting Wavelength (Angstroms) ---  2950 
Final Wavelength (Angstoms) -------  2984 
Wavelength Increment (Angstroms) --  .25 
Filter Wheel #1 Position ---------- (1) Ground quartz diffuser (ND=2.32)
Filter Wheel #2 Position ---------- (1) Neutral Density 0.494



************************************************************
HS scan start time = 20:37:27
Dark Count =  1.9 


Time (GMT)  Wavelength (Ang)  Step Number  Raw Counts  Counts/Second

 1238.35        2950.00           2144         435.00      1888.09
 1238.55        2950.25           2147         461.00      2001.44
 1238.58        2950.50           2151         452.00      1962.21
 1238.61        2950.75           2155         456.00      1979.65
 1238.64        2951.00           2158         466.00      2023.24
 1238.67        2951.25           2162         459.00      1992.72
 1238.70        2951.50           2165         479.00      2079.92
 1238.73        2951.75           2169         488.00      2119.16
 1238.76        2952.00           2172         479.00      2079.92
 1238.79        2952.25           2176         451.00      1957.85
 1238.82        2952.50           2179         477.00      2071.20
 1238.85        2952.75           2183         475.00      2062.48
 1238.88        2953.00           2186         463.00      2010.16
 1238.91        2953.25           2190         474.00      2058.12
 1238.94        2953.50           2193         497.00      2158.40
 1238.97        2953.75           2197         519.00      2254.31
 1239.01        2954.00           2200         487.00      2114.80
 1239.04        2954.25           2204         492.00      2136.60
 1239.07        2954.50           2208         520.00      2258.67
 1239.10        2954.75           2211         485.00      2106.08
 1239.13        2955.00           2215         506.00      2197.64
 1239.16        2955.25           2218         508.00      2206.36
 1239.19        2955.50           2222         511.00      2219.44
 1239.22        2955.75           2225         525.00      2280.47
 1239.25        2956.00           2229         501.00      2175.84
 1239.28        2956.25           2232         546.00      2372.03
 1239.31        2956.50           2236         536.00      2328.43
 1239.34        2956.75           2239         511.00      2219.44
 1239.37        2957.00           2243         551.00      2393.83
 1239.40        2957.25           2246         531.00      2306.63
 1239.43        2957.50           2250         528.00      2293.55
 1239.46        2957.75           2254         563.00      2446.15
 1239.49        2958.00           2257         547.00      2376.39
 1239.53        2958.25           2261         584.00      2537.71
 1239.56        2958.50           2264         574.00      2494.11
 1239.59        2958.75           2268         573.00      2489.75
 1239.62        2959.00           2271         568.00      2467.95
 1239.65        2959.25           2275         573.00      2489.75
 1239.68        2959.50           2278         617.00      2681.59
 1239.71        2959.75           2282         601.00      2611.83
 1239.74        2960.00           2285         598.00      2598.75
 1239.77        2960.25           2289         615.00      2672.87
 1239.80        2960.50           2293         642.00      2790.59
 1239.83        2960.75           2296         708.00      3078.35
 1239.86        2961.00           2300         765.00      3326.88
 1239.89        2961.25           2303         973.00      4233.83
 1239.92        2961.50           2307        3261.00     14213.93
 1239.95        2961.75           2310        7191.00     31372.16
 1239.98        2962.00           2314       14691.00     64172.56
 1240.01        2962.25           2317       21572.00     94330.38
 1240.05        2962.50           2321       31264.00    136913.60
 1240.08        2962.75           2324       38018.00    166661.40
 1240.11        2963.00           2328       46941.00    206055.40
 1240.14        2963.25           2331       54186.00    238119.30
 1240.17        2963.50           2335       63221.00    278203.70
 1240.20        2963.75           2339       72411.00    319088.70
 1240.23        2964.00           2342       79714.00    351660.40
 1240.26        2964.25           2346       89897.00    397198.60
 1240.29        2964.50           2349       96549.00    427023.00
 1240.32        2964.75           2353      106176.00    470294.20
 1240.35        2965.00           2356      112688.00    499637.00
 1240.38        2965.25           2360      120493.00    534884.10
 1240.41        2965.50           2363      127427.00    566269.50
 1240.44        2965.75           2367      137074.00    610047.40
 1240.47        2966.00           2370      143462.00    639108.80
 1240.50        2966.25           2374      151057.00    673737.00
 1240.53        2966.50           2378      156871.00    700300.80
 1240.57        2966.75           2381      157895.00    704984.50
 1240.60        2967.00           2385      158675.00    708553.10
 1240.63        2967.25           2388      158704.00    708685.80
 1240.66        2967.50           2392      158974.00    709921.30
 1240.69        2967.75           2395      158585.00    708141.30
 1240.72        2968.00           2399      156281.00    697603.00
 1240.75        2968.25           2402      151820.00    677220.30
 1240.78        2968.50           2406      144011.00    641609.20
 1240.81        2968.75           2409      137500.00    611983.70
 1240.84        2969.00           2413      129492.00    575629.40
 1240.87        2969.25           2417      120688.00    535765.80
 1240.90        2969.50           2420      113944.00    505303.30
 1240.93        2969.75           2424      104268.00    461708.00
 1240.96        2970.00           2427       97344.00    430591.50
 1240.99        2970.25           2431       88164.00    389438.60
 1241.02        2970.50           2434       81970.00    361737.00
 1241.05        2970.75           2438       72095.00    317681.00
 1241.09        2971.00           2441       63835.00    280931.70
 1241.12        2971.25           2445       54251.00    238407.30
 1241.15        2971.50           2449       44414.00    194888.20
 1241.18        2971.75           2452       37975.00    166471.80
 1241.21        2972.00           2456       29272.00    128151.30
 1241.24        2972.25           2459       22525.00     98512.06
 1241.27        2972.50           2463       13395.00     58499.41
 1241.30        2972.75           2466        7579.00     33067.23
 1241.33        2973.00           2470        2432.00     10597.11
 1241.36        2973.25           2473        1080.00      4700.40
 1241.39        2973.50           2477         750.00      3261.48
 1241.42        2973.75           2481         699.00      3039.11
 1241.45        2974.00           2484         675.00      2934.47
 1241.48        2974.25           2488         680.00      2956.27
 1241.51        2974.50           2491         647.00      2812.39
 1241.54        2974.75           2495         674.00      2930.11
 1241.57        2975.00           2498         638.00      2773.15
 1241.61        2975.25           2502         614.00      2668.51
 1241.64        2975.50           2505         600.00      2607.47
 1241.67        2975.75           2509         589.00      2559.51
 1241.70        2976.00           2512         604.00      2624.91
 1241.73        2976.25           2516         605.00      2629.27
 1241.76        2976.50           2520         575.00      2498.47
 1241.79        2976.75           2523         571.00      2481.03
 1241.82        2977.00           2527         547.00      2376.39
 1241.85        2977.25           2530         553.00      2402.55
 1241.88        2977.50           2534         528.00      2293.55
 1241.91        2977.75           2537         528.00      2293.55
 1241.94        2978.00           2541         520.00      2258.67
 1241.97        2978.25           2544         542.00      2354.59
 1242.00        2978.50           2548         537.00      2332.79
 1242.03        2978.75           2552         530.00      2302.27
 1242.06        2979.00           2555         533.00      2315.35
 1242.09        2979.25           2559         510.00      2215.08
 1242.13        2979.50           2562         499.00      2167.12
 1242.16        2979.75           2566         490.00      2127.88
 1242.19        2980.00           2569         492.00      2136.60
 1242.22        2980.25           2573         498.00      2162.76
 1242.25        2980.50           2577         509.00      2210.72
 1242.28        2980.75           2580         498.00      2162.76
 1242.31        2981.00           2584         474.00      2058.12
 1242.34        2981.25           2587         524.00      2276.11
 1242.37        2981.50           2591         498.00      2162.76
 1242.40        2981.75           2594         501.00      2175.84
 1242.43        2982.00           2598         484.00      2101.72
 1242.46        2982.25           2601         462.00      2005.80
 1242.49        2982.50           2605         464.00      2014.52
 1242.52        2982.75           2609         466.00      2023.24
 1242.55        2983.00           2612         452.00      1962.21
 1242.58        2983.25           2616         490.00      2127.88
 1242.61        2983.50           2619         442.00      1918.61
 1242.65        2983.75           2623         444.00      1927.33
 1242.68        2984.00           2626         461.00      2001.44
HS scan finished at 20:42:54
end
