************************************************************
  HS Scan of (1) Internal mercury lamp
************************************************************
Integration time is 0.2294 seconds per sample
dh020518Reading 51.44 .94 3.13pr1000
************************************************************
Dead Time -------------------------  3.4E-08 
Number of Cycles Used -------------  4 
Starting Wavelength (Angstroms) ---  2950 
Final Wavelength (Angstoms) -------  2984 
Wavelength Increment (Angstroms) --  .25 
Filter Wheel #1 Position ---------- (1) Ground quartz diffuser (ND=2.32)
Filter Wheel #2 Position ---------- (1) Neutral Density 0.494



************************************************************
HS scan start time = 02:32:38
Dark Count =  1.4 


Time (GMT)  Wavelength (Ang)  Step Number  Raw Counts  Counts/Second

  153.53        2950.00           2144          86.00       368.79
  153.72        2950.25           2147         106.00       455.98
  153.75        2950.50           2151          87.00       373.15
  153.78        2950.75           2155          89.00       381.87
  153.82        2951.00           2158          88.00       377.51
  153.85        2951.25           2162          94.00       403.67
  153.88        2951.50           2165          90.00       386.23
  153.91        2951.75           2169          92.00       394.95
  153.94        2952.00           2172          87.00       373.15
  153.97        2952.25           2176          93.00       399.31
  154.00        2952.50           2179          99.00       425.46
  154.03        2952.75           2183          96.00       412.39
  154.06        2953.00           2186          90.00       386.23
  154.09        2953.25           2190          94.00       403.67
  154.12        2953.50           2193          96.00       412.39
  154.15        2953.75           2197          87.00       373.15
  154.18        2954.00           2200          93.00       399.31
  154.21        2954.25           2204         100.00       429.82
  154.24        2954.50           2208         101.00       434.18
  154.27        2954.75           2211          97.00       416.75
  154.30        2955.00           2215          95.00       408.03
  154.34        2955.25           2218         102.00       438.54
  154.37        2955.50           2222         101.00       434.18
  154.40        2955.75           2225         106.00       455.98
  154.43        2956.00           2229         118.00       508.29
  154.46        2956.25           2232          98.00       421.10
  154.49        2956.50           2236          99.00       425.46
  154.52        2956.75           2239         112.00       482.14
  154.55        2957.00           2243          98.00       421.10
  154.58        2957.25           2246         103.00       442.90
  154.61        2957.50           2250         102.00       438.54
  154.64        2957.75           2254         105.00       451.62
  154.67        2958.00           2257         111.00       477.78
  154.70        2958.25           2261         129.00       556.24
  154.73        2958.50           2264         115.00       495.21
  154.76        2958.75           2268         142.00       612.92
  154.79        2959.00           2271         128.00       551.88
  154.82        2959.25           2275         114.00       490.85
  154.86        2959.50           2278         115.00       495.21
  154.89        2959.75           2282         139.00       599.84
  154.92        2960.00           2285         128.00       551.88
  154.95        2960.25           2289         145.00       625.99
  154.98        2960.50           2293         142.00       612.92
  155.01        2960.75           2296         135.00       582.40
  155.04        2961.00           2300         169.00       730.62
  155.07        2961.25           2303         426.00      1851.03
  155.10        2961.50           2307        1311.00      5709.91
  155.13        2961.75           2310        2420.00     10546.94
  155.16        2962.00           2314        4157.00     18126.25
  155.19        2962.25           2317        5514.00     24050.17
  155.22        2962.50           2321        7309.00     31889.83
  155.25        2962.75           2324        8764.00     38247.61
  155.28        2963.00           2328       10803.00     47161.88
  155.31        2963.25           2331       12266.00     53561.27
  155.34        2963.50           2335       14289.00     62414.79
  155.38        2963.75           2339       16229.00     70910.08
  155.41        2964.00           2342       17497.00     76465.31
  155.44        2964.25           2346       19461.00     85073.97
  155.47        2964.50           2349       20805.00     90967.92
  155.50        2964.75           2353       22634.00     98992.61
  155.53        2965.00           2356       23826.00    104224.80
  155.56        2965.25           2360       25619.00    112098.60
  155.59        2965.50           2363       27270.00    119352.60
  155.62        2965.75           2367       28800.00    126078.10
  155.65        2966.00           2370       30068.00    131654.30
  155.68        2966.25           2374       31465.00    137800.20
  155.71        2966.50           2378       32746.00    143438.00
  155.74        2966.75           2381       32756.00    143482.00
  155.77        2967.00           2385       32843.00    143865.00
  155.80        2967.25           2388       32775.00    143565.70
  155.83        2967.50           2392       32633.00    142940.60
  155.86        2967.75           2395       32341.00    141655.30
  155.90        2968.00           2399       31488.00    137901.40
  155.93        2968.25           2402       30305.00    132696.70
  155.96        2968.50           2406       28677.00    125537.30
  155.99        2968.75           2409       27386.00    119862.40
  156.02        2969.00           2413       25299.00    110693.10
  156.05        2969.25           2417       23475.00    102683.90
  156.08        2969.50           2420       22140.00     96824.77
  156.11        2969.75           2424       20208.00     88349.56
  156.14        2970.00           2427       18899.00     82610.09
  156.17        2970.25           2431       16795.00     73389.53
  156.20        2970.50           2434       15120.00     66053.15
  156.23        2970.75           2438       12914.00     56396.61
  156.26        2971.00           2441       11600.00     50647.74
  156.29        2971.25           2445        9579.00     41810.04
  156.32        2971.50           2449        7569.00     33025.73
  156.35        2971.75           2452        6096.00     26591.60
  156.38        2972.00           2456        4144.00     18069.51
  156.41        2972.25           2459        2836.00     12361.78
  156.45        2972.50           2463        1444.00      6289.92
  156.48        2972.75           2466         681.00      2962.81
  156.51        2973.00           2470         279.00      1210.16
  156.54        2973.25           2473         155.00       669.59
  156.57        2973.50           2477         144.00       621.63
  156.60        2973.75           2481         160.00       691.39
  156.63        2974.00           2484         151.00       652.15
  156.66        2974.25           2488         122.00       525.73
  156.69        2974.50           2491         154.00       665.23
  156.72        2974.75           2495         123.00       530.09
  156.75        2975.00           2498         151.00       652.15
  156.78        2975.25           2502         114.00       490.85
  156.81        2975.50           2505         109.00       469.06
  156.85        2975.75           2509         128.00       551.88
  156.88        2976.00           2512         147.00       634.71
  156.91        2976.25           2516         127.00       547.53
  156.94        2976.50           2520         131.00       564.96
  156.97        2976.75           2523         131.00       564.96
  157.00        2977.00           2527         134.00       578.04
  157.03        2977.25           2530         112.00       482.14
  157.06        2977.50           2534          94.00       403.67
  157.09        2977.75           2537         121.00       521.37
  157.12        2978.00           2541         107.00       460.34
  157.16        2978.25           2544         101.00       434.18
  157.19        2978.50           2548         118.00       508.29
  157.22        2978.75           2552         125.00       538.81
  157.25        2979.00           2555          98.00       421.10
  157.28        2979.25           2559         118.00       508.29
  157.31        2979.50           2562         114.00       490.85
  157.34        2979.75           2566         107.00       460.34
  157.37        2980.00           2569         116.00       499.57
  157.40        2980.25           2573          92.00       394.95
  157.43        2980.50           2577          99.00       425.46
  157.46        2980.75           2580          92.00       394.95
  157.49        2981.00           2584          98.00       421.10
  157.52        2981.25           2587          98.00       421.10
  157.55        2981.50           2591         131.00       564.96
  157.58        2981.75           2594          89.00       381.87
  157.61        2982.00           2598         118.00       508.29
  157.64        2982.25           2601          92.00       394.95
  157.68        2982.50           2605          84.00       360.07
  157.71        2982.75           2609          99.00       425.46
  157.74        2983.00           2612          98.00       421.10
  157.77        2983.25           2616          87.00       373.15
  157.80        2983.50           2619          85.00       364.43
  157.83        2983.75           2623          88.00       377.51
  157.86        2984.00           2626          94.00       403.67
HS scan finished at 02:38:05
end
************************************************************
  HS Scan of (1) Internal mercury lamp
************************************************************
Integration time is 0.2294 seconds per sample
dh020518Reading 51.44 .94 3.05pr1000
************************************************************
Dead Time -------------------------  3.4E-08 
Number of Cycles Used -------------  4 
Starting Wavelength (Angstroms) ---  2950 
Final Wavelength (Angstoms) -------  2984 
Wavelength Increment (Angstroms) --  .25 
Filter Wheel #1 Position ---------- (1) Ground quartz diffuser (ND=2.32)
Filter Wheel #2 Position ---------- (1) Neutral Density 0.494



************************************************************
HS scan start time = 20:39:58
Dark Count =  .7 


Time (GMT)  Wavelength (Ang)  Step Number  Raw Counts  Counts/Second

 1240.87        2950.00           2144          86.00       371.84
 1241.06        2950.25           2147          87.00       376.20
 1241.09        2950.50           2151          87.00       376.20
 1241.12        2950.75           2155          88.00       380.56
 1241.15        2951.00           2158          89.00       384.92
 1241.18        2951.25           2162          85.00       367.49
 1241.21        2951.50           2165          88.00       380.56
 1241.24        2951.75           2169          81.00       350.05
 1241.27        2952.00           2172          82.00       354.41
 1241.30        2952.25           2176          87.00       376.20
 1241.33        2952.50           2179          96.00       415.44
 1241.37        2952.75           2183          91.00       393.64
 1241.40        2953.00           2186          89.00       384.92
 1241.43        2953.25           2190          89.00       384.92
 1241.46        2953.50           2193          95.00       411.08
 1241.49        2953.75           2197          83.00       358.77
 1241.52        2954.00           2200          93.00       402.36
 1241.55        2954.25           2204          97.00       419.80
 1241.58        2954.50           2208          91.00       393.64
 1241.61        2954.75           2211          98.00       424.16
 1241.64        2955.00           2215          87.00       376.20
 1241.67        2955.25           2218         106.00       459.03
 1241.70        2955.50           2222         104.00       450.31
 1241.73        2955.75           2225          99.00       428.52
 1241.76        2956.00           2229          94.00       406.72
 1241.79        2956.25           2232          92.00       398.00
 1241.82        2956.50           2236         100.00       432.87
 1241.85        2956.75           2239         120.00       520.06
 1241.89        2957.00           2243         100.00       432.87
 1241.92        2957.25           2246         107.00       463.39
 1241.95        2957.50           2250          98.00       424.16
 1241.98        2957.75           2254         102.00       441.59
 1242.01        2958.00           2257         104.00       450.31
 1242.04        2958.25           2261         101.00       437.23
 1242.07        2958.50           2264         117.00       506.98
 1242.10        2958.75           2268         100.00       432.87
 1242.13        2959.00           2271         127.00       550.58
 1242.16        2959.25           2275         108.00       467.75
 1242.19        2959.50           2278         121.00       524.42
 1242.22        2959.75           2282         134.00       581.09
 1242.25        2960.00           2285         117.00       506.98
 1242.28        2960.25           2289         133.00       576.73
 1242.31        2960.50           2293         119.00       515.70
 1242.34        2960.75           2296         162.00       703.16
 1242.37        2961.00           2300         176.00       764.19
 1242.41        2961.25           2303         246.00      1069.35
 1242.44        2961.50           2307         931.00      4055.92
 1242.47        2961.75           2310        1839.00      8015.70
 1242.50        2962.00           2314        3427.00     14943.51
 1242.53        2962.25           2317        4726.00     20612.96
 1242.56        2962.50           2321        6336.00     27642.80
 1242.59        2962.75           2324        7607.00     33194.81
 1242.62        2963.00           2328        9287.00     40536.65
 1242.65        2963.25           2331       10519.00     45923.00
 1242.68        2963.50           2335       12205.00     53297.46
 1242.71        2963.75           2339       14109.00     61629.88
 1242.74        2964.00           2342       15570.00     68026.83
 1242.77        2964.25           2346       17246.00     75368.57
 1242.80        2964.50           2349       18336.00     80145.30
 1242.83        2964.75           2353       19878.00     86905.50
 1242.86        2965.00           2356       21508.00     94054.88
 1242.89        2965.25           2360       23052.00    100830.30
 1242.93        2965.50           2363       24345.00    106506.60
 1242.96        2965.75           2367       26164.00    114495.90
 1242.99        2966.00           2370       27194.00    119021.70
 1243.02        2966.25           2374       28888.00    126468.10
 1243.05        2966.50           2378       29397.00    128706.30
 1243.08        2966.75           2381       29438.00    128886.60
 1243.11        2967.00           2385       29605.00    129621.00
 1243.14        2967.25           2388       29416.00    128789.80
 1243.17        2967.50           2392       29403.00    128732.70
 1243.20        2967.75           2395       29005.00    126982.50
 1243.23        2968.00           2399       27979.00    122471.90
 1243.26        2968.25           2402       26997.00    118155.90
 1243.29        2968.50           2406       25405.00    111161.70
 1243.32        2968.75           2409       24411.00    106796.40
 1243.35        2969.00           2413       22712.00     99338.00
 1243.38        2969.25           2417       20722.00     90606.94
 1243.41        2969.50           2420       19534.00     85397.12
 1243.45        2969.75           2424       17721.00     77449.98
 1243.48        2970.00           2427       16556.00     72345.56
 1243.51        2970.25           2431       14858.00     64909.00
 1243.54        2970.50           2434       13625.00     59511.32
 1243.57        2970.75           2438       11871.00     51836.26
 1243.60        2971.00           2441       10581.00     46194.12
 1243.63        2971.25           2445        8965.00     39129.18
 1243.66        2971.50           2449        7096.00     30962.40
 1243.69        2971.75           2452        5725.00     24974.55
 1243.72        2972.00           2456        4196.00     18299.53
 1243.75        2972.25           2459        3121.00     13608.30
 1243.78        2972.50           2463        1688.00      7357.12
 1243.81        2972.75           2466         840.00      3659.13
 1243.84        2973.00           2470         247.00      1073.71
 1243.87        2973.25           2473         151.00       655.20
 1243.90        2973.50           2477         149.00       646.48
 1243.93        2973.75           2481         121.00       524.42
 1243.97        2974.00           2484         126.00       546.22
 1244.00        2974.25           2488         136.00       589.81
 1244.03        2974.50           2491         137.00       594.17
 1244.06        2974.75           2495         136.00       589.81
 1244.09        2975.00           2498         112.00       485.19
 1244.12        2975.25           2502         129.00       559.30
 1244.15        2975.50           2505         113.00       489.55
 1244.18        2975.75           2509         128.00       554.94
 1244.21        2976.00           2512         101.00       437.23
 1244.24        2976.25           2516          98.00       424.16
 1244.27        2976.50           2520         101.00       437.23
 1244.30        2976.75           2523         102.00       441.59
 1244.33        2977.00           2527          96.00       415.44
 1244.36        2977.25           2530         111.00       480.83
 1244.39        2977.50           2534         115.00       498.26
 1244.42        2977.75           2537          90.00       389.28
 1244.45        2978.00           2541          97.00       419.80
 1244.49        2978.25           2544         113.00       489.55
 1244.52        2978.50           2548         100.00       432.87
 1244.55        2978.75           2552          91.00       393.64
 1244.58        2979.00           2555         100.00       432.87
 1244.61        2979.25           2559          90.00       389.28
 1244.64        2979.50           2562          94.00       406.72
 1244.67        2979.75           2566          93.00       402.36
 1244.70        2980.00           2569          92.00       398.00
 1244.73        2980.25           2573          83.00       358.77
 1244.76        2980.50           2577          90.00       389.28
 1244.79        2980.75           2580          81.00       350.05
 1244.82        2981.00           2584          82.00       354.41
 1244.85        2981.25           2587          83.00       358.77
 1244.88        2981.50           2591          87.00       376.20
 1244.91        2981.75           2594          84.00       363.13
 1244.94        2982.00           2598          90.00       389.28
 1244.97        2982.25           2601          81.00       350.05
 1245.00        2982.50           2605          89.00       384.92
 1245.04        2982.75           2609          80.00       345.69
 1245.07        2983.00           2612          80.00       345.69
 1245.10        2983.25           2616          79.00       341.33
 1245.13        2983.50           2619          85.00       367.49
 1245.16        2983.75           2623          92.00       398.00
 1245.19        2984.00           2626          76.00       328.25
HS scan finished at 20:45:25
end
