************************************************************
  HS Scan of 
************************************************************
Integration time is 0.2294 seconds per sample
dh090517Reading 51.44 .94 3.19pr1000
************************************************************
Dead Time -------------------------  3.4E-08 
Number of Cycles Used -------------  4 
Starting Wavelength (Angstroms) ---  2950 
Final Wavelength (Angstoms) -------  2984 
Wavelength Increment (Angstroms) --  .25 
Filter Wheel #1 Position ---------- (1) Ground quartz diffuser (ND=2.32)
Filter Wheel #2 Position ---------- (1) Neutral Density 0.494



************************************************************
HS scan start time = 02:32:02
Dark Count =  1.1 


Time (GMT)  Wavelength (Ang)  Step Number  Raw Counts  Counts/Second

  152.93        2950.00           2144         528.00      2297.04
  153.12        2950.25           2147         531.00      2310.12
  153.15        2950.50           2151         542.00      2358.08
  153.18        2950.75           2155         515.00      2240.36
  153.21        2951.00           2158         517.00      2249.08
  153.24        2951.25           2162         520.00      2262.16
  153.28        2951.50           2165         538.00      2340.64
  153.31        2951.75           2169         532.00      2314.48
  153.34        2952.00           2172         547.00      2379.88
  153.37        2952.25           2176         530.00      2305.76
  153.40        2952.50           2179         540.00      2349.36
  153.43        2952.75           2183         562.00      2445.28
  153.46        2953.00           2186         535.00      2327.56
  153.49        2953.25           2190         529.00      2301.40
  153.52        2953.50           2193         559.00      2432.20
  153.55        2953.75           2197         545.00      2371.16
  153.58        2954.00           2200         525.00      2283.96
  153.61        2954.25           2204         553.00      2406.04
  153.64        2954.50           2208         555.00      2414.76
  153.67        2954.75           2211         568.00      2471.44
  153.70        2955.00           2215         556.00      2419.12
  153.73        2955.25           2218         566.00      2462.72
  153.76        2955.50           2222         563.00      2449.64
  153.80        2955.75           2225         599.00      2606.60
  153.83        2956.00           2229         591.00      2571.72
  153.86        2956.25           2232         572.00      2488.88
  153.89        2956.50           2236         578.00      2515.04
  153.92        2956.75           2239         587.00      2554.28
  153.95        2957.00           2243         603.00      2624.04
  153.98        2957.25           2246         611.00      2658.92
  154.01        2957.50           2250         618.00      2689.44
  154.04        2957.75           2254         595.00      2589.16
  154.07        2958.00           2257         650.00      2828.96
  154.10        2958.25           2261         665.00      2894.36
  154.13        2958.50           2264         661.00      2876.92
  154.16        2958.75           2268         648.00      2820.24
  154.19        2959.00           2271         682.00      2968.48
  154.22        2959.25           2275         691.00      3007.72
  154.25        2959.50           2278         693.00      3016.44
  154.28        2959.75           2282         696.00      3029.52
  154.32        2960.00           2285         707.00      3077.48
  154.35        2960.25           2289         727.00      3164.68
  154.38        2960.50           2293         726.00      3160.32
  154.41        2960.75           2296         761.00      3312.93
  154.44        2961.00           2300         815.00      3548.38
  154.47        2961.25           2303        1101.00      4795.46
  154.50        2961.50           2307        3816.00     16639.32
  154.53        2961.75           2310        9124.00     39822.42
  154.56        2962.00           2314       18018.00     78749.81
  154.59        2962.25           2317       25505.00    111599.20
  154.62        2962.50           2321       34788.00    152430.90
  154.65        2962.75           2324       43350.00    190192.40
  154.68        2963.00           2328       54828.00    240967.50
  154.71        2963.25           2331       63800.00    280779.70
  154.74        2963.50           2335       76380.00    336785.20
  154.77        2963.75           2339       88354.00    390292.70
  154.80        2964.00           2342       97511.00    431344.80
  154.84        2964.25           2346      109011.00    483064.90
  154.87        2964.50           2349      116538.00    517016.40
  154.90        2964.75           2353      126731.00    563119.70
  154.93        2965.00           2356      135137.00    601250.50
  154.96        2965.25           2360      146161.00    651408.80
  154.99        2965.50           2363      154491.00    689424.50
  155.02        2965.75           2367      164150.00    733630.50
  155.05        2966.00           2370      170754.00    763932.40
  155.08        2966.25           2374      180609.00    809269.30
  155.11        2966.50           2378      186047.00    834347.00
  155.14        2966.75           2381      187296.00    840112.90
  155.17        2967.00           2385      187531.00    841198.10
  155.20        2967.25           2388      187853.00    842685.10
  155.23        2967.50           2392      187076.00    839097.20
  155.26        2967.75           2395      187017.00    838824.80
  155.29        2968.00           2399      181940.00    815403.30
  155.32        2968.25           2402      175417.00    785366.40
  155.36        2968.50           2406      165299.00    738898.10
  155.39        2968.75           2409      157541.00    703368.90
  155.42        2969.00           2413      146845.00    654526.60
  155.45        2969.25           2417      136382.00    606906.50
  155.48        2969.50           2420      128898.00    572940.00
  155.51        2969.75           2424      118292.00    524939.40
  155.54        2970.00           2427      111039.00    492204.70
  155.57        2970.25           2431       99245.00    439131.60
  155.60        2970.50           2434       90043.00    397856.10
  155.63        2970.75           2438       77829.00    343249.90
  155.66        2971.00           2441       68853.00    303249.70
  155.69        2971.25           2445       58463.00    257084.30
  155.72        2971.50           2449       48109.00    211223.30
  155.75        2971.75           2452       39771.00    174395.90
  155.78        2972.00           2456       28312.00    123934.00
  155.81        2972.25           2459       20615.00     90135.88
  155.84        2972.50           2463       11225.00     49008.80
  155.88        2972.75           2466        5370.00     23422.74
  155.91        2973.00           2470        1697.00      7394.62
  155.94        2973.25           2473        1009.00      4394.29
  155.97        2973.50           2477         836.00      3639.95
  156.00        2973.75           2481         832.00      3622.50
  156.03        2974.00           2484         782.00      3404.49
  156.06        2974.25           2488         767.00      3339.09
  156.09        2974.50           2491         755.00      3286.77
  156.12        2974.75           2495         711.00      3094.92
  156.15        2975.00           2498         712.00      3099.28
  156.18        2975.25           2502         695.00      3025.16
  156.21        2975.50           2505         696.00      3029.52
  156.24        2975.75           2509         666.00      2898.72
  156.27        2976.00           2512         677.00      2946.68
  156.30        2976.25           2516         681.00      2964.12
  156.33        2976.50           2520         640.00      2785.36
  156.36        2976.75           2523         633.00      2754.84
  156.40        2977.00           2527         666.00      2898.72
  156.43        2977.25           2530         656.00      2855.12
  156.46        2977.50           2534         641.00      2789.72
  156.49        2977.75           2537         635.00      2763.56
  156.52        2978.00           2541         615.00      2676.36
  156.55        2978.25           2544         612.00      2663.28
  156.58        2978.50           2548         592.00      2576.08
  156.61        2978.75           2552         593.00      2580.44
  156.64        2979.00           2555         600.00      2610.96
  156.67        2979.25           2559         607.00      2641.48
  156.70        2979.50           2562         604.00      2628.40
  156.73        2979.75           2566         573.00      2493.24
  156.76        2980.00           2569         604.00      2628.40
  156.79        2980.25           2573         575.00      2501.96
  156.82        2980.50           2577         552.00      2401.68
  156.85        2980.75           2580         544.00      2366.80
  156.88        2981.00           2584         554.00      2410.40
  156.92        2981.25           2587         561.00      2440.92
  156.95        2981.50           2591         545.00      2371.16
  156.98        2981.75           2594         563.00      2449.64
  157.01        2982.00           2598         568.00      2471.44
  157.04        2982.25           2601         551.00      2397.32
  157.07        2982.50           2605         561.00      2440.92
  157.10        2982.75           2609         552.00      2401.68
  157.13        2983.00           2612         545.00      2371.16
  157.16        2983.25           2616         523.00      2275.24
  157.19        2983.50           2619         550.00      2392.96
  157.22        2983.75           2623         533.00      2318.84
  157.25        2984.00           2626         520.00      2262.16
HS scan finished at 02:37:29
end
************************************************************
  HS Scan of 
************************************************************
Integration time is 0.2294 seconds per sample
dh090517Reading 51.44 .94 3.21pr1000
************************************************************
Dead Time -------------------------  3.4E-08 
Number of Cycles Used -------------  4 
Starting Wavelength (Angstroms) ---  2950 
Final Wavelength (Angstoms) -------  2984 
Wavelength Increment (Angstroms) --  .25 
Filter Wheel #1 Position ---------- (1) Ground quartz diffuser (ND=2.32)
Filter Wheel #2 Position ---------- (1) Neutral Density 0.494



************************************************************
HS scan start time = 20:37:27
Dark Count =  1.8 


Time (GMT)  Wavelength (Ang)  Step Number  Raw Counts  Counts/Second

 1238.34        2950.00           2144         515.00      2237.31
 1238.54        2950.25           2147         555.00      2411.71
 1238.57        2950.50           2151         531.00      2307.07
 1238.60        2950.75           2155         549.00      2385.55
 1238.63        2951.00           2158         550.00      2389.91
 1238.66        2951.25           2162         540.00      2346.31
 1238.69        2951.50           2165         563.00      2446.59
 1238.72        2951.75           2169         574.00      2494.55
 1238.75        2952.00           2172         546.00      2372.47
 1238.78        2952.25           2176         578.00      2511.98
 1238.81        2952.50           2179         560.00      2433.51
 1238.84        2952.75           2183         575.00      2498.90
 1238.87        2953.00           2186         560.00      2433.51
 1238.90        2953.25           2190         555.00      2411.71
 1238.94        2953.50           2193         564.00      2450.95
 1238.97        2953.75           2197         583.00      2533.78
 1239.00        2954.00           2200         564.00      2450.95
 1239.03        2954.25           2204         589.00      2559.94
 1239.06        2954.50           2208         589.00      2559.94
 1239.09        2954.75           2211         598.00      2599.18
 1239.12        2955.00           2215         566.00      2459.67
 1239.15        2955.25           2218         587.00      2551.22
 1239.18        2955.50           2222         617.00      2682.02
 1239.21        2955.75           2225         605.00      2629.70
 1239.24        2956.00           2229         602.00      2616.62
 1239.27        2956.25           2232         601.00      2612.26
 1239.30        2956.50           2236         624.00      2712.54
 1239.33        2956.75           2239         620.00      2695.10
 1239.36        2957.00           2243         625.00      2716.90
 1239.39        2957.25           2246         661.00      2873.86
 1239.42        2957.50           2250         656.00      2852.06
 1239.46        2957.75           2254         639.00      2777.94
 1239.49        2958.00           2257         636.00      2764.86
 1239.52        2958.25           2261         720.00      3131.11
 1239.55        2958.50           2264         665.00      2891.30
 1239.58        2958.75           2268         669.00      2908.74
 1239.61        2959.00           2271         693.00      3013.39
 1239.64        2959.25           2275         718.00      3122.39
 1239.67        2959.50           2278         699.00      3039.55
 1239.70        2959.75           2282         721.00      3135.47
 1239.73        2960.00           2285         710.00      3087.51
 1239.76        2960.25           2289         740.00      3218.31
 1239.79        2960.50           2293         764.00      3322.96
 1239.82        2960.75           2296         766.00      3331.68
 1239.85        2961.00           2300         837.00      3641.25
 1239.88        2961.25           2303        1156.00      5032.25
 1239.91        2961.50           2307        4094.00     17849.54
 1239.94        2961.75           2310        9592.00     41865.13
 1239.98        2962.00           2314       18554.00     81096.01
 1240.01        2962.25           2317       25399.00    111130.50
 1240.04        2962.50           2321       34093.00    149366.90
 1240.07        2962.75           2324       41787.00    183288.60
 1240.10        2963.00           2328       52917.00    232498.50
 1240.13        2963.25           2331       61996.00    272762.90
 1240.16        2963.50           2335       73196.00    322586.80
 1240.19        2963.75           2339       82960.00    366161.50
 1240.22        2964.00           2342       90818.00    401324.70
 1240.25        2964.25           2346      101457.00    449067.80
 1240.28        2964.50           2349      109514.00    485328.20
 1240.31        2964.75           2353      120683.00    535743.60
 1240.34        2965.00           2356      128834.00    572646.60
 1240.37        2965.25           2360      138803.00    617908.10
 1240.40        2965.50           2363      146317.00    652116.50
 1240.43        2965.75           2367      155119.00    692291.40
 1240.46        2966.00           2370      162776.00    727330.80
 1240.49        2966.25           2374      171765.00    768573.60
 1240.53        2966.50           2378      178448.00    799312.40
 1240.56        2966.75           2381      181436.00    813077.00
 1240.59        2967.00           2385      182134.00    816294.20
 1240.62        2967.25           2388      181925.00    815330.90
 1240.65        2967.50           2392      182148.00    816358.80
 1240.68        2967.75           2395      182058.00    815944.00
 1240.71        2968.00           2399      180102.00    806930.10
 1240.74        2968.25           2402      175468.00    785597.80
 1240.77        2968.50           2406      165611.00    740325.50
 1240.80        2968.75           2409      157691.00    704051.80
 1240.83        2969.00           2413      147621.00    658061.40
 1240.86        2969.25           2417      137994.00    614229.80
 1240.89        2969.50           2420      130701.00    581112.50
 1240.92        2969.75           2424      119187.00    528980.80
 1240.95        2970.00           2427      110410.00    489366.20
 1240.98        2970.25           2431       99190.00    438881.40
 1241.01        2970.50           2434       91180.00    402946.60
 1241.05        2970.75           2438       79915.00    352558.40
 1241.08        2971.00           2441       72089.00    317654.70
 1241.11        2971.25           2445       61115.00    268850.90
 1241.14        2971.50           2449       50284.00    220842.10
 1241.17        2971.75           2452       42314.00    185615.00
 1241.20        2972.00           2456       31379.00    137420.00
 1241.23        2972.25           2459       23673.00    103551.40
 1241.26        2972.50           2463       13606.00     59423.34
 1241.29        2972.75           2466        7462.00     32556.51
 1241.32        2973.00           2470        2642.00     11513.66
 1241.35        2973.25           2473        1237.00      5385.47
 1241.38        2973.50           2477         875.00      3806.94
 1241.41        2973.75           2481         817.00      3554.05
 1241.44        2974.00           2484         802.00      3488.64
 1241.47        2974.25           2488         787.00      3423.24
 1241.50        2974.50           2491         752.00      3270.63
 1241.53        2974.75           2495         738.00      3209.59
 1241.57        2975.00           2498         732.00      3183.43
 1241.60        2975.25           2502         708.00      3078.79
 1241.63        2975.50           2505         754.00      3279.35
 1241.66        2975.75           2509         682.00      2965.43
 1241.69        2976.00           2512         694.00      3017.75
 1241.72        2976.25           2516         691.00      3004.67
 1241.75        2976.50           2520         686.00      2982.87
 1241.78        2976.75           2523         693.00      3013.39
 1241.81        2977.00           2527         647.00      2812.82
 1241.84        2977.25           2530         657.00      2856.42
 1241.87        2977.50           2534         657.00      2856.42
 1241.90        2977.75           2537         631.00      2743.06
 1241.93        2978.00           2541         632.00      2747.42
 1241.96        2978.25           2544         643.00      2795.38
 1241.99        2978.50           2548         611.00      2655.86
 1242.02        2978.75           2552         611.00      2655.86
 1242.05        2979.00           2555         581.00      2525.06
 1242.09        2979.25           2559         594.00      2581.74
 1242.12        2979.50           2562         638.00      2773.58
 1242.15        2979.75           2566         584.00      2538.14
 1242.18        2980.00           2569         582.00      2529.42
 1242.21        2980.25           2573         591.00      2568.66
 1242.24        2980.50           2577         558.00      2424.79
 1242.27        2980.75           2580         582.00      2529.42
 1242.30        2981.00           2584         562.00      2442.23
 1242.33        2981.25           2587         573.00      2490.18
 1242.36        2981.50           2591         564.00      2450.95
 1242.39        2981.75           2594         544.00      2363.75
 1242.42        2982.00           2598         566.00      2459.67
 1242.45        2982.25           2601         576.00      2503.26
 1242.48        2982.50           2605         576.00      2503.26
 1242.51        2982.75           2609         562.00      2442.23
 1242.54        2983.00           2612         548.00      2381.19
 1242.58        2983.25           2616         529.00      2298.35
 1242.61        2983.50           2619         547.00      2376.83
 1242.64        2983.75           2623         540.00      2346.31
 1242.67        2984.00           2626         524.00      2276.55
HS scan finished at 20:42:54
end
