************************************************************
  HS Scan of 
************************************************************
Integration time is 0.2294 seconds per sample
dh020517Reading 51.44 .94 3.03pr1000
************************************************************
Dead Time -------------------------  3.4E-08 
Number of Cycles Used -------------  4 
Starting Wavelength (Angstroms) ---  2950 
Final Wavelength (Angstoms) -------  2984 
Wavelength Increment (Angstroms) --  .25 
Filter Wheel #1 Position ---------- (1) Ground quartz diffuser (ND=2.32)
Filter Wheel #2 Position ---------- (1) Neutral Density 0.494



************************************************************
HS scan start time = 02:32:54
Dark Count =  1 


Time (GMT)  Wavelength (Ang)  Step Number  Raw Counts  Counts/Second

  153.79        2950.00           2144         552.00      2402.11
  153.99        2950.25           2147         538.00      2341.08
  154.02        2950.50           2151         533.00      2319.28
  154.05        2950.75           2155         536.00      2332.36
  154.08        2951.00           2158         536.00      2332.36
  154.11        2951.25           2162         560.00      2436.99
  154.14        2951.50           2165         543.00      2362.88
  154.17        2951.75           2169         537.00      2336.72
  154.20        2952.00           2172         537.00      2336.72
  154.23        2952.25           2176         556.00      2419.55
  154.26        2952.50           2179         536.00      2332.36
  154.29        2952.75           2183         532.00      2314.92
  154.32        2953.00           2186         554.00      2410.83
  154.35        2953.25           2190         561.00      2441.35
  154.38        2953.50           2193         563.00      2450.07
  154.41        2953.75           2197         577.00      2511.11
  154.44        2954.00           2200         583.00      2537.27
  154.48        2954.25           2204         577.00      2511.11
  154.51        2954.50           2208         568.00      2471.87
  154.54        2954.75           2211         594.00      2585.23
  154.57        2955.00           2215         576.00      2506.75
  154.60        2955.25           2218         582.00      2532.91
  154.63        2955.50           2222         592.00      2576.51
  154.66        2955.75           2225         588.00      2559.07
  154.69        2956.00           2229         598.00      2602.67
  154.72        2956.25           2232         664.00      2890.43
  154.75        2956.50           2236         629.00      2737.83
  154.78        2956.75           2239         612.00      2663.71
  154.81        2957.00           2243         651.00      2833.75
  154.84        2957.25           2246         666.00      2899.15
  154.87        2957.50           2250         652.00      2838.11
  154.90        2957.75           2254         659.00      2868.63
  154.93        2958.00           2257         675.00      2938.39
  154.96        2958.25           2261         672.00      2925.31
  155.00        2958.50           2264         678.00      2951.47
  155.03        2958.75           2268         670.00      2916.59
  155.06        2959.00           2271         699.00      3043.04
  155.09        2959.25           2275         697.00      3034.31
  155.12        2959.50           2278         701.00      3051.76
  155.15        2959.75           2282         764.00      3326.44
  155.19        2960.00           2285         709.00      3086.64
  155.22        2960.25           2289         772.00      3361.33
  155.25        2960.50           2293         773.00      3365.69
  155.28        2960.75           2296         780.00      3396.21
  155.31        2961.00           2300         904.00      3936.88
  155.34        2961.25           2303        1461.00      6365.81
  155.37        2961.50           2307        5417.00     23628.39
  155.40        2961.75           2310       11271.00     49210.43
  155.43        2962.00           2314       20282.00     88675.85
  155.46        2962.25           2317       27625.00    120914.60
  155.49        2962.50           2321       38381.00    168265.90
  155.52        2962.75           2324       46844.00    205630.60
  155.55        2963.00           2328       58733.00    258282.60
  155.58        2963.25           2331       67089.00    295402.00
  155.61        2963.50           2335       78686.00    347075.10
  155.64        2963.75           2339       89052.00    393418.40
  155.67        2964.00           2342       98594.00    436208.10
  155.70        2964.25           2346      110759.00    490942.90
  155.74        2964.50           2349      119432.00    530091.80
  155.77        2964.75           2353      130634.00    580812.30
  155.80        2965.00           2356      138738.00    617616.10
  155.83        2965.25           2360      149355.00    665974.00
  155.86        2965.50           2363      158538.00    707930.40
  155.89        2965.75           2367      168805.00    754983.40
  155.92        2966.00           2370      175980.00    787956.90
  155.95        2966.25           2374      185151.00    830212.50
  155.98        2966.50           2378      190540.00    855100.00
  156.01        2966.75           2381      192200.00    862774.80
  156.04        2967.00           2385      192712.00    865142.90
  156.07        2967.25           2388      192821.00    865647.00
  156.10        2967.50           2392      192512.00    864217.80
  156.13        2967.75           2395      191382.00    858992.40
  156.16        2968.00           2399      186416.00    836050.60
  156.19        2968.25           2402      178955.00    801650.70
  156.22        2968.50           2406      168911.00    755470.00
  156.26        2968.75           2409      161780.00    722771.80
  156.29        2969.00           2413      151315.00    674918.90
  156.32        2969.25           2417      140969.00    627764.50
  156.35        2969.50           2420      133810.00    595224.80
  156.38        2969.75           2424      122856.00    545576.10
  156.41        2970.00           2427      113415.00    502920.60
  156.44        2970.25           2431      101551.00    449493.90
  156.47        2970.50           2434       93009.00    411147.80
  156.50        2970.75           2438       81580.00    359998.50
  156.53        2971.00           2441       73468.00    323802.50
  156.56        2971.25           2445       63106.00    277696.80
  156.59        2971.50           2449       52546.00    230859.00
  156.62        2971.75           2452       44315.00    194454.90
  156.65        2972.00           2456       32449.00    142132.40
  156.68        2972.25           2459       23790.00    104068.50
  156.71        2972.50           2463       13226.00     57763.73
  156.74        2972.75           2466        6959.00     30362.63
  156.78        2973.00           2470        2273.00      9907.43
  156.81        2973.25           2473        1216.00      5297.38
  156.84        2973.50           2477         888.00      3867.12
  156.87        2973.75           2481         833.00      3627.30
  156.90        2974.00           2484         812.00      3535.73
  156.93        2974.25           2488         820.00      3570.62
  156.96        2974.50           2491         776.00      3378.77
  156.99        2974.75           2495         749.00      3261.04
  157.02        2975.00           2498         736.00      3204.36
  157.05        2975.25           2502         710.00      3091.00
  157.08        2975.50           2505         731.00      3182.56
  157.11        2975.75           2509         709.00      3086.64
  157.14        2976.00           2512         682.00      2968.91
  157.17        2976.25           2516         679.00      2955.83
  157.20        2976.50           2520         664.00      2890.43
  157.23        2976.75           2523         671.00      2920.95
  157.26        2977.00           2527         672.00      2925.31
  157.30        2977.25           2530         653.00      2842.47
  157.33        2977.50           2534         685.00      2981.99
  157.36        2977.75           2537         648.00      2820.67
  157.39        2978.00           2541         657.00      2859.91
  157.42        2978.25           2544         673.00      2929.67
  157.45        2978.50           2548         609.00      2650.63
  157.48        2978.75           2552         624.00      2716.03
  157.51        2979.00           2555         599.00      2607.03
  157.54        2979.25           2559         623.00      2711.67
  157.57        2979.50           2562         606.00      2637.55
  157.60        2979.75           2566         596.00      2593.95
  157.63        2980.00           2569         580.00      2524.19
  157.66        2980.25           2573         564.00      2454.43
  157.69        2980.50           2577         588.00      2559.07
  157.72        2980.75           2580         586.00      2550.35
  157.75        2981.00           2584         566.00      2463.15
  157.78        2981.25           2587         578.00      2515.47
  157.82        2981.50           2591         558.00      2428.27
  157.85        2981.75           2594         571.00      2484.95
  157.88        2982.00           2598         603.00      2624.47
  157.91        2982.25           2601         565.00      2458.79
  157.94        2982.50           2605         549.00      2389.03
  157.97        2982.75           2609         555.00      2415.19
  158.00        2983.00           2612         552.00      2402.11
  158.03        2983.25           2616         552.00      2402.11
  158.06        2983.50           2619         549.00      2389.03
  158.09        2983.75           2623         526.00      2288.76
  158.12        2984.00           2626         555.00      2415.19
HS scan finished at 02:38:21
end
************************************************************
  HS Scan of 
************************************************************
Integration time is 0.2294 seconds per sample
dh020517Reading 51.44 .94 3.27pr1000
************************************************************
Dead Time -------------------------  3.4E-08 
Number of Cycles Used -------------  4 
Starting Wavelength (Angstroms) ---  2950 
Final Wavelength (Angstoms) -------  2984 
Wavelength Increment (Angstroms) --  .25 
Filter Wheel #1 Position ---------- (1) Ground quartz diffuser (ND=2.32)
Filter Wheel #2 Position ---------- (1) Neutral Density 0.494



************************************************************
HS scan start time = 20:37:26
Dark Count =  1.5 


Time (GMT)  Wavelength (Ang)  Step Number  Raw Counts  Counts/Second

 1238.33        2950.00           2144         510.00      2216.82
 1238.52        2950.25           2147         511.00      2221.18
 1238.56        2950.50           2151         490.00      2129.62
 1238.59        2950.75           2155         497.00      2160.14
 1238.62        2951.00           2158         493.00      2142.70
 1238.65        2951.25           2162         493.00      2142.70
 1238.68        2951.50           2165         491.00      2133.98
 1238.71        2951.75           2169         495.00      2151.42
 1238.74        2952.00           2172         489.00      2125.26
 1238.77        2952.25           2176         526.00      2286.58
 1238.80        2952.50           2179         507.00      2203.74
 1238.83        2952.75           2183         512.00      2225.54
 1238.86        2953.00           2186         506.00      2199.38
 1238.89        2953.25           2190         520.00      2260.42
 1238.92        2953.50           2193         535.00      2325.82
 1238.95        2953.75           2197         520.00      2260.42
 1238.98        2954.00           2200         530.00      2304.02
 1239.01        2954.25           2204         530.00      2304.02
 1239.05        2954.50           2208         548.00      2382.49
 1239.08        2954.75           2211         535.00      2325.82
 1239.11        2955.00           2215         548.00      2382.49
 1239.14        2955.25           2218         548.00      2382.49
 1239.17        2955.50           2222         563.00      2447.89
 1239.20        2955.75           2225         559.00      2430.45
 1239.23        2956.00           2229         543.00      2360.70
 1239.26        2956.25           2232         553.00      2404.29
 1239.29        2956.50           2236         573.00      2491.49
 1239.32        2956.75           2239         576.00      2504.57
 1239.35        2957.00           2243         576.00      2504.57
 1239.38        2957.25           2246         555.00      2413.01
 1239.41        2957.50           2250         584.00      2539.45
 1239.44        2957.75           2254         607.00      2639.73
 1239.47        2958.00           2257         588.00      2556.89
 1239.50        2958.25           2261         600.00      2609.21
 1239.53        2958.50           2264         636.00      2766.17
 1239.56        2958.75           2268         632.00      2748.73
 1239.60        2959.00           2271         634.00      2757.45
 1239.63        2959.25           2275         626.00      2722.57
 1239.66        2959.50           2278         634.00      2757.45
 1239.69        2959.75           2282         646.00      2809.77
 1239.72        2960.00           2285         685.00      2979.81
 1239.75        2960.25           2289         699.00      3040.85
 1239.78        2960.50           2293         706.00      3071.38
 1239.81        2960.75           2296         705.00      3067.02
 1239.84        2961.00           2300         791.00      3441.99
 1239.87        2961.25           2303        1093.00      4758.83
 1239.90        2961.50           2307        3699.00     16126.98
 1239.93        2961.75           2310        8426.00     36770.01
 1239.96        2962.00           2314       16404.00     71676.21
 1239.99        2962.25           2317       23623.00    103333.20
 1240.02        2962.50           2321       33362.00    146149.50
 1240.05        2962.75           2324       40822.00    179031.10
 1240.08        2963.00           2328       50263.00    220750.50
 1240.12        2963.25           2331       57341.00    252106.00
 1240.15        2963.50           2335       66951.00    294785.90
 1240.18        2963.75           2339       77377.00    341231.20
 1240.21        2964.00           2342       85057.00    375538.30
 1240.24        2964.25           2346       95634.00    422918.70
 1240.27        2964.50           2349      102930.00    455691.60
 1240.30        2964.75           2353      112639.00    499417.80
 1240.33        2965.00           2356      120751.00    536052.50
 1240.36        2965.25           2360      131713.00    585704.90
 1240.39        2965.50           2363      138936.00    618514.30
 1240.42        2965.75           2367      147855.00    659129.80
 1240.45        2966.00           2370      153659.00    685621.30
 1240.48        2966.25           2374      162426.00    725728.60
 1240.51        2966.50           2378      170660.00    763498.80
 1240.54        2966.75           2381      172655.00    772664.90
 1240.57        2967.00           2385      172998.00    774241.40
 1240.60        2967.25           2388      173810.00    777974.30
 1240.64        2967.50           2392      173621.00    777105.20
 1240.67        2967.75           2395      173044.00    774452.80
 1240.70        2968.00           2399      170136.00    761092.30
 1240.73        2968.25           2402      164663.00    735980.20
 1240.76        2968.50           2406      155654.00    694738.30
 1240.79        2968.75           2409      148580.00    662436.30
 1240.82        2969.00           2413      138700.00    617441.10
 1240.85        2969.25           2417      128066.00    569166.90
 1240.88        2969.50           2420      120217.00    533638.00
 1240.91        2969.75           2424      110415.00    489390.10
 1240.94        2970.00           2427      103673.00    459033.20
 1240.97        2970.25           2431       94362.00    417212.60
 1241.00        2970.50           2434       86123.00    380306.60
 1241.03        2970.75           2438       74680.00    329202.60
 1241.06        2971.00           2441       66495.00    292758.00
 1241.09        2971.25           2445       56148.00    246816.30
 1241.12        2971.50           2449       46513.00    204165.20
 1241.16        2971.75           2452       39706.00    174107.40
 1241.19        2972.00           2456       29609.00    129635.10
 1241.22        2972.25           2459       22155.00     96890.15
 1241.25        2972.50           2463       12324.00     53814.60
 1241.28        2972.75           2466        6382.00     27840.20
 1241.31        2973.00           2470        1919.00      8361.14
 1241.34        2973.25           2473        1023.00      4453.60
 1241.37        2973.50           2477         814.00      3542.28
 1241.40        2973.75           2481         746.00      3245.78
 1241.43        2974.00           2484         733.00      3189.10
 1241.46        2974.25           2488         731.00      3180.38
 1241.49        2974.50           2491         687.00      2988.53
 1241.52        2974.75           2495         701.00      3049.58
 1241.55        2975.00           2498         684.00      2975.45
 1241.58        2975.25           2502         659.00      2866.45
 1241.61        2975.50           2505         645.00      2805.41
 1241.64        2975.75           2509         641.00      2787.97
 1241.68        2976.00           2512         630.00      2740.01
 1241.71        2976.25           2516         621.00      2700.77
 1241.74        2976.50           2520         596.00      2591.77
 1241.77        2976.75           2523         602.00      2617.93
 1241.80        2977.00           2527         622.00      2705.13
 1241.83        2977.25           2530         623.00      2709.49
 1241.86        2977.50           2534         575.00      2500.21
 1241.89        2977.75           2537         574.00      2495.85
 1241.92        2978.00           2541         564.00      2452.25
 1241.95        2978.25           2544         558.00      2426.09
 1241.98        2978.50           2548         569.00      2474.05
 1242.01        2978.75           2552         572.00      2487.13
 1242.04        2979.00           2555         554.00      2408.65
 1242.07        2979.25           2559         559.00      2430.45
 1242.10        2979.50           2562         564.00      2452.25
 1242.13        2979.75           2566         554.00      2408.65
 1242.16        2980.00           2569         538.00      2338.90
 1242.20        2980.25           2573         533.00      2317.10
 1242.23        2980.50           2577         530.00      2304.02
 1242.26        2980.75           2580         510.00      2216.82
 1242.29        2981.00           2584         520.00      2260.42
 1242.32        2981.25           2587         513.00      2229.90
 1242.35        2981.50           2591         539.00      2343.26
 1242.38        2981.75           2594         529.00      2299.66
 1242.41        2982.00           2598         529.00      2299.66
 1242.44        2982.25           2601         490.00      2129.62
 1242.47        2982.50           2605         501.00      2177.58
 1242.50        2982.75           2609         506.00      2199.38
 1242.53        2983.00           2612         518.00      2251.70
 1242.56        2983.25           2616         502.00      2181.94
 1242.59        2983.50           2619         491.00      2133.98
 1242.62        2983.75           2623         495.00      2151.42
 1242.66        2984.00           2626         506.00      2199.38
HS scan finished at 20:42:53
end
