************************************************************
  HS Scan of (1) Internal mercury lamp
************************************************************
Integration time is 0.2294 seconds per sample
dh060518Reading 51.44 .94 3.19pr1000
************************************************************
Dead Time -------------------------  3.4E-08 
Number of Cycles Used -------------  4 
Starting Wavelength (Angstroms) ---  2950 
Final Wavelength (Angstoms) -------  2984 
Wavelength Increment (Angstroms) --  .25 
Filter Wheel #1 Position ---------- (1) Ground quartz diffuser (ND=2.32)
Filter Wheel #2 Position ---------- (1) Neutral Density 0.494



************************************************************
HS scan start time = 01:09:22
Dark Count =  1.1 


Time (GMT)  Wavelength (Ang)  Step Number  Raw Counts  Counts/Second

   70.26        2950.00           2144          89.00       383.18
   70.45        2950.25           2147         113.00       487.80
   70.48        2950.50           2151          88.00       378.82
   70.51        2950.75           2155         104.00       448.57
   70.54        2951.00           2158          92.00       396.26
   70.57        2951.25           2162          86.00       370.10
   70.60        2951.50           2165          85.00       365.74
   70.63        2951.75           2169          87.00       374.46
   70.66        2952.00           2172          89.00       383.18
   70.69        2952.25           2176          82.00       352.66
   70.73        2952.50           2179          92.00       396.26
   70.76        2952.75           2183          91.00       391.90
   70.79        2953.00           2186          91.00       391.90
   70.82        2953.25           2190          98.00       422.41
   70.85        2953.50           2193          96.00       413.69
   70.88        2953.75           2197         111.00       479.08
   70.91        2954.00           2200          89.00       383.18
   70.94        2954.25           2204         104.00       448.57
   70.97        2954.50           2208         101.00       435.49
   71.00        2954.75           2211          94.00       404.98
   71.03        2955.00           2215         100.00       431.13
   71.06        2955.25           2218         103.00       444.21
   71.09        2955.50           2222          94.00       404.98
   71.12        2955.75           2225         100.00       431.13
   71.15        2956.00           2229         123.00       531.40
   71.18        2956.25           2232          98.00       422.41
   71.21        2956.50           2236         104.00       448.57
   71.25        2956.75           2239         109.00       470.37
   71.28        2957.00           2243         102.00       439.85
   71.31        2957.25           2246         109.00       470.37
   71.34        2957.50           2250         106.00       457.29
   71.37        2957.75           2254         126.00       544.47
   71.40        2958.00           2257         122.00       527.04
   71.43        2958.25           2261         105.00       452.93
   71.46        2958.50           2264         103.00       444.21
   71.49        2958.75           2268         123.00       531.40
   71.52        2959.00           2271         124.00       535.76
   71.55        2959.25           2275         119.00       513.96
   71.58        2959.50           2278         150.00       649.10
   71.61        2959.75           2282         120.00       518.32
   71.64        2960.00           2285         119.00       513.96
   71.67        2960.25           2289         154.00       666.54
   71.70        2960.50           2293         137.00       592.43
   71.73        2960.75           2296         137.00       592.43
   71.77        2961.00           2300         163.00       705.77
   71.80        2961.25           2303         364.00      1582.04
   71.83        2961.50           2307        1189.00      5179.20
   71.86        2961.75           2310        2168.00      9448.98
   71.89        2962.00           2314        3754.00     16368.74
   71.92        2962.25           2317        5142.00     22427.30
   71.95        2962.50           2321        6942.00     30287.93
   71.98        2962.75           2324        8515.00     37160.70
   72.01        2963.00           2328       10444.00     45593.30
   72.05        2963.25           2331       11741.00     51265.83
   72.08        2963.50           2335       13498.00     58953.71
   72.11        2963.75           2339       15476.00     67613.41
   72.14        2964.00           2342       16879.00     73758.85
   72.17        2964.25           2346       18750.00     81958.24
   72.20        2964.50           2349       20338.00     88921.01
   72.23        2964.75           2353       22133.00     96795.38
   72.26        2965.00           2356       23483.00    102720.40
   72.29        2965.25           2360       24880.00    108854.20
   72.32        2965.50           2363       26133.00    114357.90
   72.35        2965.75           2367       27999.00    122558.00
   72.38        2966.00           2370       29238.00    128005.30
   72.41        2966.25           2374       30682.00    134356.50
   72.44        2966.50           2378       31494.00    137929.10
   72.48        2966.75           2381       31645.00    138593.60
   72.51        2967.00           2385       31806.00    139302.10
   72.54        2967.25           2388       31828.00    139398.90
   72.57        2967.50           2392       31654.00    138633.20
   72.60        2967.75           2395       31339.00    137247.10
   72.63        2968.00           2399       30288.00    132623.30
   72.66        2968.25           2402       29046.00    127161.10
   72.69        2968.50           2406       27259.00    119305.60
   72.72        2968.75           2409       25826.00    113009.20
   72.75        2969.00           2413       24278.00    106210.70
   72.78        2969.25           2417       22602.00     98853.49
   72.81        2969.50           2420       21062.00     92096.56
   72.84        2969.75           2424       19184.00     83860.83
   72.87        2970.00           2427       17595.00     76896.07
   72.90        2970.25           2431       15770.00     68900.98
   72.93        2970.50           2434       14646.00     63979.04
   72.96        2970.75           2438       12924.00     56441.69
   72.99        2971.00           2441       11425.00     49883.58
   73.03        2971.25           2445        9596.00     41885.68
   73.06        2971.50           2449        7678.00     33503.27
   73.09        2971.75           2452        6356.00     27728.40
   73.12        2972.00           2456        4579.00     19969.53
   73.15        2972.25           2459        3275.00     14278.51
   73.18        2972.50           2463        1726.00      7521.10
   73.21        2972.75           2466         841.00      3661.75
   73.24        2973.00           2470         298.00      1294.30
   73.27        2973.25           2473         183.00       792.96
   73.30        2973.50           2477         147.00       636.02
   73.33        2973.75           2481         133.00       574.99
   73.36        2974.00           2484         146.00       631.66
   73.39        2974.25           2488         125.00       540.11
   73.42        2974.50           2491         126.00       544.47
   73.45        2974.75           2495         135.00       583.71
   73.48        2975.00           2498         110.00       474.72
   73.51        2975.25           2502         123.00       531.40
   73.55        2975.50           2505         112.00       483.44
   73.58        2975.75           2509         146.00       631.66
   73.61        2976.00           2512         117.00       505.24
   73.64        2976.25           2516         111.00       479.08
   73.67        2976.50           2520         131.00       566.27
   73.70        2976.75           2523         126.00       544.47
   73.73        2977.00           2527         112.00       483.44
   73.76        2977.25           2530         106.00       457.29
   73.79        2977.50           2534         108.00       466.01
   73.82        2977.75           2537         103.00       444.21
   73.85        2978.00           2541         104.00       448.57
   73.88        2978.25           2544         125.00       540.11
   73.91        2978.50           2548          96.00       413.69
   73.94        2978.75           2552          95.00       409.33
   73.97        2979.00           2555          95.00       409.33
   74.00        2979.25           2559          96.00       413.69
   74.03        2979.50           2562          99.00       426.77
   74.07        2979.75           2566         118.00       509.60
   74.10        2980.00           2569         115.00       496.52
   74.13        2980.25           2573         100.00       431.13
   74.16        2980.50           2577          96.00       413.69
   74.19        2980.75           2580          87.00       374.46
   74.22        2981.00           2584         110.00       474.72
   74.25        2981.25           2587         111.00       479.08
   74.28        2981.50           2591          89.00       383.18
   74.31        2981.75           2594          83.00       357.02
   74.34        2982.00           2598          86.00       370.10
   74.37        2982.25           2601          94.00       404.98
   74.40        2982.50           2605          91.00       391.90
   74.43        2982.75           2609          97.00       418.05
   74.46        2983.00           2612          90.00       387.54
   74.49        2983.25           2616          84.00       361.38
   74.52        2983.50           2619          87.00       374.46
   74.55        2983.75           2623          89.00       383.18
   74.59        2984.00           2626          86.00       370.10
HS scan finished at 01:14:48
end
************************************************************
  HS Scan of (1) Internal mercury lamp
************************************************************
Integration time is 0.2294 seconds per sample
dh060518Reading 51.44 .94 4.03pr1000
************************************************************
Dead Time -------------------------  3.4E-08 
Number of Cycles Used -------------  4 
Starting Wavelength (Angstroms) ---  2950 
Final Wavelength (Angstoms) -------  2984 
Wavelength Increment (Angstroms) --  .25 
Filter Wheel #1 Position ---------- (1) Ground quartz diffuser (ND=2.32)
Filter Wheel #2 Position ---------- (1) Neutral Density 0.494



************************************************************
HS scan start time = 20:37:25
Dark Count =  9.600001 


Time (GMT)  Wavelength (Ang)  Step Number  Raw Counts  Counts/Second

 1238.32        2950.00           2144          80.00       306.89
 1238.52        2950.25           2147          77.00       293.81
 1238.55        2950.50           2151          76.00       289.45
 1238.58        2950.75           2155          78.00       298.17
 1238.61        2951.00           2158          73.00       276.38
 1238.64        2951.25           2162          73.00       276.38
 1238.67        2951.50           2165          79.00       302.53
 1238.70        2951.75           2169          72.00       272.02
 1238.73        2952.00           2172          73.00       276.38
 1238.76        2952.25           2176          81.00       311.25
 1238.79        2952.50           2179          80.00       306.89
 1238.82        2952.75           2183          69.00       258.94
 1238.85        2953.00           2186          79.00       302.53
 1238.88        2953.25           2190          72.00       272.02
 1238.91        2953.50           2193          84.00       324.33
 1238.94        2953.75           2197          72.00       272.02
 1238.97        2954.00           2200          80.00       306.89
 1239.01        2954.25           2204          84.00       324.33
 1239.04        2954.50           2208          77.00       293.81
 1239.07        2954.75           2211          82.00       315.61
 1239.10        2955.00           2215          85.00       328.69
 1239.13        2955.25           2218          76.00       289.45
 1239.16        2955.50           2222          88.00       341.77
 1239.19        2955.75           2225          90.00       350.48
 1239.22        2956.00           2229          80.00       306.89
 1239.25        2956.25           2232          92.00       359.20
 1239.28        2956.50           2236          89.00       346.12
 1239.31        2956.75           2239          90.00       350.48
 1239.34        2957.00           2243          90.00       350.48
 1239.37        2957.25           2246          85.00       328.69
 1239.40        2957.50           2250          86.00       333.05
 1239.43        2957.75           2254          84.00       324.33
 1239.46        2958.00           2257          87.00       337.41
 1239.49        2958.25           2261         108.00       428.95
 1239.53        2958.50           2264          91.00       354.84
 1239.56        2958.75           2268          90.00       350.48
 1239.59        2959.00           2271         103.00       407.15
 1239.62        2959.25           2275          96.00       376.64
 1239.65        2959.50           2278         115.00       459.47
 1239.68        2959.75           2282         123.00       494.34
 1239.71        2960.00           2285         101.00       398.44
 1239.74        2960.25           2289         106.00       420.23
 1239.77        2960.50           2293         106.00       420.23
 1239.80        2960.75           2296         107.00       424.59
 1239.83        2961.00           2300         125.00       503.06
 1239.86        2961.25           2303         301.00      1270.33
 1239.89        2961.50           2307        1019.00      4400.83
 1239.92        2961.75           2310        1863.00      8081.56
 1239.95        2962.00           2314        3246.00     14114.88
 1239.98        2962.25           2317        4269.00     18579.30
 1240.01        2962.50           2321        5743.00     25014.29
 1240.05        2962.75           2324        6757.00     29442.71
 1240.08        2963.00           2328        8220.00     35834.40
 1240.11        2963.25           2331        9484.00     41358.91
 1240.14        2963.50           2335       10998.00     47978.82
 1240.17        2963.75           2339       12616.00     55056.77
 1240.20        2964.00           2342       13665.00     59647.44
 1240.23        2964.25           2346       15130.00     66061.03
 1240.26        2964.50           2349       16228.00     70869.78
 1240.29        2964.75           2353       17739.00     77489.86
 1240.33        2965.00           2356       19010.00     83060.75
 1240.36        2965.25           2360       20275.00     88607.43
 1240.39        2965.50           2363       21497.00     93967.58
 1240.42        2965.75           2367       22841.00     99865.10
 1240.45        2966.00           2370       23835.00    104228.30
 1240.48        2966.25           2374       24986.00    109282.40
 1240.51        2966.50           2378       25887.00    113239.90
 1240.54        2966.75           2381       25943.00    113485.90
 1240.57        2967.00           2385       26224.00    114720.40
 1240.60        2967.25           2388       25935.00    113450.70
 1240.63        2967.50           2392       25793.00    112826.90
 1240.66        2967.75           2395       25755.00    112660.00
 1240.69        2968.00           2399       25146.00    109985.10
 1240.72        2968.25           2402       24388.00    106656.40
 1240.75        2968.50           2406       23189.00    101392.50
 1240.78        2968.75           2409       21881.00     95652.34
 1240.81        2969.00           2413       20253.00     88510.96
 1240.85        2969.25           2417       19098.00     83446.54
 1240.88        2969.50           2420       17991.00     78594.22
 1240.91        2969.75           2424       16332.00     71325.35
 1240.94        2970.00           2427       14903.00     65067.07
 1240.97        2970.25           2431       13337.00     58211.88
 1241.00        2970.50           2434       12258.00     53490.40
 1241.03        2970.75           2438       10509.00     45840.35
 1241.06        2971.00           2441        9344.00     40746.92
 1241.09        2971.25           2445        7897.00     34423.01
 1241.12        2971.50           2449        6568.00     28617.19
 1241.15        2971.75           2452        5445.00     23713.10
 1241.18        2972.00           2456        3815.00     16597.86
 1241.21        2972.25           2459        2662.00     11566.89
 1241.24        2972.50           2463        1386.00      6001.23
 1241.27        2972.75           2466         682.00      2931.42
 1241.30        2973.00           2470         245.00      1026.19
 1241.33        2973.25           2473         139.00       564.09
 1241.36        2973.50           2477         158.00       646.92
 1241.40        2973.75           2481         125.00       503.06
 1241.43        2974.00           2484         125.00       503.06
 1241.46        2974.25           2488         109.00       433.31
 1241.49        2974.50           2491         120.00       481.26
 1241.52        2974.75           2495         112.00       446.39
 1241.55        2975.00           2498         101.00       398.44
 1241.58        2975.25           2502         103.00       407.15
 1241.61        2975.50           2505          99.00       389.72
 1241.64        2975.75           2509          98.00       385.36
 1241.67        2976.00           2512          90.00       350.48
 1241.70        2976.25           2516          88.00       341.77
 1241.73        2976.50           2520          94.00       367.92
 1241.76        2976.75           2523          96.00       376.64
 1241.79        2977.00           2527          94.00       367.92
 1241.82        2977.25           2530          93.00       363.56
 1241.85        2977.50           2534          93.00       363.56
 1241.88        2977.75           2537          94.00       367.92
 1241.92        2978.00           2541          93.00       363.56
 1241.95        2978.25           2544          94.00       367.92
 1241.98        2978.50           2548          84.00       324.33
 1242.01        2978.75           2552          85.00       328.69
 1242.04        2979.00           2555          92.00       359.20
 1242.07        2979.25           2559          83.00       319.97
 1242.10        2979.50           2562          96.00       376.64
 1242.13        2979.75           2566          87.00       337.41
 1242.16        2980.00           2569          74.00       280.74
 1242.19        2980.25           2573          84.00       324.33
 1242.22        2980.50           2577          82.00       315.61
 1242.25        2980.75           2580          91.00       354.84
 1242.28        2981.00           2584          77.00       293.81
 1242.31        2981.25           2587          81.00       311.25
 1242.34        2981.50           2591          85.00       328.69
 1242.37        2981.75           2594          81.00       311.25
 1242.40        2982.00           2598          79.00       302.53
 1242.44        2982.25           2601          77.00       293.81
 1242.47        2982.50           2605          80.00       306.89
 1242.50        2982.75           2609          80.00       306.89
 1242.53        2983.00           2612          74.00       280.74
 1242.56        2983.25           2616          76.00       289.45
 1242.59        2983.50           2619          74.00       280.74
 1242.62        2983.75           2623          75.00       285.09
 1242.65        2984.00           2626          75.00       285.09
HS scan finished at 20:42:52
end
