************************************************************
  HS Scan of (1) Internal mercury lamp
************************************************************
Integration time is 0.2294 seconds per sample
dh300418Reading 51.44 .94 2.82pr1000
************************************************************
Dead Time -------------------------  3.4E-08 
Number of Cycles Used -------------  4 
Starting Wavelength (Angstroms) ---  2950 
Final Wavelength (Angstoms) -------  2984 
Wavelength Increment (Angstroms) --  .25 
Filter Wheel #1 Position ---------- (1) Ground quartz diffuser (ND=2.32)
Filter Wheel #2 Position ---------- (1) Neutral Density 0.494



************************************************************
HS scan start time = 01:13:07
Dark Count =  .4 


Time (GMT)  Wavelength (Ang)  Step Number  Raw Counts  Counts/Second

   74.02        2950.00           2144          95.00       412.39
   74.22        2950.25           2147         103.00       447.26
   74.25        2950.50           2151          96.00       416.75
   74.28        2950.75           2155          93.00       403.67
   74.31        2951.00           2158         137.00       595.48
   74.34        2951.25           2162          98.00       425.46
   74.37        2951.50           2165          99.00       429.82
   74.40        2951.75           2169         102.00       442.90
   74.43        2952.00           2172         123.00       534.45
   74.46        2952.25           2176          98.00       425.46
   74.49        2952.50           2179         139.00       604.20
   74.52        2952.75           2183         100.00       434.18
   74.55        2953.00           2186         119.00       517.01
   74.58        2953.25           2190          97.00       421.10
   74.61        2953.50           2193         102.00       442.90
   74.64        2953.75           2197         102.00       442.90
   74.67        2954.00           2200         126.00       547.53
   74.71        2954.25           2204          99.00       429.82
   74.74        2954.50           2208         101.00       438.54
   74.77        2954.75           2211         103.00       447.26
   74.80        2955.00           2215         128.00       556.24
   74.83        2955.25           2218         142.00       617.28
   74.86        2955.50           2222         106.00       460.34
   74.89        2955.75           2225         106.00       460.34
   74.92        2956.00           2229         106.00       460.34
   74.95        2956.25           2232         120.00       521.37
   74.98        2956.50           2236         110.00       477.78
   75.01        2956.75           2239         126.00       547.53
   75.04        2957.00           2243         122.00       530.09
   75.07        2957.25           2246         118.00       512.65
   75.10        2957.50           2250         128.00       556.24
   75.13        2957.75           2254         113.00       490.85
   75.16        2958.00           2257         149.00       647.79
   75.19        2958.25           2261         119.00       517.01
   75.23        2958.50           2264         158.00       687.03
   75.26        2958.75           2268         146.00       634.71
   75.29        2959.00           2271         131.00       569.32
   75.32        2959.25           2275         141.00       612.92
   75.35        2959.50           2278         134.00       582.40
   75.38        2959.75           2282         156.00       678.31
   75.41        2960.00           2285         148.00       643.43
   75.44        2960.25           2289         153.00       665.23
   75.47        2960.50           2293         147.00       639.07
   75.50        2960.75           2296         153.00       665.23
   75.53        2961.00           2300         177.00       769.85
   75.56        2961.25           2303         368.00      1602.53
   75.59        2961.50           2307        1107.00      4824.68
   75.62        2961.75           2310        2241.00      9770.47
   75.65        2962.00           2314        4050.00     17663.61
   75.68        2962.25           2317        5506.00     24019.61
   75.71        2962.50           2321        7285.00     31789.36
   75.74        2962.75           2324        8642.00     37718.79
   75.78        2963.00           2328       10447.00     45609.47
   75.81        2963.25           2331       11811.00     51575.11
   75.84        2963.50           2335       13831.00     60414.30
   75.87        2963.75           2339       15937.00     69635.47
   75.90        2964.00           2342       17470.00     76351.40
   75.93        2964.25           2346       19492.00     85214.28
   75.96        2964.50           2349       21157.00     92516.36
   75.99        2964.75           2353       23325.00    102029.90
   76.02        2965.00           2356       24649.00    107842.80
   76.05        2965.25           2360       26200.00    114655.30
   76.08        2965.50           2363       27675.00    121137.00
   76.11        2965.75           2367       29590.00    129556.40
   76.14        2966.00           2370       31339.00    137250.10
   76.17        2966.25           2374       33025.00    144670.60
   76.20        2966.50           2378       33496.00    146744.30
   76.23        2966.75           2381       33958.00    148778.60
   76.26        2967.00           2385       34023.00    149064.80
   76.30        2967.25           2388       33931.00    148659.70
   76.33        2967.50           2392       33810.00    148126.90
   76.36        2967.75           2395       33358.00    146136.70
   76.39        2968.00           2399       32036.00    140317.40
   76.42        2968.25           2402       30904.00    135336.20
   76.45        2968.50           2406       29194.00    127814.90
   76.48        2968.75           2409       27649.00    121022.70
   76.51        2969.00           2413       25756.00    112704.80
   76.54        2969.25           2417       23732.00    103816.50
   76.57        2969.50           2420       22308.00     97566.35
   76.60        2969.75           2424       20290.00     88713.56
   76.63        2970.00           2427       18688.00     81689.52
   76.66        2970.25           2431       16575.00     72430.11
   76.69        2970.50           2434       15293.00     66815.08
   76.72        2970.75           2438       13456.00     58772.96
   76.75        2971.00           2441       11634.00     50800.84
   76.79        2971.25           2445        9697.00     42330.28
   76.82        2971.50           2449        7836.00     34196.67
   76.85        2971.75           2452        6314.00     27548.02
   76.88        2972.00           2456        4522.00     19723.77
   76.91        2972.25           2459        3142.00     13701.24
   76.94        2972.50           2463        1591.00      6935.38
   76.97        2972.75           2466         658.00      2866.89
   77.00        2973.00           2470         239.00      1040.14
   77.03        2973.25           2473         168.00       730.62
   77.06        2973.50           2477         147.00       639.07
   77.09        2973.75           2481         143.00       621.63
   77.12        2974.00           2484         137.00       595.48
   77.15        2974.25           2488         135.00       586.76
   77.18        2974.50           2491         163.00       708.82
   77.21        2974.75           2495         140.00       608.56
   77.24        2975.00           2498         130.00       564.96
   77.27        2975.25           2502         123.00       534.45
   77.30        2975.50           2505         134.00       582.40
   77.34        2975.75           2509         118.00       512.65
   77.37        2976.00           2512         137.00       595.48
   77.40        2976.25           2516         134.00       582.40
   77.43        2976.50           2520         139.00       604.20
   77.46        2976.75           2523         181.00       787.29
   77.49        2977.00           2527         111.00       482.14
   77.52        2977.25           2530         122.00       530.09
   77.55        2977.50           2534         132.00       573.68
   77.58        2977.75           2537         114.00       495.21
   77.61        2978.00           2541         114.00       495.21
   77.64        2978.25           2544         105.00       455.98
   77.67        2978.50           2548         126.00       547.53
   77.70        2978.75           2552         120.00       521.37
   77.73        2979.00           2555         107.00       464.70
   77.76        2979.25           2559         108.00       469.06
   77.79        2979.50           2562         145.00       630.35
   77.82        2979.75           2566         119.00       517.01
   77.86        2980.00           2569         126.00       547.53
   77.89        2980.25           2573         105.00       455.98
   77.92        2980.50           2577         117.00       508.29
   77.95        2980.75           2580          95.00       412.39
   77.98        2981.00           2584         118.00       512.65
   78.01        2981.25           2587         103.00       447.26
   78.04        2981.50           2591         100.00       434.18
   78.07        2981.75           2594          92.00       399.31
   78.10        2982.00           2598         106.00       460.34
   78.13        2982.25           2601          94.00       408.03
   78.16        2982.50           2605          92.00       399.31
   78.19        2982.75           2609          92.00       399.31
   78.22        2983.00           2612          88.00       381.87
   78.25        2983.25           2616          92.00       399.31
   78.28        2983.50           2619         141.00       612.92
   78.31        2983.75           2623          99.00       429.82
   78.34        2984.00           2626         122.00       530.09
HS scan finished at 01:18:34
end
************************************************************
  HS Scan of (1) Internal mercury lamp
************************************************************
Integration time is 0.2294 seconds per sample
dh300418Reading 51.44 .94 3.01pr1000
************************************************************
Dead Time -------------------------  3.4E-08 
Number of Cycles Used -------------  4 
Starting Wavelength (Angstroms) ---  2950 
Final Wavelength (Angstoms) -------  2984 
Wavelength Increment (Angstroms) --  .25 
Filter Wheel #1 Position ---------- (1) Ground quartz diffuser (ND=2.32)
Filter Wheel #2 Position ---------- (1) Neutral Density 0.494



************************************************************
HS scan start time = 20:07:27
Dark Count =  .9 


Time (GMT)  Wavelength (Ang)  Step Number  Raw Counts  Counts/Second

 1208.34        2950.00           2144          98.00       423.28
 1208.54        2950.25           2147          94.00       405.85
 1208.57        2950.50           2151          96.00       414.57
 1208.60        2950.75           2155         111.00       479.96
 1208.63        2951.00           2158         105.00       453.80
 1208.66        2951.25           2162         104.00       449.44
 1208.69        2951.50           2165         104.00       449.44
 1208.72        2951.75           2169         123.00       532.27
 1208.75        2952.00           2172         135.00       584.58
 1208.78        2952.25           2176          99.00       427.64
 1208.81        2952.50           2179         107.00       462.52
 1208.84        2952.75           2183         126.00       545.35
 1208.87        2953.00           2186         108.00       466.88
 1208.90        2953.25           2190         122.00       527.91
 1208.93        2953.50           2193         123.00       532.27
 1208.96        2953.75           2197         115.00       497.39
 1208.99        2954.00           2200         103.00       445.08
 1209.02        2954.25           2204         107.00       462.52
 1209.05        2954.50           2208         107.00       462.52
 1209.09        2954.75           2211         123.00       532.27
 1209.12        2955.00           2215         131.00       567.14
 1209.15        2955.25           2218         106.00       458.16
 1209.18        2955.50           2222         122.00       527.91
 1209.21        2955.75           2225         105.00       453.80
 1209.24        2956.00           2229         114.00       493.03
 1209.27        2956.25           2232         139.00       602.02
 1209.30        2956.50           2236         149.00       645.61
 1209.33        2956.75           2239         111.00       479.96
 1209.36        2957.00           2243         150.00       649.97
 1209.39        2957.25           2246         125.00       540.99
 1209.42        2957.50           2250         111.00       479.96
 1209.45        2957.75           2254         118.00       510.47
 1209.48        2958.00           2257         129.00       558.42
 1209.51        2958.25           2261         137.00       593.30
 1209.54        2958.50           2264         122.00       527.91
 1209.57        2958.75           2268         121.00       523.55
 1209.61        2959.00           2271         131.00       567.14
 1209.64        2959.25           2275         129.00       558.42
 1209.67        2959.50           2278         127.00       549.71
 1209.70        2959.75           2282         154.00       667.41
 1209.73        2960.00           2285         151.00       654.33
 1209.76        2960.25           2289         141.00       610.74
 1209.79        2960.50           2293         135.00       584.58
 1209.82        2960.75           2296         175.00       758.96
 1209.85        2961.00           2300         263.00      1142.59
 1209.88        2961.25           2303         647.00      2816.75
 1209.91        2961.50           2307        1944.00      8472.80
 1209.94        2961.75           2310        3209.00     13991.40
 1209.97        2962.00           2314        5019.00     21891.18
 1210.00        2962.25           2317        6402.00     27930.18
 1210.03        2962.50           2321        8337.00     36383.69
 1210.06        2962.75           2324        9837.00     42940.15
 1210.10        2963.00           2328       11919.00     52045.37
 1210.13        2963.25           2331       13441.00     58705.11
 1210.16        2963.50           2335       15420.00     67369.05
 1210.19        2963.75           2339       17314.00     75665.65
 1210.22        2964.00           2342       18689.00     81691.71
 1210.25        2964.25           2346       20802.00     90956.96
 1210.28        2964.50           2349       22310.00     97572.94
 1210.31        2964.75           2353       24272.00    106185.20
 1210.34        2965.00           2356       25377.00    111037.90
 1210.37        2965.25           2360       27149.00    118823.00
 1210.40        2965.50           2363       28716.00    125711.00
 1210.43        2965.75           2367       30778.00    134779.70
 1210.46        2966.00           2370       32096.00    140579.20
 1210.49        2966.25           2374       33351.00    146103.70
 1210.52        2966.50           2378       34024.00    149067.10
 1210.55        2966.75           2381       34110.00    149445.80
 1210.58        2967.00           2385       34149.00    149617.50
 1210.62        2967.25           2388       34285.00    150216.40
 1210.65        2967.50           2392       34055.00    149203.60
 1210.68        2967.75           2395       33714.00    147702.00
 1210.71        2968.00           2399       32596.00    142780.00
 1210.74        2968.25           2402       31233.00    136781.60
 1210.77        2968.50           2406       29558.00    129413.40
 1210.80        2968.75           2409       27938.00    122290.80
 1210.83        2969.00           2413       26190.00    114609.20
 1210.86        2969.25           2417       24164.00    105711.00
 1210.89        2969.50           2420       22534.00     98555.94
 1210.92        2969.75           2424       20423.00     89294.68
 1210.95        2970.00           2427       18641.00     81481.31
 1210.98        2970.25           2431       16660.00     72800.28
 1211.01        2970.50           2434       15028.00     65652.49
 1211.04        2970.75           2438       12811.00     55948.09
 1211.07        2971.00           2441       11312.00     49390.20
 1211.10        2971.25           2445        9424.00     41134.65
 1211.14        2971.50           2449        7384.00     32219.67
 1211.17        2971.75           2452        5848.00     25510.79
 1211.20        2972.00           2456        3841.00     16749.29
 1211.23        2972.25           2459        2585.00     11268.92
 1211.26        2972.50           2463        1269.00      5528.94
 1211.29        2972.75           2466         572.00      2489.75
 1211.32        2973.00           2470         219.00       950.77
 1211.35        2973.25           2473         154.00       667.41
 1211.38        2973.50           2477         155.00       671.77
 1211.41        2973.75           2481         156.00       676.13
 1211.44        2974.00           2484         145.00       628.17
 1211.47        2974.25           2488         147.00       636.89
 1211.50        2974.50           2491         136.00       588.94
 1211.53        2974.75           2495         148.00       641.25
 1211.56        2975.00           2498         139.00       602.02
 1211.59        2975.25           2502         136.00       588.94
 1211.62        2975.50           2505         150.00       649.97
 1211.65        2975.75           2509         144.00       623.81
 1211.69        2976.00           2512         134.00       580.22
 1211.72        2976.25           2516         118.00       510.47
 1211.75        2976.50           2520         120.00       519.19
 1211.78        2976.75           2523         154.00       667.41
 1211.81        2977.00           2527         131.00       567.14
 1211.84        2977.25           2530         118.00       510.47
 1211.87        2977.50           2534         113.00       488.67
 1211.90        2977.75           2537         129.00       558.42
 1211.93        2978.00           2541         150.00       649.97
 1211.96        2978.25           2544         156.00       676.13
 1212.00        2978.50           2548         121.00       523.55
 1212.03        2978.75           2552         110.00       475.60
 1212.06        2979.00           2555         104.00       449.44
 1212.09        2979.25           2559          98.00       423.28
 1212.12        2979.50           2562         137.00       593.30
 1212.15        2979.75           2566         108.00       466.88
 1212.18        2980.00           2569         158.00       684.85
 1212.21        2980.25           2573         123.00       532.27
 1212.24        2980.50           2577         108.00       466.88
 1212.27        2980.75           2580         119.00       514.83
 1212.30        2981.00           2584         105.00       453.80
 1212.33        2981.25           2587         105.00       453.80
 1212.36        2981.50           2591         124.00       536.63
 1212.39        2981.75           2594          96.00       414.57
 1212.42        2982.00           2598         116.00       501.75
 1212.45        2982.25           2601         104.00       449.44
 1212.48        2982.50           2605         102.00       440.72
 1212.52        2982.75           2609          96.00       414.57
 1212.55        2983.00           2612          98.00       423.28
 1212.58        2983.25           2616          98.00       423.28
 1212.61        2983.50           2619         100.00       432.00
 1212.64        2983.75           2623         109.00       471.24
 1212.67        2984.00           2626          96.00       414.57
HS scan finished at 20:12:54
end
