************************************************************
  HS Scan of (1) Internal mercury lamp
************************************************************
Integration time is 0.2294 seconds per sample
dh010518Reading 51.44 .94 2.72pr1000
************************************************************
Dead Time -------------------------  3.4E-08 
Number of Cycles Used -------------  4 
Starting Wavelength (Angstroms) ---  2950 
Final Wavelength (Angstoms) -------  2984 
Wavelength Increment (Angstroms) --  .25 
Filter Wheel #1 Position ---------- (1) Ground quartz diffuser (ND=2.32)
Filter Wheel #2 Position ---------- (1) Neutral Density 0.494



************************************************************
HS scan start time = 01:13:08
Dark Count =  .4 


Time (GMT)  Wavelength (Ang)  Step Number  Raw Counts  Counts/Second

   74.04        2950.00           2144          94.00       408.03
   74.23        2950.25           2147         107.00       464.70
   74.26        2950.50           2151          97.00       421.10
   74.29        2950.75           2155          96.00       416.75
   74.32        2951.00           2158         102.00       442.90
   74.35        2951.25           2162         140.00       608.56
   74.38        2951.50           2165         101.00       438.54
   74.41        2951.75           2169         130.00       564.96
   74.44        2952.00           2172         105.00       455.98
   74.48        2952.25           2176         121.00       525.73
   74.51        2952.50           2179         102.00       442.90
   74.54        2952.75           2183         100.00       434.18
   74.57        2953.00           2186         103.00       447.26
   74.60        2953.25           2190         126.00       547.53
   74.63        2953.50           2193         105.00       455.98
   74.66        2953.75           2197         100.00       434.18
   74.69        2954.00           2200         103.00       447.26
   74.72        2954.25           2204         118.00       512.65
   74.75        2954.50           2208         109.00       473.42
   74.78        2954.75           2211         107.00       464.70
   74.81        2955.00           2215         100.00       434.18
   74.84        2955.25           2218         148.00       643.43
   74.87        2955.50           2222         107.00       464.70
   74.90        2955.75           2225         131.00       569.32
   74.93        2956.00           2229         109.00       473.42
   74.96        2956.25           2232         146.00       634.71
   75.00        2956.50           2236         139.00       604.20
   75.03        2956.75           2239         121.00       525.73
   75.06        2957.00           2243         119.00       517.01
   75.09        2957.25           2246         135.00       586.76
   75.12        2957.50           2250         126.00       547.53
   75.15        2957.75           2254         115.00       499.57
   75.18        2958.00           2257         122.00       530.09
   75.21        2958.25           2261         125.00       543.17
   75.24        2958.50           2264         133.00       578.04
   75.27        2958.75           2268         143.00       621.63
   75.30        2959.00           2271         126.00       547.53
   75.33        2959.25           2275         138.00       599.84
   75.36        2959.50           2278         140.00       608.56
   75.39        2959.75           2282         140.00       608.56
   75.42        2960.00           2285         157.00       682.67
   75.45        2960.25           2289         141.00       612.92
   75.48        2960.50           2293         141.00       612.92
   75.52        2960.75           2296         157.00       682.67
   75.55        2961.00           2300         172.00       748.06
   75.58        2961.25           2303         368.00      1602.53
   75.61        2961.50           2307        1312.00      5718.64
   75.64        2961.75           2310        2562.00     11170.77
   75.67        2962.00           2314        4321.00     18846.42
   75.70        2962.25           2317        5745.00     25063.20
   75.73        2962.50           2321        7441.00     32470.88
   75.76        2962.75           2324        8878.00     38750.24
   75.79        2963.00           2328       10668.00     46575.88
   75.82        2963.25           2331       12184.00     53206.89
   75.85        2963.50           2335       14101.00     61596.17
   75.88        2963.75           2339       16052.00     70139.16
   75.91        2964.00           2342       17668.00     77219.03
   75.94        2964.25           2346       19759.00     86384.99
   75.97        2964.50           2349       21252.00     92933.11
   76.00        2964.75           2353       23099.00    101037.90
   76.04        2965.00           2356       24484.00    107118.30
   76.07        2965.25           2360       26246.00    114857.40
   76.10        2965.50           2363       27788.00    121633.60
   76.13        2965.75           2367       29923.00    131020.90
   76.16        2966.00           2370       30717.00    134513.50
   76.19        2966.25           2374       32404.00    141937.00
   76.22        2966.50           2378       33675.00    147532.40
   76.25        2966.75           2381       33852.00    148311.80
   76.28        2967.00           2385       33869.00    148386.70
   76.31        2967.25           2388       34175.00    149734.20
   76.34        2967.50           2392       34065.00    149249.80
   76.37        2967.75           2395       33641.00    147382.70
   76.40        2968.00           2399       32607.00    142830.60
   76.43        2968.25           2402       31087.00    136141.40
   76.46        2968.50           2406       29343.00    128470.10
   76.49        2968.75           2409       28147.00    123211.70
   76.52        2969.00           2413       26299.00    115090.30
   76.56        2969.25           2417       24152.00    105660.50
   76.59        2969.50           2420       22655.00     99089.16
   76.62        2969.75           2424       20425.00     89305.63
   76.65        2970.00           2427       18876.00     82513.65
   76.68        2970.25           2431       16897.00     73840.78
   76.71        2970.50           2434       15473.00     67603.34
   76.74        2970.75           2438       13368.00     58387.81
   76.77        2971.00           2441       11670.00     50958.31
   76.80        2971.25           2445        9748.00     42553.24
   76.83        2971.50           2449        7823.00     34139.87
   76.86        2971.75           2452        6448.00     28133.26
   76.89        2972.00           2456        4751.00     20723.40
   76.92        2972.25           2459        3332.00     14530.28
   76.95        2972.50           2463        1528.00      6660.62
   76.98        2972.75           2466         680.00      2962.81
   77.01        2973.00           2470         225.00       979.11
   77.04        2973.25           2473         177.00       769.85
   77.08        2973.50           2477         167.00       726.26
   77.11        2973.75           2481         155.00       673.95
   77.14        2974.00           2484         151.00       656.51
   77.17        2974.25           2488         151.00       656.51
   77.20        2974.50           2491         134.00       582.40
   77.23        2974.75           2495         139.00       604.20
   77.26        2975.00           2498         138.00       599.84
   77.29        2975.25           2502         139.00       604.20
   77.32        2975.50           2505         136.00       591.12
   77.35        2975.75           2509         129.00       560.60
   77.38        2976.00           2512         156.00       678.31
   77.41        2976.25           2516         132.00       573.68
   77.44        2976.50           2520         119.00       517.01
   77.47        2976.75           2523         125.00       543.17
   77.50        2977.00           2527         120.00       521.37
   77.53        2977.25           2530         136.00       591.12
   77.56        2977.50           2534         112.00       486.49
   77.60        2977.75           2537         115.00       499.57
   77.63        2978.00           2541         147.00       639.07
   77.66        2978.25           2544         123.00       534.45
   77.69        2978.50           2548         127.00       551.88
   77.72        2978.75           2552         144.00       625.99
   77.75        2979.00           2555         127.00       551.88
   77.78        2979.25           2559         110.00       477.78
   77.81        2979.50           2562         109.00       473.42
   77.84        2979.75           2566         105.00       455.98
   77.87        2980.00           2569         107.00       464.70
   77.90        2980.25           2573         124.00       538.81
   77.93        2980.50           2577         109.00       473.42
   77.96        2980.75           2580         105.00       455.98
   77.99        2981.00           2584         115.00       499.57
   78.02        2981.25           2587         159.00       691.39
   78.05        2981.50           2591         102.00       442.90
   78.08        2981.75           2594         114.00       495.21
   78.12        2982.00           2598         101.00       438.54
   78.15        2982.25           2601         101.00       438.54
   78.18        2982.50           2605          99.00       429.82
   78.21        2982.75           2609          96.00       416.75
   78.24        2983.00           2612         104.00       451.62
   78.27        2983.25           2616         111.00       482.14
   78.30        2983.50           2619         123.00       534.45
   78.33        2983.75           2623          99.00       429.82
   78.36        2984.00           2626          92.00       399.31
HS scan finished at 01:18:35
end
************************************************************
  HS Scan of (1) Internal mercury lamp
************************************************************
Integration time is 0.2294 seconds per sample
dh010518Reading 51.44 .94 3.07pr1000
************************************************************
Dead Time -------------------------  3.4E-08 
Number of Cycles Used -------------  4 
Starting Wavelength (Angstroms) ---  2950 
Final Wavelength (Angstoms) -------  2984 
Wavelength Increment (Angstroms) --  .25 
Filter Wheel #1 Position ---------- (1) Ground quartz diffuser (ND=2.32)
Filter Wheel #2 Position ---------- (1) Neutral Density 0.494



************************************************************
HS scan start time = 20:08:40
Dark Count =  .7 


Time (GMT)  Wavelength (Ang)  Step Number  Raw Counts  Counts/Second

 1209.56        2950.00           2144          78.00       336.97
 1209.75        2950.25           2147          78.00       336.97
 1209.78        2950.50           2151          76.00       328.25
 1209.81        2950.75           2155          80.00       345.69
 1209.84        2951.00           2158          88.00       380.56
 1209.88        2951.25           2162          89.00       384.92
 1209.91        2951.50           2165          91.00       393.64
 1209.94        2951.75           2169          85.00       367.49
 1209.97        2952.00           2172          89.00       384.92
 1210.00        2952.25           2176         101.00       437.23
 1210.03        2952.50           2179          81.00       350.05
 1210.06        2952.75           2183          89.00       384.92
 1210.09        2953.00           2186          86.00       371.84
 1210.12        2953.25           2190          81.00       350.05
 1210.15        2953.50           2193          87.00       376.20
 1210.18        2953.75           2197          85.00       367.49
 1210.21        2954.00           2200          92.00       398.00
 1210.24        2954.25           2204          88.00       380.56
 1210.27        2954.50           2208          87.00       376.20
 1210.30        2954.75           2211          94.00       406.72
 1210.33        2955.00           2215          89.00       384.92
 1210.37        2955.25           2218          89.00       384.92
 1210.40        2955.50           2222         111.00       480.83
 1210.43        2955.75           2225          86.00       371.84
 1210.46        2956.00           2229          94.00       406.72
 1210.50        2956.25           2232          98.00       424.16
 1210.53        2956.50           2236         117.00       506.98
 1210.56        2956.75           2239          97.00       419.80
 1210.59        2957.00           2243          94.00       406.72
 1210.62        2957.25           2246          97.00       419.80
 1210.66        2957.50           2250          97.00       419.80
 1210.69        2957.75           2254         115.00       498.26
 1210.72        2958.00           2257          95.00       411.08
 1210.75        2958.25           2261         138.00       598.53
 1210.78        2958.50           2264         124.00       537.50
 1210.81        2958.75           2268          95.00       411.08
 1210.84        2959.00           2271         102.00       441.59
 1210.87        2959.25           2275         110.00       476.47
 1210.90        2959.50           2278         106.00       459.03
 1210.93        2959.75           2282         132.00       572.37
 1210.96        2960.00           2285         111.00       480.83
 1210.99        2960.25           2289         140.00       607.25
 1211.02        2960.50           2293         117.00       506.98
 1211.05        2960.75           2296         138.00       598.53
 1211.08        2961.00           2300         164.00       711.87
 1211.11        2961.25           2303         341.00      1483.51
 1211.14        2961.50           2307        1212.00      5281.24
 1211.18        2961.75           2310        2132.00      9293.70
 1211.21        2962.00           2314        3547.00     15467.16
 1211.24        2962.25           2317        4655.00     20303.03
 1211.27        2962.50           2321        6307.00     27516.14
 1211.30        2962.75           2324        7631.00     33299.67
 1211.33        2963.00           2328        9323.00     40694.01
 1211.36        2963.25           2331       10578.00     46181.00
 1211.39        2963.50           2335       12060.00     52663.09
 1211.42        2963.75           2339       13745.00     60036.55
 1211.45        2964.00           2342       15171.00     66279.54
 1211.48        2964.25           2346       16969.00     74154.91
 1211.51        2964.50           2349       18284.00     79917.38
 1211.54        2964.75           2353       19723.00     86225.83
 1211.57        2965.00           2356       20803.00     90962.24
 1211.60        2965.25           2360       22419.00     98052.15
 1211.63        2965.50           2363       23643.00    103424.50
 1211.66        2965.75           2367       25304.00    110718.10
 1211.70        2966.00           2370       26296.00    115075.80
 1211.73        2966.25           2374       28012.00    122616.90
 1211.76        2966.50           2378       28565.00    125048.00
 1211.79        2966.75           2381       28692.00    125606.30
 1211.82        2967.00           2385       28672.00    125518.40
 1211.85        2967.25           2388       28786.00    126019.60
 1211.88        2967.50           2392       28820.00    126169.10
 1211.91        2967.75           2395       28739.00    125813.00
 1211.94        2968.00           2399       27520.00    120454.40
 1211.97        2968.25           2402       26349.00    115308.60
 1212.00        2968.50           2406       24971.00    109255.60
 1212.03        2968.75           2409       23990.00    104947.90
 1212.06        2969.00           2413       22490.00     98363.74
 1212.09        2969.25           2417       20849.00     91164.00
 1212.12        2969.50           2420       19544.00     85440.96
 1212.15        2969.75           2424       17938.00     78400.96
 1212.18        2970.00           2427       16653.00     72770.51
 1212.22        2970.25           2431       14801.00     64659.43
 1212.25        2970.50           2434       13613.00     59458.80
 1212.28        2970.75           2438       11844.00     51718.15
 1212.31        2971.00           2441       10581.00     46194.12
 1212.34        2971.25           2445        8814.00     38469.20
 1212.37        2971.50           2449        6963.00     30381.41
 1212.40        2971.75           2452        5657.00     24677.63
 1212.43        2972.00           2456        3984.00     17374.25
 1212.46        2972.25           2459        2951.00     12866.57
 1212.49        2972.50           2463        1553.00      6768.34
 1212.52        2972.75           2466         767.00      3340.83
 1212.55        2973.00           2470         251.00      1091.15
 1212.58        2973.25           2473         146.00       633.41
 1212.62        2973.50           2477         126.00       546.22
 1212.66        2973.75           2481         141.00       611.61
 1212.69        2974.00           2484         121.00       524.42
 1212.72        2974.25           2488         111.00       480.83
 1212.75        2974.50           2491         139.00       602.89
 1212.78        2974.75           2495         103.00       445.95
 1212.81        2975.00           2498         102.00       441.59
 1212.84        2975.25           2502         107.00       463.39
 1212.87        2975.50           2505         124.00       537.50
 1212.90        2975.75           2509         131.00       568.01
 1212.93        2976.00           2512         123.00       533.14
 1212.96        2976.25           2516         117.00       506.98
 1213.00        2976.50           2520          94.00       406.72
 1213.03        2976.75           2523          92.00       398.00
 1213.06        2977.00           2527          94.00       406.72
 1213.09        2977.25           2530         120.00       520.06
 1213.12        2977.50           2534          97.00       419.80
 1213.15        2977.75           2537          94.00       406.72
 1213.18        2978.00           2541          95.00       411.08
 1213.21        2978.25           2544          90.00       389.28
 1213.24        2978.50           2548         108.00       467.75
 1213.27        2978.75           2552         125.00       541.86
 1213.30        2979.00           2555          92.00       398.00
 1213.33        2979.25           2559          98.00       424.16
 1213.36        2979.50           2562          87.00       376.20
 1213.39        2979.75           2566          80.00       345.69
 1213.42        2980.00           2569          96.00       415.44
 1213.45        2980.25           2573          92.00       398.00
 1213.48        2980.50           2577          84.00       363.13
 1213.51        2980.75           2580          95.00       411.08
 1213.55        2981.00           2584          86.00       371.84
 1213.58        2981.25           2587          85.00       367.49
 1213.61        2981.50           2591          75.00       323.89
 1213.64        2981.75           2594          90.00       389.28
 1213.67        2982.00           2598          91.00       393.64
 1213.70        2982.25           2601          86.00       371.84
 1213.73        2982.50           2605          78.00       336.97
 1213.76        2982.75           2609          78.00       336.97
 1213.79        2983.00           2612          74.00       319.53
 1213.82        2983.25           2616          77.00       332.61
 1213.85        2983.50           2619          78.00       336.97
 1213.88        2983.75           2623          76.00       328.25
 1213.91        2984.00           2626          80.00       345.69
HS scan finished at 20:14:08
end
