************************************************************
  HS Scan of 
************************************************************
Integration time is 0.2294 seconds per sample
dh030517Reading 51.44 .94 3.09pr1000
************************************************************
Dead Time -------------------------  3.4E-08 
Number of Cycles Used -------------  4 
Starting Wavelength (Angstroms) ---  2950 
Final Wavelength (Angstoms) -------  2984 
Wavelength Increment (Angstroms) --  .25 
Filter Wheel #1 Position ---------- (1) Ground quartz diffuser (ND=2.32)
Filter Wheel #2 Position ---------- (1) Neutral Density 0.494



************************************************************
HS scan start time = 01:26:45
Dark Count =  1.1 


Time (GMT)  Wavelength (Ang)  Step Number  Raw Counts  Counts/Second

   87.64        2950.00           2144         507.00      2205.48
   87.83        2950.25           2147         495.00      2153.17
   87.86        2950.50           2151         518.00      2253.44
   87.89        2950.75           2155         530.00      2305.76
   87.93        2951.00           2158         528.00      2297.04
   87.96        2951.25           2162         515.00      2240.36
   87.99        2951.50           2165         516.00      2244.72
   88.02        2951.75           2169         525.00      2283.96
   88.05        2952.00           2172         538.00      2340.64
   88.08        2952.25           2176         517.00      2249.08
   88.11        2952.50           2179         542.00      2358.08
   88.14        2952.75           2183         530.00      2305.76
   88.17        2953.00           2186         519.00      2257.80
   88.20        2953.25           2190         548.00      2384.24
   88.23        2953.50           2193         533.00      2318.84
   88.26        2953.75           2197         535.00      2327.56
   88.29        2954.00           2200         566.00      2462.72
   88.32        2954.25           2204         571.00      2484.52
   88.35        2954.50           2208         563.00      2449.64
   88.38        2954.75           2211         533.00      2318.84
   88.41        2955.00           2215         562.00      2445.28
   88.45        2955.25           2218         582.00      2532.48
   88.48        2955.50           2222         577.00      2510.68
   88.51        2955.75           2225         563.00      2449.64
   88.54        2956.00           2229         571.00      2484.52
   88.57        2956.25           2232         606.00      2637.12
   88.60        2956.50           2236         584.00      2541.20
   88.63        2956.75           2239         618.00      2689.44
   88.66        2957.00           2243         627.00      2728.68
   88.69        2957.25           2246         602.00      2619.68
   88.72        2957.50           2250         610.00      2654.56
   88.75        2957.75           2254         626.00      2724.32
   88.78        2958.00           2257         656.00      2855.12
   88.81        2958.25           2261         656.00      2855.12
   88.84        2958.50           2264         659.00      2868.20
   88.87        2958.75           2268         644.00      2802.80
   88.90        2959.00           2271         643.00      2798.44
   88.93        2959.25           2275         671.00      2920.52
   88.97        2959.50           2278         669.00      2911.80
   89.00        2959.75           2282         687.00      2990.28
   89.03        2960.00           2285         735.00      3199.56
   89.06        2960.25           2289         750.00      3264.97
   89.09        2960.50           2293         752.00      3273.69
   89.12        2960.75           2296         778.00      3387.05
   89.15        2961.00           2300         827.00      3600.70
   89.18        2961.25           2303        1269.00      5528.07
   89.21        2961.50           2307        5114.00     22305.05
   89.24        2961.75           2310       11022.00     48120.96
   89.27        2962.00           2314       21063.00     92100.96
   89.30        2962.25           2317       28493.00    124729.70
   89.33        2962.50           2321       37891.00    166105.00
   89.36        2962.75           2324       45595.00    200109.70
   89.39        2963.00           2328       56218.00    247128.40
   89.42        2963.25           2331       64262.00    282832.80
   89.45        2963.50           2335       75395.00    332392.30
   89.49        2963.75           2339       87333.00    385722.60
   89.52        2964.00           2342       95768.00    423521.80
   89.55        2964.25           2346      107792.00    477573.90
   89.58        2964.50           2349      115199.00    510970.90
   89.61        2964.75           2353      125100.00    555732.80
   89.64        2965.00           2356      132416.00    588896.80
   89.67        2965.25           2360      143898.00    641098.20
   89.70        2965.50           2363      152185.00    678890.70
   89.73        2965.75           2367      162631.00    726669.60
   89.76        2966.00           2370      169913.00    760070.00
   89.79        2966.25           2374      179685.00    805012.50
   89.82        2966.50           2378      186357.00    835778.00
   89.85        2966.75           2381      188159.00    844098.20
   89.88        2967.00           2385      188685.00    846527.90
   89.91        2967.25           2388      188567.00    845982.90
   89.94        2967.50           2392      187159.00    839480.40
   89.97        2967.75           2395      186963.00    838575.50
   90.01        2968.00           2399      181950.00    815449.40
   90.04        2968.25           2402      175406.00    785315.80
   90.07        2968.50           2406      167191.00    747576.10
   90.10        2968.75           2409      159738.00    713421.60
   90.13        2969.00           2413      149293.00    665690.60
   90.16        2969.25           2417      137853.00    613592.00
   90.19        2969.50           2420      129439.00    575392.60
   90.22        2969.75           2424      118023.00    523724.10
   90.25        2970.00           2427      110000.00    487521.40
   90.28        2970.25           2431       98992.00    437995.20
   90.31        2970.50           2434       90695.00    400776.80
   90.34        2970.75           2438       78688.00    347083.60
   90.37        2971.00           2441       70549.00    310799.20
   90.40        2971.25           2445       59134.00    260061.40
   90.43        2971.50           2449       48299.00    212063.60
   90.46        2971.75           2452       40862.00    179209.40
   90.49        2972.00           2456       31463.00    137792.70
   90.53        2972.25           2459       23422.00    102452.60
   90.56        2972.50           2463       12364.00     53991.35
   90.59        2972.75           2466        5881.00     25654.02
   90.62        2973.00           2470        1789.00      7795.88
   90.65        2973.25           2473        1010.00      4398.65
   90.68        2973.50           2477         840.00      3657.39
   90.71        2973.75           2481         829.00      3609.42
   90.74        2974.00           2484         789.00      3435.01
   90.77        2974.25           2488         768.00      3343.45
   90.80        2974.50           2491         726.00      3160.32
   90.83        2974.75           2495         746.00      3247.53
   90.86        2975.00           2498         730.00      3177.76
   90.89        2975.25           2502         690.00      3003.36
   90.92        2975.50           2505         694.00      3020.80
   90.95        2975.75           2509         675.00      2937.96
   90.98        2976.00           2512         688.00      2994.64
   91.01        2976.25           2516         699.00      3042.60
   91.04        2976.50           2520         645.00      2807.16
   91.08        2976.75           2523         662.00      2881.28
   91.11        2977.00           2527         641.00      2789.72
   91.14        2977.25           2530         640.00      2785.36
   91.17        2977.50           2534         617.00      2685.08
   91.20        2977.75           2537         624.00      2715.60
   91.23        2978.00           2541         596.00      2593.52
   91.26        2978.25           2544         607.00      2641.48
   91.29        2978.50           2548         613.00      2667.64
   91.32        2978.75           2552         608.00      2645.84
   91.35        2979.00           2555         584.00      2541.20
   91.38        2979.25           2559         572.00      2488.88
   91.41        2979.50           2562         569.00      2475.80
   91.44        2979.75           2566         565.00      2458.36
   91.47        2980.00           2569         565.00      2458.36
   91.50        2980.25           2573         579.00      2519.40
   91.53        2980.50           2577         570.00      2480.16
   91.56        2980.75           2580         568.00      2471.44
   91.60        2981.00           2584         566.00      2462.72
   91.63        2981.25           2587         579.00      2519.40
   91.66        2981.50           2591         560.00      2436.56
   91.69        2981.75           2594         547.00      2379.88
   91.72        2982.00           2598         553.00      2406.04
   91.75        2982.25           2601         519.00      2257.80
   91.78        2982.50           2605         527.00      2292.68
   91.81        2982.75           2609         554.00      2410.40
   91.84        2983.00           2612         545.00      2371.16
   91.87        2983.25           2616         524.00      2279.60
   91.90        2983.50           2619         517.00      2249.08
   91.93        2983.75           2623         514.00      2236.00
   91.96        2984.00           2626         542.00      2358.08
HS scan finished at 01:32:11
end
************************************************************
  HS Scan of 
************************************************************
Integration time is 0.2294 seconds per sample
dh030517Reading 51.44 .94 3.09pr1000
************************************************************
Dead Time -------------------------  3.4E-08 
Number of Cycles Used -------------  4 
Starting Wavelength (Angstroms) ---  2950 
Final Wavelength (Angstoms) -------  2984 
Wavelength Increment (Angstroms) --  .25 
Filter Wheel #1 Position ---------- (1) Ground quartz diffuser (ND=2.32)
Filter Wheel #2 Position ---------- (1) Neutral Density 0.494



************************************************************
HS scan start time = 20:36:50
Dark Count =  1.1 


Time (GMT)  Wavelength (Ang)  Step Number  Raw Counts  Counts/Second

 1237.73        2950.00           2144         556.00      2419.12
 1237.92        2950.25           2147         555.00      2414.76
 1237.95        2950.50           2151         558.00      2427.84
 1237.98        2950.75           2155         566.00      2462.72
 1238.01        2951.00           2158         562.00      2445.28
 1238.04        2951.25           2162         605.00      2632.76
 1238.07        2951.50           2165         572.00      2488.88
 1238.10        2951.75           2169         582.00      2532.48
 1238.13        2952.00           2172         583.00      2536.84
 1238.17        2952.25           2176         589.00      2563.00
 1238.20        2952.50           2179         586.00      2549.92
 1238.23        2952.75           2183         594.00      2584.80
 1238.26        2953.00           2186         577.00      2510.68
 1238.29        2953.25           2190         575.00      2501.96
 1238.32        2953.50           2193         594.00      2584.80
 1238.35        2953.75           2197         605.00      2632.76
 1238.38        2954.00           2200         641.00      2789.72
 1238.41        2954.25           2204         593.00      2580.44
 1238.44        2954.50           2208         606.00      2637.12
 1238.47        2954.75           2211         608.00      2645.84
 1238.50        2955.00           2215         630.00      2741.76
 1238.53        2955.25           2218         629.00      2737.40
 1238.56        2955.50           2222         633.00      2754.84
 1238.59        2955.75           2225         623.00      2711.24
 1238.62        2956.00           2229         654.00      2846.40
 1238.65        2956.25           2232         643.00      2798.44
 1238.69        2956.50           2236         638.00      2776.64
 1238.72        2956.75           2239         638.00      2776.64
 1238.75        2957.00           2243         651.00      2833.32
 1238.78        2957.25           2246         672.00      2924.88
 1238.81        2957.50           2250         673.00      2929.24
 1238.84        2957.75           2254         659.00      2868.20
 1238.87        2958.00           2257         676.00      2942.32
 1238.90        2958.25           2261         700.00      3046.96
 1238.93        2958.50           2264         676.00      2942.32
 1238.96        2958.75           2268         685.00      2981.56
 1238.99        2959.00           2271         718.00      3125.44
 1239.02        2959.25           2275         696.00      3029.52
 1239.05        2959.50           2278         742.00      3230.08
 1239.08        2959.75           2282         726.00      3160.32
 1239.11        2960.00           2285         762.00      3317.29
 1239.14        2960.25           2289         746.00      3247.53
 1239.17        2960.50           2293         791.00      3443.73
 1239.21        2960.75           2296         794.00      3456.81
 1239.24        2961.00           2300         854.00      3718.43
 1239.27        2961.25           2303        1009.00      4394.29
 1239.30        2961.50           2307        3024.00     13183.33
 1239.33        2961.75           2310        7490.00     32681.89
 1239.36        2962.00           2314       16447.00     71866.32
 1239.39        2962.25           2317       24450.00    106965.90
 1239.42        2962.50           2321       35463.00    155404.40
 1239.45        2962.75           2324       43823.00    192281.30
 1239.48        2963.00           2328       54291.00    238588.00
 1239.51        2963.25           2331       62293.00    274085.00
 1239.54        2963.50           2335       73286.00    322991.00
 1239.57        2963.75           2339       83908.00    370402.30
 1239.60        2964.00           2342       92651.00    409542.40
 1239.63        2964.25           2346      105019.00    465090.50
 1239.66        2964.50           2349      113933.00    505257.30
 1239.69        2964.75           2353      124650.00    553695.50
 1239.73        2965.00           2356      132413.00    588883.10
 1239.76        2965.25           2360      142626.00    635305.90
 1239.79        2965.50           2363      149868.00    668314.20
 1239.82        2965.75           2367      159510.00    712378.10
 1239.85        2966.00           2370      167429.00    748668.00
 1239.88        2966.25           2374      178036.00    797418.80
 1239.91        2966.50           2378      185971.00    833996.20
 1239.94        2966.75           2381      187994.00    843336.20
 1239.97        2967.00           2385      188874.00    847401.00
 1240.00        2967.25           2388      188221.00    844384.60
 1240.03        2967.50           2392      188484.00    845599.40
 1240.06        2967.75           2395      187815.00    842509.60
 1240.09        2968.00           2399      184317.00    826364.30
 1240.12        2968.25           2402      178896.00    801378.60
 1240.15        2968.50           2406      169357.00    757517.10
 1240.18        2968.75           2409      161845.00    723069.10
 1240.21        2969.00           2413      152164.00    678794.80
 1240.25        2969.25           2417      141909.00    632042.00
 1240.28        2969.50           2420      133057.00    591806.00
 1240.32        2969.75           2424      121650.00    540119.90
 1240.35        2970.00           2427      113253.00    502189.20
 1240.38        2970.25           2431      102518.00    453840.80
 1240.41        2970.50           2434       94772.00    419053.40
 1240.44        2970.75           2438       84609.00    373536.60
 1240.47        2971.00           2441       76341.00    336611.20
 1240.51        2971.25           2445       65028.00    286237.30
 1240.54        2971.50           2449       54062.00    237573.40
 1240.57        2971.75           2452       46307.00    203256.40
 1240.60        2972.00           2456       35142.00    153990.30
 1240.63        2972.25           2459       26594.00    116383.40
 1240.66        2972.50           2463       16474.00     71984.60
 1240.69        2972.75           2466       10258.00     44779.99
 1240.72        2973.00           2470        3976.00     17337.59
 1240.75        2973.25           2473        1594.00      6945.41
 1240.78        2973.50           2477         927.00      4036.74
 1240.81        2973.75           2481         837.00      3644.31
 1240.84        2974.00           2484         819.00      3565.82
 1240.87        2974.25           2488         822.00      3578.90
 1240.90        2974.50           2491         814.00      3544.02
 1240.93        2974.75           2495         760.00      3308.57
 1240.96        2975.00           2498         766.00      3334.73
 1240.99        2975.25           2502         737.00      3208.28
 1241.03        2975.50           2505         723.00      3147.24
 1241.06        2975.75           2509         742.00      3230.08
 1241.09        2976.00           2512         729.00      3173.40
 1241.12        2976.25           2516         709.00      3086.20
 1241.15        2976.50           2520         700.00      3046.96
 1241.18        2976.75           2523         704.00      3064.40
 1241.21        2977.00           2527         692.00      3012.08
 1241.24        2977.25           2530         691.00      3007.72
 1241.27        2977.50           2534         674.00      2933.60
 1241.30        2977.75           2537         631.00      2746.12
 1241.33        2978.00           2541         655.00      2850.76
 1241.36        2978.25           2544         631.00      2746.12
 1241.39        2978.50           2548         664.00      2890.00
 1241.42        2978.75           2552         637.00      2772.28
 1241.45        2979.00           2555         654.00      2846.40
 1241.48        2979.25           2559         645.00      2807.16
 1241.51        2979.50           2562         646.00      2811.52
 1241.54        2979.75           2566         644.00      2802.80
 1241.58        2980.00           2569         632.00      2750.48
 1241.61        2980.25           2573         612.00      2663.28
 1241.64        2980.50           2577         643.00      2798.44
 1241.67        2980.75           2580         611.00      2658.92
 1241.70        2981.00           2584         602.00      2619.68
 1241.73        2981.25           2587         588.00      2558.64
 1241.76        2981.50           2591         577.00      2510.68
 1241.79        2981.75           2594         596.00      2593.52
 1241.82        2982.00           2598         593.00      2580.44
 1241.85        2982.25           2601         600.00      2610.96
 1241.88        2982.50           2605         582.00      2532.48
 1241.91        2982.75           2609         572.00      2488.88
 1241.94        2983.00           2612         565.00      2458.36
 1241.97        2983.25           2616         546.00      2375.52
 1242.00        2983.50           2619         586.00      2549.92
 1242.03        2983.75           2623         570.00      2480.16
 1242.06        2984.00           2626         581.00      2528.12
HS scan finished at 20:42:17
end
