************************************************************
  HS Scan of 
************************************************************
Integration time is 0.2294 seconds per sample
dh010517Reading 51.44 .94 3.01pr1000
************************************************************
Dead Time -------------------------  3.4E-08 
Number of Cycles Used -------------  4 
Starting Wavelength (Angstroms) ---  2950 
Final Wavelength (Angstoms) -------  2984 
Wavelength Increment (Angstroms) --  .25 
Filter Wheel #1 Position ---------- (1) Ground quartz diffuser (ND=2.32)
Filter Wheel #2 Position ---------- (1) Neutral Density 0.494



************************************************************
HS scan start time = 01:13:08
Dark Count =  .8 


Time (GMT)  Wavelength (Ang)  Step Number  Raw Counts  Counts/Second

   74.03        2950.00           2144         521.00      2267.83
   74.23        2950.25           2147         561.00      2442.23
   74.26        2950.50           2151         554.00      2411.71
   74.29        2950.75           2155         550.00      2394.27
   74.32        2951.00           2158         540.00      2350.67
   74.35        2951.25           2162         556.00      2420.43
   74.38        2951.50           2165         565.00      2459.67
   74.41        2951.75           2169         569.00      2477.11
   74.44        2952.00           2172         554.00      2411.71
   74.47        2952.25           2176         568.00      2472.74
   74.50        2952.50           2179         582.00      2533.78
   74.53        2952.75           2183         589.00      2564.30
   74.56        2953.00           2186         580.00      2525.06
   74.59        2953.25           2190         579.00      2520.70
   74.62        2953.50           2193         591.00      2573.02
   74.65        2953.75           2197         576.00      2507.62
   74.69        2954.00           2200         604.00      2629.70
   74.72        2954.25           2204         595.00      2590.46
   74.75        2954.50           2208         586.00      2551.22
   74.78        2954.75           2211         598.00      2603.54
   74.81        2955.00           2215         585.00      2546.86
   74.84        2955.25           2218         618.00      2690.74
   74.87        2955.50           2222         603.00      2625.34
   74.90        2955.75           2225         610.00      2655.86
   74.93        2956.00           2229         660.00      2873.86
   74.96        2956.25           2232         604.00      2629.70
   74.99        2956.50           2236         621.00      2703.82
   75.02        2956.75           2239         659.00      2869.50
   75.05        2957.00           2243         638.00      2777.94
   75.08        2957.25           2246         667.00      2904.38
   75.11        2957.50           2250         674.00      2934.90
   75.14        2957.75           2254         681.00      2965.43
   75.17        2958.00           2257         671.00      2921.82
   75.21        2958.25           2261         682.00      2969.79
   75.24        2958.50           2264         671.00      2921.82
   75.27        2958.75           2268         713.00      3104.95
   75.30        2959.00           2271         708.00      3083.15
   75.33        2959.25           2275         729.00      3174.71
   75.36        2959.50           2278         742.00      3231.39
   75.39        2959.75           2282         737.00      3209.59
   75.42        2960.00           2285         743.00      3235.75
   75.45        2960.25           2289         760.00      3309.88
   75.48        2960.50           2293         793.00      3453.76
   75.51        2960.75           2296         829.00      3610.73
   75.54        2961.00           2300         931.00      4055.49
   75.57        2961.25           2303        1788.00      7792.82
   75.60        2961.50           2307        6320.00     27572.48
   75.63        2961.75           2310       12479.00     54495.83
   75.66        2962.00           2314       22321.00     97621.65
   75.69        2962.25           2317       30021.00    131450.20
   75.73        2962.50           2321       39676.00    173978.10
   75.76        2962.75           2324       48067.00    211038.90
   75.79        2963.00           2328       60155.00    264593.70
   75.82        2963.25           2331       69401.00    305690.00
   75.85        2963.50           2335       81064.00    357694.40
   75.88        2963.75           2339       92072.00    406948.50
   75.91        2964.00           2342      100136.00    443135.70
   75.94        2964.25           2346      111974.00    496421.80
   75.97        2964.50           2349      121290.00    538493.10
   76.00        2964.75           2353      132974.00    591430.60
   76.03        2965.00           2356      140644.00    626286.60
   76.06        2965.25           2360      151086.00    673874.40
   76.09        2965.50           2363      159210.00    711006.40
   76.12        2965.75           2367      169236.00    756963.00
   76.15        2966.00           2370      176535.00    790511.50
   76.18        2966.25           2374      187346.00    840345.20
   76.21        2966.50           2378      193902.00    870649.00
   76.25        2966.75           2381      195670.00    878832.10
   76.28        2967.00           2385      196086.00    880758.20
   76.31        2967.25           2388      196197.00    881272.20
   76.34        2967.50           2392      196196.00    881267.60
   76.37        2967.75           2395      195703.00    878984.90
   76.40        2968.00           2399      192700.00    865088.30
   76.43        2968.25           2402      186737.00    837533.50
   76.46        2968.50           2406      176147.00    788726.10
   76.49        2968.75           2409      167025.00    746815.80
   76.52        2969.00           2413      155766.00    695253.50
   76.55        2969.25           2417      144900.00    645663.90
   76.58        2969.50           2420      136717.00    608430.10
   76.61        2969.75           2424      124810.00    554421.20
   76.64        2970.00           2427      115546.00    512538.70
   76.67        2970.25           2431      102855.00    455357.50
   76.70        2970.50           2434       94239.00    416664.10
   76.73        2970.75           2438       81869.00    361290.60
   76.77        2971.00           2441       72996.00    321700.10
   76.80        2971.25           2445       62449.00    274779.30
   76.83        2971.50           2449       51127.00    224577.50
   76.86        2971.75           2452       42249.00    185332.40
   76.89        2972.00           2456       30451.00    133341.60
   76.92        2972.25           2459       22041.00     96392.99
   76.95        2972.50           2463       12072.00     52715.16
   76.98        2972.75           2466        5984.00     26105.12
   77.01        2973.00           2470        1986.00      8656.43
   77.04        2973.25           2473        1066.00      4644.15
   77.07        2973.50           2477         899.00      3915.95
   77.10        2973.75           2481         836.00      3641.25
   77.13        2974.00           2484         799.00      3479.92
   77.16        2974.25           2488         772.00      3362.20
   77.19        2974.50           2491         758.00      3301.16
   77.22        2974.75           2495         753.00      3279.35
   77.25        2975.00           2498         738.00      3213.95
   77.29        2975.25           2502         774.00      3370.92
   77.32        2975.50           2505         727.00      3165.99
   77.35        2975.75           2509         723.00      3148.55
   77.38        2976.00           2512         726.00      3161.63
   77.41        2976.25           2516         718.00      3126.75
   77.44        2976.50           2520         692.00      3013.39
   77.47        2976.75           2523         679.00      2956.71
   77.50        2977.00           2527         671.00      2921.82
   77.53        2977.25           2530         667.00      2904.38
   77.56        2977.50           2534         664.00      2891.30
   77.59        2977.75           2537         679.00      2956.71
   77.62        2978.00           2541         645.00      2808.46
   77.65        2978.25           2544         638.00      2777.94
   77.68        2978.50           2548         644.00      2804.10
   77.71        2978.75           2552         614.00      2673.30
   77.74        2979.00           2555         660.00      2873.86
   77.77        2979.25           2559         612.00      2664.58
   77.81        2979.50           2562         617.00      2686.38
   77.84        2979.75           2566         590.00      2568.66
   77.87        2980.00           2569         603.00      2625.34
   77.90        2980.25           2573         588.00      2559.94
   77.93        2980.50           2577         638.00      2777.94
   77.96        2980.75           2580         571.00      2485.82
   77.99        2981.00           2584         594.00      2586.10
   78.02        2981.25           2587         583.00      2538.14
   78.05        2981.50           2591         594.00      2586.10
   78.08        2981.75           2594         583.00      2538.14
   78.11        2982.00           2598         615.00      2677.66
   78.14        2982.25           2601         549.00      2389.91
   78.17        2982.50           2605         558.00      2429.15
   78.20        2982.75           2609         577.00      2511.98
   78.23        2983.00           2612         572.00      2490.18
   78.26        2983.25           2616         576.00      2507.62
   78.29        2983.50           2619         573.00      2494.55
   78.32        2983.75           2623         560.00      2437.87
   78.36        2984.00           2626         554.00      2411.71
HS scan finished at 01:18:35
end
************************************************************
  HS Scan of 
************************************************************
Integration time is 0.2294 seconds per sample
dh010517Reading 51.44 .94 3.15pr1000
************************************************************
Dead Time -------------------------  3.4E-08 
Number of Cycles Used -------------  4 
Starting Wavelength (Angstroms) ---  2950 
Final Wavelength (Angstoms) -------  2984 
Wavelength Increment (Angstroms) --  .25 
Filter Wheel #1 Position ---------- (1) Ground quartz diffuser (ND=2.32)
Filter Wheel #2 Position ---------- (1) Neutral Density 0.494



************************************************************
HS scan start time = 20:37:29
Dark Count =  1.4 


Time (GMT)  Wavelength (Ang)  Step Number  Raw Counts  Counts/Second

 1238.38        2950.00           2144         572.00      2487.57
 1238.57        2950.25           2147         530.00      2304.45
 1238.61        2950.50           2151         564.00      2452.69
 1238.64        2950.75           2155         540.00      2348.05
 1238.67        2951.00           2158         564.00      2452.69
 1238.70        2951.25           2162         548.00      2382.93
 1238.73        2951.50           2165         579.00      2518.09
 1238.76        2951.75           2169         562.00      2443.97
 1238.79        2952.00           2172         573.00      2491.93
 1238.82        2952.25           2176         558.00      2426.53
 1238.85        2952.50           2179         566.00      2461.41
 1238.88        2952.75           2183         586.00      2548.61
 1238.91        2953.00           2186         584.00      2539.89
 1238.94        2953.25           2190         584.00      2539.89
 1238.97        2953.50           2193         573.00      2491.93
 1239.01        2953.75           2197         586.00      2548.61
 1239.04        2954.00           2200         587.00      2552.97
 1239.07        2954.25           2204         582.00      2531.17
 1239.10        2954.50           2208         600.00      2609.65
 1239.13        2954.75           2211         622.00      2705.57
 1239.16        2955.00           2215         619.00      2692.49
 1239.19        2955.25           2218         595.00      2587.85
 1239.22        2955.50           2222         624.00      2714.29
 1239.25        2955.75           2225         614.00      2670.69
 1239.28        2956.00           2229         626.00      2723.01
 1239.31        2956.25           2232         638.00      2775.33
 1239.34        2956.50           2236         622.00      2705.57
 1239.37        2956.75           2239         636.00      2766.61
 1239.40        2957.00           2243         643.00      2797.13
 1239.43        2957.25           2246         670.00      2914.85
 1239.46        2957.50           2250         647.00      2814.57
 1239.49        2957.75           2254         656.00      2853.81
 1239.53        2958.00           2257         678.00      2949.73
 1239.56        2958.25           2261         693.00      3015.13
 1239.59        2958.50           2264         689.00      2997.69
 1239.62        2958.75           2268         686.00      2984.61
 1239.65        2959.00           2271         709.00      3084.89
 1239.68        2959.25           2275         710.00      3089.25
 1239.71        2959.50           2278         706.00      3071.81
 1239.74        2959.75           2282         730.00      3176.45
 1239.77        2960.00           2285         714.00      3106.69
 1239.80        2960.25           2289         759.00      3302.90
 1239.83        2960.50           2293         756.00      3289.82
 1239.86        2960.75           2296         799.00      3477.31
 1239.89        2961.00           2300         872.00      3795.61
 1239.92        2961.25           2303        1031.00      4488.92
 1239.95        2961.50           2307        2894.00     12614.83
 1239.98        2961.75           2310        7472.00     32601.94
 1240.01        2962.00           2314       16634.00     72684.20
 1240.05        2962.25           2317       24938.00    109107.60
 1240.08        2962.50           2321       36109.00    158249.40
 1240.11        2962.75           2324       44056.00    193309.10
 1240.14        2963.00           2328       55078.00    242074.00
 1240.17        2963.25           2331       63612.00    279943.10
 1240.20        2963.50           2335       74952.00    330415.70
 1240.23        2963.75           2339       86375.00    381434.40
 1240.26        2964.00           2342       95244.00    421169.50
 1240.29        2964.25           2346      107150.00    474681.50
 1240.32        2964.50           2349      115365.00    511718.90
 1240.36        2964.75           2353      126251.00    560944.00
 1240.40        2965.00           2356      134577.00    598705.70
 1240.43        2965.25           2360      145513.00    648454.10
 1240.46        2965.50           2363      152713.00    681300.50
 1240.49        2965.75           2367      163496.00    730631.70
 1240.52        2966.00           2370      170992.00    765024.20
 1240.55        2966.25           2374      180641.00    809415.20
 1240.58        2966.50           2378      187747.00    842194.20
 1240.61        2966.75           2381      189818.00    851761.20
 1240.64        2967.00           2385      190173.00    853401.90
 1240.67        2967.25           2388      190217.00    853605.20
 1240.70        2967.50           2392      190181.00    853438.80
 1240.73        2967.75           2395      189652.00    850994.20
 1240.76        2968.00           2399      185501.00    831825.60
 1240.79        2968.25           2402      179422.00    803799.60
 1240.82        2968.50           2406      170033.00    760619.60
 1240.86        2968.75           2409      163600.00    731108.40
 1240.89        2969.00           2413      152267.00    679263.70
 1240.92        2969.25           2417      141221.00    628909.30
 1240.95        2969.50           2420      132913.00    591151.00
 1240.98        2969.75           2424      122006.00    541728.90
 1241.01        2970.00           2427      114008.00    505594.30
 1241.04        2970.25           2431      102606.00    454235.10
 1241.07        2970.50           2434       94811.00    419227.00
 1241.10        2970.75           2438       83649.00    369243.10
 1241.13        2971.00           2441       75520.00    332948.40
 1241.16        2971.25           2445       65191.00    286960.50
 1241.19        2971.50           2449       53967.00    237151.30
 1241.22        2971.75           2452       45580.00    200042.10
 1241.25        2972.00           2456       34257.00    150090.90
 1241.28        2972.25           2459       26702.00    116856.60
 1241.31        2972.50           2463       16835.00     73564.77
 1241.34        2972.75           2466        9784.00     42706.26
 1241.38        2973.00           2470        3102.00     13522.35
 1241.41        2973.25           2473        1274.00      5548.56
 1241.44        2973.50           2477         918.00      3996.18
 1241.47        2973.75           2481         849.00      3695.32
 1241.50        2974.00           2484         820.00      3568.87
 1241.53        2974.25           2488         797.00      3468.59
 1241.56        2974.50           2491         759.00      3302.90
 1241.59        2974.75           2495         759.00      3302.90
 1241.62        2975.00           2498         776.00      3377.02
 1241.65        2975.25           2502         750.00      3263.66
 1241.68        2975.50           2505         754.00      3281.10
 1241.71        2975.75           2509         712.00      3097.97
 1241.74        2976.00           2512         705.00      3067.45
 1241.77        2976.25           2516         712.00      3097.97
 1241.80        2976.50           2520         705.00      3067.45
 1241.83        2976.75           2523         736.00      3202.62
 1241.86        2977.00           2527         675.00      2936.65
 1241.90        2977.25           2530         685.00      2980.25
 1241.93        2977.50           2534         628.00      2731.73
 1241.96        2977.75           2537         676.00      2941.01
 1241.99        2978.00           2541         652.00      2836.37
 1242.02        2978.25           2544         636.00      2766.61
 1242.05        2978.50           2548         637.00      2770.97
 1242.08        2978.75           2552         690.00      3002.05
 1242.11        2979.00           2555         614.00      2670.69
 1242.14        2979.25           2559         608.00      2644.53
 1242.17        2979.50           2562         608.00      2644.53
 1242.20        2979.75           2566         626.00      2723.01
 1242.23        2980.00           2569         611.00      2657.61
 1242.26        2980.25           2573         607.00      2640.17
 1242.29        2980.50           2577         594.00      2583.49
 1242.32        2980.75           2580         589.00      2561.69
 1242.35        2981.00           2584         602.00      2618.37
 1242.38        2981.25           2587         577.00      2509.37
 1242.42        2981.50           2591         564.00      2452.69
 1242.45        2981.75           2594         552.00      2400.37
 1242.48        2982.00           2598         567.00      2465.77
 1242.51        2982.25           2601         594.00      2583.49
 1242.54        2982.50           2605         571.00      2483.21
 1242.57        2982.75           2609         570.00      2478.85
 1242.60        2983.00           2612         581.00      2526.81
 1242.63        2983.25           2616         566.00      2461.41
 1242.66        2983.50           2619         562.00      2443.97
 1242.69        2983.75           2623         548.00      2382.93
 1242.72        2984.00           2626         554.00      2409.09
HS scan finished at 20:42:57
end
