************************************************************
  HS Scan of 
************************************************************
Integration time is 0.2294 seconds per sample
dh080517Reading 51.44 .94 3.09pr1000
************************************************************
Dead Time -------------------------  3.4E-08 
Number of Cycles Used -------------  4 
Starting Wavelength (Angstroms) ---  2950 
Final Wavelength (Angstoms) -------  2984 
Wavelength Increment (Angstroms) --  .25 
Filter Wheel #1 Position ---------- (1) Ground quartz diffuser (ND=2.32)
Filter Wheel #2 Position ---------- (1) Neutral Density 0.494



************************************************************
HS scan start time = 01:12:27
Dark Count =  1 


Time (GMT)  Wavelength (Ang)  Step Number  Raw Counts  Counts/Second

   73.35        2950.00           2144         543.00      2362.88
   73.55        2950.25           2147         537.00      2336.72
   73.58        2950.50           2151         530.00      2306.20
   73.61        2950.75           2155         547.00      2380.31
   73.64        2951.00           2158         552.00      2402.11
   73.67        2951.25           2162         546.00      2375.96
   73.70        2951.50           2165         588.00      2559.07
   73.73        2951.75           2169         574.00      2498.03
   73.76        2952.00           2172         559.00      2432.63
   73.79        2952.25           2176         547.00      2380.31
   73.82        2952.50           2179         551.00      2397.75
   73.85        2952.75           2183         567.00      2467.51
   73.88        2953.00           2186         568.00      2471.87
   73.91        2953.25           2190         558.00      2428.27
   73.94        2953.50           2193         560.00      2436.99
   73.97        2953.75           2197         579.00      2519.83
   74.00        2954.00           2200         559.00      2432.63
   74.03        2954.25           2204         574.00      2498.03
   74.07        2954.50           2208         576.00      2506.75
   74.10        2954.75           2211         582.00      2532.91
   74.13        2955.00           2215         599.00      2607.03
   74.16        2955.25           2218         580.00      2524.19
   74.19        2955.50           2222         591.00      2572.15
   74.22        2955.75           2225         593.00      2580.87
   74.25        2956.00           2229         617.00      2685.51
   74.28        2956.25           2232         626.00      2724.75
   74.31        2956.50           2236         607.00      2641.91
   74.34        2956.75           2239         627.00      2729.11
   74.37        2957.00           2243         627.00      2729.11
   74.40        2957.25           2246         675.00      2938.39
   74.43        2957.50           2250         635.00      2763.99
   74.46        2957.75           2254         650.00      2829.39
   74.50        2958.00           2257         657.00      2859.91
   74.53        2958.25           2261         682.00      2968.91
   74.56        2958.50           2264         668.00      2907.87
   74.59        2958.75           2268         680.00      2960.19
   74.62        2959.00           2271         693.00      3016.87
   74.65        2959.25           2275         670.00      2916.59
   74.68        2959.50           2278         697.00      3034.31
   74.71        2959.75           2282         726.00      3160.76
   74.74        2960.00           2285         706.00      3073.56
   74.77        2960.25           2289         809.00      3522.65
   74.80        2960.50           2293         767.00      3339.53
   74.83        2960.75           2296         772.00      3361.33
   74.86        2961.00           2300         902.00      3928.16
   74.89        2961.25           2303        1734.00      7556.43
   74.92        2961.50           2307        6279.00     27392.54
   74.95        2961.75           2310       12332.00     53851.78
   74.99        2962.00           2314       21840.00     95510.18
   75.02        2962.25           2317       29154.00    127636.40
   75.05        2962.50           2321       38764.00    169954.90
   75.08        2962.75           2324       46231.00    202920.90
   75.11        2963.00           2328       57985.00    254964.40
   75.14        2963.25           2331       66797.00    294103.30
   75.17        2963.50           2335       77929.00    343696.60
   75.20        2963.75           2339       88269.00    389912.60
   75.23        2964.00           2342       96392.00    426322.50
   75.26        2964.25           2346      107983.00    478434.50
   75.29        2964.50           2349      116996.00    519085.30
   75.32        2964.75           2353      128364.00    570519.90
   75.35        2965.00           2356      136199.00    606075.50
   75.38        2965.25           2360      145751.00    649540.60
   75.41        2965.50           2363      152749.00    681466.80
   75.44        2965.75           2367      162970.00    728223.30
   75.47        2966.00           2370      169978.00    760368.90
   75.51        2966.25           2374      178841.00    801125.80
   75.54        2966.50           2378      185570.00    832146.00
   75.57        2966.75           2381      187579.00    841420.10
   75.60        2967.00           2385      188020.00    843456.80
   75.63        2967.25           2388      187746.00    842191.40
   75.66        2967.50           2392      187441.00    840782.90
   75.69        2967.75           2395      187141.00    839397.70
   75.72        2968.00           2399      184037.00    825073.10
   75.75        2968.25           2402      178483.00    799477.20
   75.78        2968.50           2406      167834.00    750526.90
   75.81        2968.75           2409      159955.00    714415.40
   75.84        2969.00           2413      149583.00    667014.10
   75.87        2969.25           2417      139186.00    619653.50
   75.90        2969.50           2420      130251.00    579075.20
   75.93        2969.75           2424      118396.00    525409.80
   75.96        2970.00           2427      109200.00    483916.90
   75.99        2970.25           2431       98317.00    434964.20
   76.03        2970.50           2434       90395.00    399433.30
   76.06        2970.75           2438       79020.00    348566.00
   76.09        2971.00           2441       70724.00    311579.00
   76.12        2971.25           2445       59846.00    263221.40
   76.15        2971.50           2449       49558.00    217633.20
   76.18        2971.75           2452       41260.00    180966.20
   76.21        2972.00           2456       28873.00    126400.80
   76.24        2972.25           2459       20382.00     89114.41
   76.27        2972.50           2463       10626.00     46389.59
   76.30        2972.75           2466        5118.00     22322.95
   76.33        2973.00           2470        1765.00      7691.64
   76.36        2973.25           2473        1038.00      4521.18
   76.39        2973.50           2477         850.00      3701.43
   76.42        2973.75           2481         822.00      3579.34
   76.45        2974.00           2484         802.00      3492.13
   76.48        2974.25           2488         785.00      3418.01
   76.51        2974.50           2491         770.00      3352.61
   76.55        2974.75           2495         749.00      3261.04
   76.58        2975.00           2498         738.00      3213.08
   76.61        2975.25           2502         707.00      3077.92
   76.64        2975.50           2505         721.00      3138.96
   76.67        2975.75           2509         727.00      3165.12
   76.70        2976.00           2512         692.00      3012.51
   76.73        2976.25           2516         673.00      2929.67
   76.76        2976.50           2520         680.00      2960.19
   76.79        2976.75           2523         661.00      2877.35
   76.82        2977.00           2527         687.00      2990.71
   76.85        2977.25           2530         655.00      2851.19
   76.88        2977.50           2534         647.00      2816.31
   76.91        2977.75           2537         679.00      2955.83
   76.94        2978.00           2541         631.00      2746.55
   76.97        2978.25           2544         625.00      2720.39
   77.00        2978.50           2548         632.00      2750.91
   77.03        2978.75           2552         608.00      2646.27
   77.06        2979.00           2555         615.00      2676.79
   77.10        2979.25           2559         605.00      2633.19
   77.13        2979.50           2562         592.00      2576.51
   77.16        2979.75           2566         615.00      2676.79
   77.19        2980.00           2569         602.00      2620.11
   77.22        2980.25           2573         596.00      2593.95
   77.25        2980.50           2577         596.00      2593.95
   77.28        2980.75           2580         579.00      2519.83
   77.31        2981.00           2584         579.00      2519.83
   77.34        2981.25           2587         570.00      2480.59
   77.37        2981.50           2591         572.00      2489.31
   77.40        2981.75           2594         616.00      2681.15
   77.43        2982.00           2598         567.00      2467.51
   77.46        2982.25           2601         559.00      2432.63
   77.49        2982.50           2605         570.00      2480.59
   77.52        2982.75           2609         554.00      2410.83
   77.55        2983.00           2612         571.00      2484.95
   77.58        2983.25           2616         549.00      2389.03
   77.62        2983.50           2619         548.00      2384.67
   77.65        2983.75           2623         562.00      2445.71
   77.68        2984.00           2626         548.00      2384.67
HS scan finished at 01:17:54
end
************************************************************
  HS Scan of 
************************************************************
Integration time is 0.2294 seconds per sample
dh080517Reading 51.44 .94 3.19pr1000
************************************************************
Dead Time -------------------------  3.4E-08 
Number of Cycles Used -------------  4 
Starting Wavelength (Angstroms) ---  2950 
Final Wavelength (Angstoms) -------  2984 
Wavelength Increment (Angstroms) --  .25 
Filter Wheel #1 Position ---------- (1) Ground quartz diffuser (ND=2.32)
Filter Wheel #2 Position ---------- (1) Neutral Density 0.494



************************************************************
HS scan start time = 20:37:23
Dark Count =  1.4 


Time (GMT)  Wavelength (Ang)  Step Number  Raw Counts  Counts/Second

 1238.28        2950.00           2144         501.00      2178.02
 1238.47        2950.25           2147         501.00      2178.02
 1238.50        2950.50           2151         503.00      2186.74
 1238.53        2950.75           2155         518.00      2252.13
 1238.56        2951.00           2158         529.00      2300.09
 1238.59        2951.25           2162         533.00      2317.53
 1238.62        2951.50           2165         509.00      2212.90
 1238.65        2951.75           2169         535.00      2326.25
 1238.68        2952.00           2172         526.00      2287.01
 1238.72        2952.25           2176         538.00      2339.33
 1238.75        2952.50           2179         538.00      2339.33
 1238.78        2952.75           2183         520.00      2260.85
 1238.81        2953.00           2186         560.00      2435.25
 1238.84        2953.25           2190         523.00      2273.93
 1238.87        2953.50           2193         555.00      2413.45
 1238.90        2953.75           2197         514.00      2234.69
 1238.93        2954.00           2200         527.00      2291.37
 1238.96        2954.25           2204         540.00      2348.05
 1238.99        2954.50           2208         553.00      2404.73
 1239.02        2954.75           2211         554.00      2409.09
 1239.05        2955.00           2215         580.00      2522.45
 1239.08        2955.25           2218         557.00      2422.17
 1239.11        2955.50           2222         555.00      2413.45
 1239.14        2955.75           2225         579.00      2518.09
 1239.17        2956.00           2229         589.00      2561.69
 1239.20        2956.25           2232         573.00      2491.93
 1239.24        2956.50           2236         560.00      2435.25
 1239.27        2956.75           2239         565.00      2457.05
 1239.30        2957.00           2243         581.00      2526.81
 1239.33        2957.25           2246         589.00      2561.69
 1239.36        2957.50           2250         596.00      2592.21
 1239.39        2957.75           2254         586.00      2548.61
 1239.42        2958.00           2257         629.00      2736.09
 1239.45        2958.25           2261         631.00      2744.81
 1239.48        2958.50           2264         635.00      2762.25
 1239.51        2958.75           2268         618.00      2688.13
 1239.54        2959.00           2271         626.00      2723.01
 1239.57        2959.25           2275         654.00      2845.09
 1239.60        2959.50           2278         677.00      2945.37
 1239.63        2959.75           2282         674.00      2932.29
 1239.66        2960.00           2285         662.00      2879.97
 1239.69        2960.25           2289         719.00      3128.49
 1239.72        2960.50           2293         696.00      3028.21
 1239.75        2960.75           2296         723.00      3145.93
 1239.79        2961.00           2300         780.00      3394.46
 1239.82        2961.25           2303         911.00      3965.66
 1239.85        2961.50           2307        2377.00     10359.36
 1239.88        2961.75           2310        6314.00     27543.66
 1239.91        2962.00           2314       13412.00     58576.00
 1239.94        2962.25           2317       20274.00     88639.00
 1239.97        2962.50           2321       30067.00    131649.90
 1240.00        2962.75           2324       37353.00    163732.00
 1240.03        2963.00           2328       47367.00    207941.00
 1240.06        2963.25           2331       55513.00    244002.00
 1240.09        2963.50           2335       65667.00    289076.70
 1240.12        2963.75           2339       76425.00    336984.60
 1240.15        2964.00           2342       84205.00    371728.90
 1240.18        2964.25           2346       95401.00    421873.80
 1240.21        2964.50           2349      102558.00    454019.30
 1240.24        2964.75           2353      111841.00    495819.40
 1240.27        2965.00           2356      119455.00    530193.90
 1240.31        2965.25           2360      129780.00    576937.50
 1240.34        2965.50           2363      138161.00    614990.80
 1240.37        2965.75           2367      147172.00    656015.90
 1240.40        2966.00           2370      153752.00    686046.60
 1240.43        2966.25           2374      161377.00    720924.30
 1240.46        2966.50           2378      167640.00    749634.80
 1240.49        2966.75           2381      170030.00    760605.90
 1240.52        2967.00           2385      170706.00    763710.50
 1240.55        2967.25           2388      170766.00    763986.10
 1240.58        2967.50           2392      170927.00    764725.60
 1240.61        2967.75           2395      170418.00    762387.80
 1240.64        2968.00           2399      167127.00    747281.00
 1240.67        2968.25           2402      162047.00    723992.90
 1240.70        2968.50           2406      152886.00    682090.60
 1240.73        2968.75           2409      145429.00    648071.50
 1240.76        2969.00           2413      135911.00    604765.00
 1240.79        2969.25           2417      126563.00    562357.30
 1240.83        2969.50           2420      119905.00    532228.00
 1240.86        2969.75           2424      110762.00    490954.70
 1240.89        2970.00           2427      103818.00    459685.90
 1240.92        2970.25           2431       92753.00    409998.30
 1240.95        2970.50           2434       84566.00    373343.00
 1240.98        2970.75           2438       73162.00    322437.10
 1241.01        2971.00           2441       65647.00    288987.80
 1241.04        2971.25           2445       56415.00    248000.40
 1241.07        2971.50           2449       46540.00    204285.00
 1241.10        2971.75           2452       38932.00    170694.00
 1241.13        2972.00           2456       28431.00    124455.80
 1241.16        2972.25           2459       21112.00     92314.58
 1241.20        2972.50           2463       12360.00     53972.54
 1241.24        2972.75           2466        6543.00     28543.82
 1241.27        2973.00           2470        2151.00      9373.52
 1241.30        2973.25           2473        1092.00      4754.91
 1241.33        2973.50           2477         815.00      3547.07
 1241.36        2973.75           2481         771.00      3355.22
 1241.39        2974.00           2484         756.00      3289.82
 1241.42        2974.25           2488         707.00      3076.17
 1241.45        2974.50           2491         704.00      3063.09
 1241.48        2974.75           2495         665.00      2893.05
 1241.51        2975.00           2498         698.00      3036.93
 1241.54        2975.25           2502         676.00      2941.01
 1241.57        2975.50           2505         687.00      2988.97
 1241.61        2975.75           2509         669.00      2910.49
 1241.64        2976.00           2512         641.00      2788.41
 1241.67        2976.25           2516         645.00      2805.85
 1241.70        2976.50           2520         622.00      2705.57
 1241.73        2976.75           2523         619.00      2692.49
 1241.76        2977.00           2527         647.00      2814.57
 1241.79        2977.25           2530         599.00      2605.29
 1241.82        2977.50           2534         602.00      2618.37
 1241.85        2977.75           2537         612.00      2661.97
 1241.88        2978.00           2541         579.00      2518.09
 1241.91        2978.25           2544         590.00      2566.05
 1241.94        2978.50           2548         611.00      2657.61
 1241.97        2978.75           2552         542.00      2356.77
 1242.00        2979.00           2555         581.00      2526.81
 1242.03        2979.25           2559         535.00      2326.25
 1242.06        2979.50           2562         557.00      2422.17
 1242.09        2979.75           2566         565.00      2457.05
 1242.13        2980.00           2569         550.00      2391.65
 1242.16        2980.25           2573         546.00      2374.21
 1242.19        2980.50           2577         555.00      2413.45
 1242.22        2980.75           2580         531.00      2308.81
 1242.25        2981.00           2584         550.00      2391.65
 1242.28        2981.25           2587         532.00      2313.17
 1242.31        2981.50           2591         553.00      2404.73
 1242.34        2981.75           2594         532.00      2313.17
 1242.37        2982.00           2598         503.00      2186.74
 1242.40        2982.25           2601         531.00      2308.81
 1242.43        2982.50           2605         511.00      2221.62
 1242.46        2982.75           2609         527.00      2291.37
 1242.49        2983.00           2612         494.00      2147.50
 1242.52        2983.25           2616         532.00      2313.17
 1242.55        2983.50           2619         523.00      2273.93
 1242.58        2983.75           2623         489.00      2125.70
 1242.61        2984.00           2626         520.00      2260.85
HS scan finished at 20:42:50
end
