************************************************************
  HS Scan of (1) Internal mercury lamp
************************************************************
Integration time is 0.2294 seconds per sample
dh040518Reading 51.44 .94 3.25pr1000
************************************************************
Dead Time -------------------------  3.4E-08 
Number of Cycles Used -------------  4 
Starting Wavelength (Angstroms) ---  2950 
Final Wavelength (Angstoms) -------  2984 
Wavelength Increment (Angstroms) --  .25 
Filter Wheel #1 Position ---------- (1) Ground quartz diffuser (ND=2.32)
Filter Wheel #2 Position ---------- (1) Neutral Density 0.494



************************************************************
HS scan start time = 01:04:39
Dark Count =  1.4 


Time (GMT)  Wavelength (Ang)  Step Number  Raw Counts  Counts/Second

   65.54        2950.00           2144          95.00       408.03
   65.73        2950.25           2147          95.00       408.03
   65.77        2950.50           2151          96.00       412.39
   65.80        2950.75           2155          92.00       394.95
   65.83        2951.00           2158          76.00       325.20
   65.86        2951.25           2162          87.00       373.15
   65.89        2951.50           2165          92.00       394.95
   65.92        2951.75           2169          88.00       377.51
   65.95        2952.00           2172          87.00       373.15
   65.98        2952.25           2176          89.00       381.87
   66.01        2952.50           2179          86.00       368.79
   66.04        2952.75           2183          85.00       364.43
   66.07        2953.00           2186          93.00       399.31
   66.10        2953.25           2190          93.00       399.31
   66.13        2953.50           2193          94.00       403.67
   66.16        2953.75           2197          99.00       425.46
   66.19        2954.00           2200         123.00       530.09
   66.22        2954.25           2204          99.00       425.46
   66.25        2954.50           2208          92.00       394.95
   66.28        2954.75           2211         100.00       429.82
   66.32        2955.00           2215          97.00       416.75
   66.35        2955.25           2218         106.00       455.98
   66.38        2955.50           2222          94.00       403.67
   66.41        2955.75           2225         104.00       447.26
   66.44        2956.00           2229          97.00       416.75
   66.47        2956.25           2232         120.00       517.01
   66.50        2956.50           2236         101.00       434.18
   66.53        2956.75           2239         112.00       482.14
   66.56        2957.00           2243         130.00       560.60
   66.59        2957.25           2246         111.00       477.78
   66.62        2957.50           2250          97.00       416.75
   66.65        2957.75           2254         100.00       429.82
   66.68        2958.00           2257         130.00       560.60
   66.71        2958.25           2261         123.00       530.09
   66.74        2958.50           2264         106.00       455.98
   66.77        2958.75           2268         112.00       482.14
   66.80        2959.00           2271         128.00       551.88
   66.84        2959.25           2275         131.00       564.96
   66.87        2959.50           2278         123.00       530.09
   66.90        2959.75           2282         141.00       608.56
   66.93        2960.00           2285         149.00       643.43
   66.96        2960.25           2289         137.00       591.12
   66.99        2960.50           2293         130.00       560.60
   67.02        2960.75           2296         165.00       713.18
   67.05        2961.00           2300         184.00       796.01
   67.08        2961.25           2303         429.00      1864.11
   67.11        2961.50           2307        1380.00      6010.82
   67.14        2961.75           2310        2448.00     10669.08
   67.17        2962.00           2314        4138.00     18043.33
   67.20        2962.25           2317        5386.00     23491.30
   67.23        2962.50           2321        7039.00     30710.35
   67.26        2962.75           2324        8535.00     37246.79
   67.29        2963.00           2328       10678.00     46615.24
   67.32        2963.25           2331       12145.00     53031.89
   67.36        2963.50           2335       14141.00     61766.90
   67.39        2963.75           2339       16037.00     70069.08
   67.42        2964.00           2342       17498.00     76469.71
   67.45        2964.25           2346       19630.00     85814.97
   67.48        2964.50           2349       20921.00     91476.75
   67.51        2964.75           2353       22745.00     99479.76
   67.54        2965.00           2356       23966.00    104839.50
   67.57        2965.25           2360       25883.00    113258.30
   67.60        2965.50           2363       27138.00    118772.50
   67.63        2965.75           2367       28987.00    126900.30
   67.66        2966.00           2370       30490.00    133510.50
   67.69        2966.25           2374       32274.00    141360.40
   67.72        2966.50           2378       33249.00    145652.40
   67.75        2966.75           2381       33228.00    145559.90
   67.78        2967.00           2385       33566.00    147048.10
   67.81        2967.25           2388       33616.00    147268.30
   67.84        2967.50           2392       33367.00    146171.90
   67.88        2967.75           2395       33550.00    146977.70
   67.91        2968.00           2399       32691.00    143195.90
   67.94        2968.25           2402       31544.00    138147.80
   67.97        2968.50           2406       29444.00    128909.90
   68.00        2968.75           2409       28152.00    123229.30
   68.03        2969.00           2413       26266.00    114940.90
   68.06        2969.25           2417       24733.00    108207.30
   68.09        2969.50           2420       23296.00    101898.20
   68.12        2969.75           2424       21017.00     91897.85
   68.15        2970.00           2427       19398.00     84797.74
   68.18        2970.25           2431       17481.00     76395.21
   68.21        2970.50           2434       15854.00     69267.56
   68.24        2970.75           2438       13555.00     59201.87
   68.27        2971.00           2441       12125.00     52944.39
   68.30        2971.25           2445       10167.00     44380.78
   68.33        2971.50           2449        7962.00     34742.85
   68.36        2971.75           2452        6647.00     28998.06
   68.40        2972.00           2456        4641.00     20238.86
   68.43        2972.25           2459        3315.00     14451.74
   68.46        2972.50           2463        1786.00      7781.48
   68.49        2972.75           2466         872.00      3795.61
   68.52        2973.00           2470         321.00      1393.27
   68.55        2973.25           2473         186.00       804.73
   68.58        2973.50           2477         148.00       639.07
   68.61        2973.75           2481         132.00       569.32
   68.64        2974.00           2484         139.00       599.84
   68.67        2974.25           2488         162.00       700.10
   68.70        2974.50           2491         135.00       582.40
   68.73        2974.75           2495         156.00       673.95
   68.76        2975.00           2498         136.00       586.76
   68.79        2975.25           2502         127.00       547.53
   68.82        2975.50           2505         131.00       564.96
   68.85        2975.75           2509         140.00       604.20
   68.88        2976.00           2512         141.00       608.56
   68.91        2976.25           2516         148.00       639.07
   68.95        2976.50           2520         124.00       534.45
   68.98        2976.75           2523         129.00       556.24
   69.01        2977.00           2527         108.00       464.70
   69.04        2977.25           2530         113.00       486.49
   69.07        2977.50           2534         110.00       473.42
   69.10        2977.75           2537         102.00       438.54
   69.13        2978.00           2541         127.00       547.53
   69.16        2978.25           2544         120.00       517.01
   69.19        2978.50           2548          95.00       408.03
   69.22        2978.75           2552         128.00       551.88
   69.25        2979.00           2555          99.00       425.46
   69.28        2979.25           2559         102.00       438.54
   69.31        2979.50           2562          98.00       421.10
   69.34        2979.75           2566          98.00       421.10
   69.37        2980.00           2569         114.00       490.85
   69.40        2980.25           2573         102.00       438.54
   69.43        2980.50           2577          99.00       425.46
   69.47        2980.75           2580          91.00       390.59
   69.50        2981.00           2584          92.00       394.95
   69.53        2981.25           2587         104.00       447.26
   69.56        2981.50           2591          99.00       425.46
   69.59        2981.75           2594          83.00       355.71
   69.62        2982.00           2598          90.00       386.23
   69.65        2982.25           2601          93.00       399.31
   69.68        2982.50           2605          89.00       381.87
   69.72        2982.75           2609          92.00       394.95
   69.75        2983.00           2612          93.00       399.31
   69.78        2983.25           2616          82.00       351.36
   69.81        2983.50           2619          87.00       373.15
   69.84        2983.75           2623          89.00       381.87
   69.87        2984.00           2626          88.00       377.51
HS scan finished at 01:10:06
end
************************************************************
  HS Scan of (1) Internal mercury lamp
************************************************************
Integration time is 0.2294 seconds per sample
dh040518Reading 51.44 .94 3.52pr1000
************************************************************
Dead Time -------------------------  3.4E-08 
Number of Cycles Used -------------  4 
Starting Wavelength (Angstroms) ---  2950 
Final Wavelength (Angstoms) -------  2984 
Wavelength Increment (Angstroms) --  .25 
Filter Wheel #1 Position ---------- (1) Ground quartz diffuser (ND=2.32)
Filter Wheel #2 Position ---------- (1) Neutral Density 0.494



************************************************************
HS scan start time = 20:37:26
Dark Count =  3.5 


Time (GMT)  Wavelength (Ang)  Step Number  Raw Counts  Counts/Second

 1238.34        2950.00           2144          83.00       346.56
 1238.53        2950.25           2147          89.00       372.72
 1238.56        2950.50           2151          88.00       368.36
 1238.59        2950.75           2155          90.00       377.08
 1238.62        2951.00           2158          88.00       368.36
 1238.65        2951.25           2162          85.00       355.28
 1238.68        2951.50           2165          94.00       394.51
 1238.71        2951.75           2169          94.00       394.51
 1238.74        2952.00           2172          89.00       372.72
 1238.77        2952.25           2176          95.00       398.87
 1238.81        2952.50           2179          94.00       394.51
 1238.84        2952.75           2183          84.00       350.92
 1238.87        2953.00           2186          84.00       350.92
 1238.90        2953.25           2190          98.00       411.95
 1238.93        2953.50           2193          93.00       390.15
 1238.96        2953.75           2197          89.00       372.72
 1238.99        2954.00           2200          96.00       403.23
 1239.02        2954.25           2204          93.00       390.15
 1239.05        2954.50           2208          95.00       398.87
 1239.08        2954.75           2211          90.00       377.08
 1239.11        2955.00           2215          97.00       407.59
 1239.14        2955.25           2218          92.00       385.79
 1239.17        2955.50           2222          93.00       390.15
 1239.20        2955.75           2225          90.00       377.08
 1239.23        2956.00           2229         134.00       568.89
 1239.26        2956.25           2232         103.00       433.75
 1239.29        2956.50           2236          98.00       411.95
 1239.33        2956.75           2239          97.00       407.59
 1239.36        2957.00           2243         160.00       682.23
 1239.39        2957.25           2246         139.00       590.68
 1239.42        2957.50           2250         117.00       494.78
 1239.45        2957.75           2254         114.00       481.70
 1239.48        2958.00           2257         121.00       512.21
 1239.51        2958.25           2261         120.00       507.86
 1239.54        2958.50           2264         102.00       429.39
 1239.57        2958.75           2268         122.00       516.57
 1239.60        2959.00           2271         107.00       451.18
 1239.63        2959.25           2275         122.00       516.57
 1239.66        2959.50           2278         115.00       486.06
 1239.69        2959.75           2282         121.00       512.21
 1239.72        2960.00           2285         145.00       616.84
 1239.75        2960.25           2289         124.00       525.29
 1239.78        2960.50           2293         136.00       577.61
 1239.81        2960.75           2296         155.00       660.43
 1239.85        2961.00           2300         169.00       721.46
 1239.88        2961.25           2303         399.00      1724.16
 1239.91        2961.50           2307        1401.00      6093.24
 1239.94        2961.75           2310        2486.00     10825.69
 1239.97        2962.00           2314        4095.00     17846.49
 1240.00        2962.25           2317        5251.00     22892.71
 1240.03        2962.50           2321        7033.00     30674.96
 1240.06        2962.75           2324        8276.00     36105.76
 1240.09        2963.00           2328       10001.00     43645.81
 1240.12        2963.25           2331       11414.00     49824.97
 1240.15        2963.50           2335       13287.00     58019.75
 1240.18        2963.75           2339       15329.00     66959.16
 1240.21        2964.00           2342       16926.00     73954.25
 1240.24        2964.25           2346       18521.00     80943.91
 1240.27        2964.50           2349       19845.00     86748.51
 1240.30        2964.75           2353       21678.00     94788.42
 1240.33        2965.00           2356       23297.00    101893.40
 1240.36        2965.25           2360       25182.00    110170.00
 1240.40        2965.50           2363       26463.00    115797.20
 1240.43        2965.75           2367       28246.00    123633.30
 1240.46        2966.00           2370       29399.00    128702.80
 1240.49        2966.25           2374       30823.00    134966.20
 1240.52        2966.50           2378       31475.00    137834.90
 1240.55        2966.75           2381       31802.00    139273.90
 1240.58        2967.00           2385       31851.00    139489.60
 1240.61        2967.25           2388       31778.00    139168.30
 1240.64        2967.50           2392       31721.00    138917.50
 1240.67        2967.75           2395       31650.00    138605.00
 1240.70        2968.00           2399       30771.00    134737.50
 1240.73        2968.25           2402       29637.00    129749.40
 1240.76        2968.50           2406       27875.00    122002.40
 1240.79        2968.75           2409       26449.00    115735.70
 1240.82        2969.00           2413       24514.00    107236.40
 1240.85        2969.25           2417       22584.00     98763.96
 1240.88        2969.50           2420       21133.00     92397.48
 1240.92        2969.75           2424       19214.00     83981.84
 1240.95        2970.00           2427       17860.00     78046.85
 1240.98        2970.25           2431       15869.00     69324.06
 1241.01        2970.50           2434       14346.00     62655.13
 1241.04        2970.75           2438       12397.00     54125.23
 1241.07        2971.00           2441       11140.00     48626.53
 1241.10        2971.25           2445        9363.00     40856.63
 1241.13        2971.50           2449        7571.00     33025.29
 1241.16        2971.75           2452        6201.00     27040.98
 1241.19        2972.00           2456        4402.00     19186.44
 1241.22        2972.25           2459        3088.00     13452.10
 1241.25        2972.50           2463        1415.00      6154.30
 1241.28        2972.75           2466         639.00      2770.53
 1241.31        2973.00           2470         213.00       913.28
 1241.34        2973.25           2473         154.00       656.07
 1241.37        2973.50           2477         142.00       603.76
 1241.41        2973.75           2481         142.00       603.76
 1241.44        2974.00           2484         163.00       695.31
 1241.47        2974.25           2488         132.00       560.17
 1241.50        2974.50           2491         128.00       542.73
 1241.53        2974.75           2495         122.00       516.57
 1241.56        2975.00           2498         113.00       477.34
 1241.59        2975.25           2502         129.00       547.09
 1241.62        2975.50           2505         113.00       477.34
 1241.65        2975.75           2509         125.00       529.65
 1241.68        2976.00           2512         106.00       446.82
 1241.71        2976.25           2516         106.00       446.82
 1241.74        2976.50           2520         134.00       568.89
 1241.77        2976.75           2523         112.00       472.98
 1241.80        2977.00           2527          97.00       407.59
 1241.83        2977.25           2530         104.00       438.11
 1241.86        2977.50           2534          98.00       411.95
 1241.89        2977.75           2537         103.00       433.75
 1241.92        2978.00           2541          98.00       411.95
 1241.96        2978.25           2544         108.00       455.54
 1241.99        2978.50           2548         122.00       516.57
 1242.02        2978.75           2552          97.00       407.59
 1242.05        2979.00           2555          98.00       411.95
 1242.08        2979.25           2559          90.00       377.08
 1242.11        2979.50           2562         101.00       425.03
 1242.14        2979.75           2566          86.00       359.64
 1242.17        2980.00           2569         110.00       464.26
 1242.20        2980.25           2573          93.00       390.15
 1242.23        2980.50           2577          93.00       390.15
 1242.26        2980.75           2580         101.00       425.03
 1242.29        2981.00           2584         115.00       486.06
 1242.32        2981.25           2587          88.00       368.36
 1242.35        2981.50           2591          91.00       381.43
 1242.38        2981.75           2594          90.00       377.08
 1242.41        2982.00           2598          98.00       411.95
 1242.44        2982.25           2601          88.00       368.36
 1242.48        2982.50           2605          87.00       364.00
 1242.51        2982.75           2609          85.00       355.28
 1242.54        2983.00           2612          82.00       342.20
 1242.57        2983.25           2616          83.00       346.56
 1242.60        2983.50           2619          84.00       350.92
 1242.63        2983.75           2623          88.00       368.36
 1242.66        2984.00           2626          87.00       364.00
HS scan finished at 20:42:53
end
