************************************************************
  HS Scan of 
************************************************************
Integration time is 0.2294 seconds per sample
dh050517Reading 51.44 .94 3.09pr1000
************************************************************
Dead Time -------------------------  3.4E-08 
Number of Cycles Used -------------  4 
Starting Wavelength (Angstroms) ---  2950 
Final Wavelength (Angstoms) -------  2984 
Wavelength Increment (Angstroms) --  .25 
Filter Wheel #1 Position ---------- (1) Ground quartz diffuser (ND=2.32)
Filter Wheel #2 Position ---------- (1) Neutral Density 0.494



************************************************************
HS scan start time = 01:04:32
Dark Count =  1 


Time (GMT)  Wavelength (Ang)  Step Number  Raw Counts  Counts/Second

   65.43        2950.00           2144         608.00      2646.27
   65.62        2950.25           2147         631.00      2746.55
   65.65        2950.50           2151         651.00      2833.75
   65.68        2950.75           2155         643.00      2798.87
   65.71        2951.00           2158         643.00      2798.87
   65.74        2951.25           2162         647.00      2816.31
   65.77        2951.50           2165         627.00      2729.11
   65.80        2951.75           2169         662.00      2881.71
   65.83        2952.00           2172         630.00      2742.19
   65.86        2952.25           2176         630.00      2742.19
   65.90        2952.50           2179         684.00      2977.63
   65.93        2952.75           2183         647.00      2816.31
   65.96        2953.00           2186         645.00      2807.59
   65.99        2953.25           2190         660.00      2872.99
   66.02        2953.50           2193         662.00      2881.71
   66.05        2953.75           2197         648.00      2820.67
   66.08        2954.00           2200         694.00      3021.23
   66.11        2954.25           2204         645.00      2807.59
   66.14        2954.50           2208         682.00      2968.91
   66.17        2954.75           2211         675.00      2938.39
   66.20        2955.00           2215         674.00      2934.03
   66.23        2955.25           2218         684.00      2977.63
   66.26        2955.50           2222         675.00      2938.39
   66.29        2955.75           2225         677.00      2947.11
   66.32        2956.00           2229         717.00      3121.52
   66.35        2956.25           2232         699.00      3043.04
   66.38        2956.50           2236         698.00      3038.68
   66.42        2956.75           2239         727.00      3165.12
   66.45        2957.00           2243         703.00      3060.48
   66.48        2957.25           2246         758.00      3300.28
   66.51        2957.50           2250         733.00      3191.28
   66.54        2957.75           2254         748.00      3256.68
   66.57        2958.00           2257         766.00      3335.16
   66.60        2958.25           2261         759.00      3304.64
   66.63        2958.50           2264         752.00      3274.12
   66.66        2958.75           2268         786.00      3422.37
   66.69        2959.00           2271         791.00      3444.17
   66.72        2959.25           2275         827.00      3601.14
   66.75        2959.50           2278         816.00      3553.18
   66.78        2959.75           2282         839.00      3653.46
   66.81        2960.00           2285         891.00      3880.20
   66.84        2960.25           2289         844.00      3675.26
   66.87        2960.50           2293         892.00      3884.56
   66.90        2960.75           2296         914.00      3980.49
   66.93        2961.00           2300        1086.00      4730.49
   66.97        2961.25           2303        2023.00      8816.94
   67.00        2961.50           2307        6901.00     30109.27
   67.03        2961.75           2310       13290.00     58043.82
   67.06        2962.00           2314       22994.00    100574.40
   67.09        2962.25           2317       32363.00    141753.90
   67.12        2962.50           2321       45376.00    199142.40
   67.15        2962.75           2324       55542.00    244132.20
   67.18        2963.00           2328       68641.00    302306.70
   67.21        2963.25           2331       77375.00    341224.50
   67.24        2963.50           2335       89442.00    395164.80
   67.27        2963.75           2339      101212.00    447970.20
   67.30        2964.00           2342      109953.00    487310.10
   67.33        2964.25           2346      122071.00    542024.80
   67.36        2964.50           2349      131383.00    584209.90
   67.39        2964.75           2353      142134.00    633066.60
   67.42        2965.00           2356      150625.00    671769.30
   67.46        2965.25           2360      162870.00    727765.10
   67.49        2965.50           2363      171259.00    766252.60
   67.52        2965.75           2367      182170.00    816463.90
   67.55        2966.00           2370      191656.00    860259.20
   67.58        2966.25           2374      201946.00    907916.80
   67.61        2966.50           2378      207175.00    932194.80
   67.64        2966.75           2381      208224.00    937070.10
   67.67        2967.00           2385      209290.00    942026.20
   67.70        2967.25           2388      208422.00    937990.50
   67.73        2967.50           2392      209187.00    941547.20
   67.76        2967.75           2395      208217.00    937037.60
   67.79        2968.00           2399      203393.00    914631.00
   67.82        2968.25           2402      197139.00    885633.80
   67.85        2968.50           2406      185975.00    834015.10
   67.88        2968.75           2409      177857.00    796595.10
   67.91        2969.00           2413      166733.00    745475.30
   67.94        2969.25           2417      154694.00    690352.70
   67.98        2969.50           2420      145192.00    646993.30
   68.01        2969.75           2424      133364.00    593200.10
   68.04        2970.00           2427      123792.00    549812.00
   68.07        2970.25           2431      111378.00    493733.60
   68.10        2970.50           2434      102000.00    451512.30
   68.13        2970.75           2438       89839.00    396942.80
   68.16        2971.00           2441       80088.00    353334.50
   68.19        2971.25           2445       66143.00    291194.90
   68.22        2971.50           2449       53098.00    233303.70
   68.25        2971.75           2452       43847.00    192387.70
   68.28        2972.00           2456       31900.00    139716.20
   68.31        2972.25           2459       23329.00    102044.80
   68.34        2972.50           2463       12912.00     56389.61
   68.37        2972.75           2466        6138.00     26776.77
   68.40        2973.00           2470        1885.00      8215.02
   68.43        2973.25           2473        1114.00      4852.59
   68.46        2973.50           2477         983.00      4281.36
   68.49        2973.75           2481         914.00      3980.49
   68.53        2974.00           2484         870.00      3788.63
   68.56        2974.25           2488         887.00      3862.76
   68.59        2974.50           2491         848.00      3692.70
   68.62        2974.75           2495         869.00      3784.27
   68.65        2975.00           2498         811.00      3531.37
   68.68        2975.25           2502         824.00      3588.06
   68.71        2975.50           2505         809.00      3522.65
   68.74        2975.75           2509         784.00      3413.65
   68.77        2976.00           2512         802.00      3492.13
   68.80        2976.25           2516         769.00      3348.25
   68.83        2976.50           2520         752.00      3274.12
   68.86        2976.75           2523         751.00      3269.76
   68.89        2977.00           2527         731.00      3182.56
   68.92        2977.25           2530         764.00      3326.44
   68.95        2977.50           2534         714.00      3108.44
   68.98        2977.75           2537         739.00      3217.44
   69.02        2978.00           2541         717.00      3121.52
   69.05        2978.25           2544         740.00      3221.80
   69.08        2978.50           2548         730.00      3178.20
   69.11        2978.75           2552         692.00      3012.51
   69.14        2979.00           2555         695.00      3025.59
   69.17        2979.25           2559         695.00      3025.59
   69.20        2979.50           2562         676.00      2942.75
   69.23        2979.75           2566         658.00      2864.27
   69.26        2980.00           2569         672.00      2925.31
   69.30        2980.25           2573         702.00      3056.12
   69.33        2980.50           2577         654.00      2846.83
   69.36        2980.75           2580         673.00      2929.67
   69.39        2981.00           2584         645.00      2807.59
   69.42        2981.25           2587         661.00      2877.35
   69.45        2981.50           2591         645.00      2807.59
   69.48        2981.75           2594         650.00      2829.39
   69.51        2982.00           2598         641.00      2790.15
   69.54        2982.25           2601         628.00      2733.47
   69.57        2982.50           2605         642.00      2794.51
   69.60        2982.75           2609         623.00      2711.67
   69.63        2983.00           2612         608.00      2646.27
   69.66        2983.25           2616         631.00      2746.55
   69.69        2983.50           2619         606.00      2637.55
   69.73        2983.75           2623         631.00      2746.55
   69.76        2984.00           2626         615.00      2676.79
HS scan finished at 01:09:59
end
************************************************************
  HS Scan of 
************************************************************
Integration time is 0.2294 seconds per sample
dh050517Reading 51.44 .94 3.19pr1000
************************************************************
Dead Time -------------------------  3.4E-08 
Number of Cycles Used -------------  4 
Starting Wavelength (Angstroms) ---  2950 
Final Wavelength (Angstoms) -------  2984 
Wavelength Increment (Angstroms) --  .25 
Filter Wheel #1 Position ---------- (1) Ground quartz diffuser (ND=2.32)
Filter Wheel #2 Position ---------- (1) Neutral Density 0.494



************************************************************
HS scan start time = 20:37:24
Dark Count =  1.7 


Time (GMT)  Wavelength (Ang)  Step Number  Raw Counts  Counts/Second

 1238.30        2950.00           2144         476.00      2067.71
 1238.50        2950.25           2147         462.00      2006.68
 1238.53        2950.50           2151         499.00      2167.99
 1238.56        2950.75           2155         469.00      2037.19
 1238.59        2951.00           2158         492.00      2137.47
 1238.62        2951.25           2162         456.00      1980.52
 1238.65        2951.50           2165         476.00      2067.71
 1238.68        2951.75           2169         478.00      2076.43
 1238.71        2952.00           2172         488.00      2120.03
 1238.74        2952.25           2176         482.00      2093.87
 1238.77        2952.50           2179         505.00      2194.15
 1238.80        2952.75           2183         489.00      2124.39
 1238.83        2953.00           2186         510.00      2215.95
 1238.86        2953.25           2190         496.00      2154.91
 1238.89        2953.50           2193         516.00      2242.11
 1238.92        2953.75           2197         542.00      2355.46
 1238.95        2954.00           2200         535.00      2324.94
 1238.99        2954.25           2204         506.00      2198.51
 1239.02        2954.50           2208         507.00      2202.87
 1239.05        2954.75           2211         504.00      2189.79
 1239.08        2955.00           2215         516.00      2242.11
 1239.11        2955.25           2218         523.00      2272.63
 1239.14        2955.50           2222         534.00      2320.58
 1239.17        2955.75           2225         541.00      2351.10
 1239.20        2956.00           2229         547.00      2377.26
 1239.23        2956.25           2232         532.00      2311.86
 1239.26        2956.50           2236         530.00      2303.14
 1239.29        2956.75           2239         564.00      2451.38
 1239.32        2957.00           2243         556.00      2416.50
 1239.35        2957.25           2246         549.00      2385.98
 1239.38        2957.50           2250         580.00      2521.14
 1239.41        2957.75           2254         562.00      2442.66
 1239.44        2958.00           2257         548.00      2381.62
 1239.47        2958.25           2261         579.00      2516.78
 1239.51        2958.50           2264         575.00      2499.34
 1239.54        2958.75           2268         588.00      2556.02
 1239.57        2959.00           2271         614.00      2669.38
 1239.60        2959.25           2275         642.00      2791.46
 1239.63        2959.50           2278         601.00      2612.70
 1239.66        2959.75           2282         658.00      2861.22
 1239.69        2960.00           2285         637.00      2769.66
 1239.72        2960.25           2289         644.00      2800.18
 1239.75        2960.50           2293         693.00      3013.82
 1239.78        2960.75           2296         670.00      2913.54
 1239.81        2961.00           2300         768.00      3340.83
 1239.84        2961.25           2303        1138.00      4954.19
 1239.87        2961.50           2307        3917.00     17077.48
 1239.90        2961.75           2310        8583.00     37455.26
 1239.93        2962.00           2314       16861.00     73677.36
 1239.96        2962.25           2317       23905.00    104570.40
 1239.99        2962.50           2321       33866.00    148367.70
 1240.03        2962.75           2324       40725.00    178602.20
 1240.06        2963.00           2328       49443.00    217121.40
 1240.09        2963.25           2331       56013.00    246216.90
 1240.12        2963.50           2335       65033.00    286256.90
 1240.15        2963.75           2339       75438.00    332581.30
 1240.18        2964.00           2342       83572.00    368897.50
 1240.21        2964.25           2346       92812.00    410261.50
 1240.24        2964.50           2349       99820.00    441711.90
 1240.27        2964.75           2353      109274.00    484247.20
 1240.31        2965.00           2356      116266.00    515785.40
 1240.34        2965.25           2360      125081.00    555644.10
 1240.37        2965.50           2363      132103.00    587473.50
 1240.40        2965.75           2367      140844.00    627192.50
 1240.43        2966.00           2370      147492.00    657473.60
 1240.46        2966.25           2374      154757.00    690637.40
 1240.49        2966.50           2378      160272.00    715863.30
 1240.52        2966.75           2381      161221.00    720208.50
 1240.55        2967.00           2385      161904.00    723336.60
 1240.58        2967.25           2388      162055.00    724028.30
 1240.61        2967.50           2392      161694.00    722374.70
 1240.64        2967.75           2395      161547.00    721701.50
 1240.67        2968.00           2399      158178.00    706280.10
 1240.70        2968.25           2402      153287.00    683920.80
 1240.73        2968.50           2406      145678.00    649204.70
 1240.76        2968.75           2409      139438.00    620796.30
 1240.79        2969.00           2413      129909.00    577521.10
 1240.82        2969.25           2417      119936.00    532366.80
 1240.86        2969.50           2420      113114.00    501559.50
 1240.89        2969.75           2424      104022.00    460602.20
 1240.92        2970.00           2427       97454.00    431086.20
 1240.95        2970.25           2431       88200.00    389600.60
 1240.98        2970.50           2434       80962.00    357234.70
 1241.01        2970.75           2438       71602.00    315485.90
 1241.04        2971.00           2441       64230.00    282687.90
 1241.07        2971.25           2445       54641.00    240136.20
 1241.10        2971.50           2449       44935.00    197190.80
 1241.13        2971.75           2452       37979.00    166490.40
 1241.16        2972.00           2456       28808.00    126112.00
 1241.19        2972.25           2459       22295.00     97503.61
 1241.22        2972.50           2463       13284.00     58014.50
 1241.25        2972.75           2466        6978.00     30442.57
 1241.28        2973.00           2470        1863.00      8116.01
 1241.31        2973.25           2473         942.00      4099.53
 1241.34        2973.50           2477         743.00      3231.83
 1241.38        2973.75           2481         710.00      3087.94
 1241.41        2974.00           2484         680.00      2957.14
 1241.44        2974.25           2488         665.00      2891.74
 1241.47        2974.50           2491         644.00      2800.18
 1241.50        2974.75           2495         639.00      2778.38
 1241.53        2975.00           2498         634.00      2756.58
 1241.56        2975.25           2502         630.00      2739.14
 1241.59        2975.50           2505         641.00      2787.10
 1241.62        2975.75           2509         622.00      2704.26
 1241.65        2976.00           2512         596.00      2590.90
 1241.68        2976.25           2516         576.00      2503.70
 1241.71        2976.50           2520         585.00      2542.94
 1241.74        2976.75           2523         579.00      2516.78
 1241.77        2977.00           2527         568.00      2468.82
 1241.80        2977.25           2530         572.00      2486.26
 1241.83        2977.50           2534         561.00      2438.30
 1241.86        2977.75           2537         546.00      2372.90
 1241.90        2978.00           2541         556.00      2416.50
 1241.93        2978.25           2544         566.00      2460.10
 1241.96        2978.50           2548         551.00      2394.70
 1241.99        2978.75           2552         536.00      2329.30
 1242.02        2979.00           2555         518.00      2250.83
 1242.05        2979.25           2559         525.00      2281.35
 1242.08        2979.50           2562         552.00      2399.06
 1242.11        2979.75           2566         544.00      2364.18
 1242.14        2980.00           2569         525.00      2281.35
 1242.17        2980.25           2573         523.00      2272.63
 1242.20        2980.50           2577         506.00      2198.51
 1242.23        2980.75           2580         519.00      2255.19
 1242.26        2981.00           2584         494.00      2146.19
 1242.29        2981.25           2587         484.00      2102.59
 1242.32        2981.50           2591         515.00      2237.75
 1242.35        2981.75           2594         511.00      2220.31
 1242.38        2982.00           2598         510.00      2215.95
 1242.42        2982.25           2601         494.00      2146.19
 1242.45        2982.50           2605         476.00      2067.71
 1242.48        2982.75           2609         495.00      2150.55
 1242.51        2983.00           2612         511.00      2220.31
 1242.54        2983.25           2616         475.00      2063.35
 1242.57        2983.50           2619         469.00      2037.19
 1242.60        2983.75           2623         456.00      1980.52
 1242.63        2984.00           2626         469.00      2037.19
HS scan finished at 20:42:51
end
