************************************************************
  HS Scan of (1) Internal mercury lamp
************************************************************
Integration time is 0.2294 seconds per sample
dh080518Reading 51.44 .94 3.47pr1000
************************************************************
Dead Time -------------------------  3.4E-08 
Number of Cycles Used -------------  4 
Starting Wavelength (Angstroms) ---  2950 
Final Wavelength (Angstoms) -------  2984 
Wavelength Increment (Angstroms) --  .25 
Filter Wheel #1 Position ---------- (1) Ground quartz diffuser (ND=2.32)
Filter Wheel #2 Position ---------- (1) Neutral Density 0.494



************************************************************
HS scan start time = 01:12:38
Dark Count =  2.6 


Time (GMT)  Wavelength (Ang)  Step Number  Raw Counts  Counts/Second

   73.53        2950.00           2144          78.00       328.69
   73.72        2950.25           2147          77.00       324.33
   73.75        2950.50           2151          80.00       337.41
   73.79        2950.75           2155          82.00       346.12
   73.82        2951.00           2158          81.00       341.77
   73.85        2951.25           2162          81.00       341.77
   73.88        2951.50           2165          78.00       328.69
   73.91        2951.75           2169          84.00       354.84
   73.94        2952.00           2172          81.00       341.77
   73.97        2952.25           2176          82.00       346.12
   74.00        2952.50           2179          79.00       333.05
   74.03        2952.75           2183          79.00       333.05
   74.06        2953.00           2186         111.00       472.54
   74.09        2953.25           2190          90.00       381.00
   74.12        2953.50           2193          88.00       372.28
   74.15        2953.75           2197          84.00       354.84
   74.18        2954.00           2200          84.00       354.84
   74.21        2954.25           2204          87.00       367.92
   74.24        2954.50           2208          93.00       394.08
   74.27        2954.75           2211         104.00       442.03
   74.31        2955.00           2215          87.00       367.92
   74.34        2955.25           2218          90.00       381.00
   74.37        2955.50           2222          89.00       376.64
   74.40        2955.75           2225          96.00       407.15
   74.43        2956.00           2229          87.00       367.92
   74.46        2956.25           2232          90.00       381.00
   74.49        2956.50           2236          87.00       367.92
   74.52        2956.75           2239          94.00       398.44
   74.55        2957.00           2243          96.00       407.15
   74.58        2957.25           2246          89.00       376.64
   74.61        2957.50           2250          97.00       411.51
   74.64        2957.75           2254          94.00       398.44
   74.67        2958.00           2257         105.00       446.39
   74.70        2958.25           2261         107.00       455.11
   74.73        2958.50           2264          98.00       415.87
   74.76        2958.75           2268         110.00       468.19
   74.79        2959.00           2271         128.00       546.65
   74.83        2959.25           2275         114.00       485.62
   74.86        2959.50           2278         101.00       428.95
   74.89        2959.75           2282         119.00       507.42
   74.92        2960.00           2285         132.00       564.09
   74.95        2960.25           2289         139.00       594.61
   74.98        2960.50           2293         120.00       511.78
   75.01        2960.75           2296         120.00       511.78
   75.04        2961.00           2300         183.00       786.42
   75.07        2961.25           2303         423.00      1832.72
   75.10        2961.50           2307        1284.00      5586.94
   75.13        2961.75           2310        2309.00     10057.49
   75.16        2962.00           2314        3953.00     17230.67
   75.19        2962.25           2317        5235.00     22826.78
   75.22        2962.50           2321        6830.00     29792.15
   75.25        2962.75           2324        8068.00     35200.78
   75.28        2963.00           2328        9774.00     42657.29
   75.31        2963.25           2331       11103.00     48468.65
   75.35        2963.50           2335       12997.00     56754.58
   75.38        2963.75           2339       14660.00     64033.77
   75.41        2964.00           2342       15973.00     69783.52
   75.44        2964.25           2346       17808.00     77822.91
   75.47        2964.50           2349       19047.00     83253.65
   75.50        2964.75           2353       20865.00     91225.85
   75.53        2965.00           2356       22068.00     96503.57
   75.56        2965.25           2360       23753.00    103899.10
   75.59        2965.50           2363       24718.00    108136.20
   75.62        2965.75           2367       26458.00    115779.20
   75.65        2966.00           2370       27966.00    122406.40
   75.68        2966.25           2374       29152.00    127620.60
   75.71        2966.50           2378       30100.00    131789.70
   75.74        2966.75           2381       30199.00    132225.20
   75.77        2967.00           2385       30260.00    132493.50
   75.80        2967.25           2388       30116.00    131860.10
   75.83        2967.50           2392       30246.00    132431.90
   75.87        2967.75           2395       29996.00    131332.30
   75.90        2968.00           2399       29307.00    128302.20
   75.93        2968.25           2402       28101.00    122999.80
   75.96        2968.50           2406       26345.00    115282.70
   75.99        2968.75           2409       24727.00    108175.70
   76.02        2969.00           2413       23296.00    101892.90
   76.05        2969.25           2417       21683.00     94814.31
   76.08        2969.50           2420       20276.00     88642.52
   76.11        2969.75           2424       18323.00     80080.00
   76.14        2970.00           2427       16856.00     73651.52
   76.17        2970.25           2431       14886.00     65023.29
   76.20        2970.50           2434       13725.00     59940.69
   76.23        2970.75           2438       11892.00     51919.82
   76.26        2971.00           2441       10561.00     46098.35
   76.29        2971.25           2445        8831.00     38535.20
   76.32        2971.50           2449        7033.00     30678.89
   76.37        2971.75           2452        5645.00     24616.93
   76.40        2972.00           2456        3915.00     17064.82
   76.43        2972.25           2459        2774.00     12086.05
   76.46        2972.50           2463        1371.00      5966.34
   76.49        2972.75           2466         645.00      2800.62
   76.52        2973.00           2470         228.00       982.60
   76.55        2973.25           2473         157.00       673.08
   76.58        2973.50           2477         159.00       681.79
   76.61        2973.75           2481         122.00       520.50
   76.64        2974.00           2484         134.00       572.81
   76.68        2974.25           2488         122.00       520.50
   76.71        2974.50           2491         108.00       459.47
   76.74        2974.75           2495         114.00       485.62
   76.77        2975.00           2498         108.00       459.47
   76.80        2975.25           2502         120.00       511.78
   76.83        2975.50           2505         100.00       424.59
   76.86        2975.75           2509         111.00       472.54
   76.89        2976.00           2512         109.00       463.83
   76.92        2976.25           2516         126.00       537.93
   76.95        2976.50           2520         118.00       503.06
   76.98        2976.75           2523         106.00       450.75
   77.02        2977.00           2527         104.00       442.03
   77.05        2977.25           2530          96.00       407.15
   77.08        2977.50           2534          91.00       385.36
   77.11        2977.75           2537          94.00       398.44
   77.14        2978.00           2541          96.00       407.15
   77.17        2978.25           2544          93.00       394.08
   77.20        2978.50           2548          99.00       420.23
   77.23        2978.75           2552          91.00       385.36
   77.26        2979.00           2555         103.00       437.67
   77.29        2979.25           2559          88.00       372.28
   77.32        2979.50           2562          90.00       381.00
   77.36        2979.75           2566          94.00       398.44
   77.39        2980.00           2569          88.00       372.28
   77.42        2980.25           2573          89.00       376.64
   77.45        2980.50           2577          89.00       376.64
   77.48        2980.75           2580          83.00       350.48
   77.51        2981.00           2584          79.00       333.05
   77.54        2981.25           2587          86.00       363.56
   77.57        2981.50           2591          91.00       385.36
   77.60        2981.75           2594          85.00       359.20
   77.63        2982.00           2598          85.00       359.20
   77.66        2982.25           2601          81.00       341.77
   77.69        2982.50           2605          76.00       319.97
   77.72        2982.75           2609          87.00       367.92
   77.75        2983.00           2612          87.00       367.92
   77.78        2983.25           2616          86.00       363.56
   77.81        2983.50           2619          75.00       315.61
   77.84        2983.75           2623          76.00       319.97
   77.88        2984.00           2626          84.00       354.84
HS scan finished at 01:18:06
end
************************************************************
  HS Scan of (1) Internal mercury lamp
************************************************************
Integration time is 0.2294 seconds per sample
dh080518Reading 51.44 .94 3.43pr1000
************************************************************
Dead Time -------------------------  3.4E-08 
Number of Cycles Used -------------  4 
Starting Wavelength (Angstroms) ---  2950 
Final Wavelength (Angstoms) -------  2984 
Wavelength Increment (Angstroms) --  .25 
Filter Wheel #1 Position ---------- (1) Ground quartz diffuser (ND=2.32)
Filter Wheel #2 Position ---------- (1) Neutral Density 0.494



************************************************************
HS scan start time = 20:37:22
Dark Count =  2.4 


Time (GMT)  Wavelength (Ang)  Step Number  Raw Counts  Counts/Second

 1238.27        2950.00           2144          73.00       307.76
 1238.46        2950.25           2147          75.00       316.48
 1238.49        2950.50           2151          83.00       351.36
 1238.52        2950.75           2155          73.00       307.76
 1238.55        2951.00           2158          71.00       299.04
 1238.58        2951.25           2162          81.00       342.64
 1238.61        2951.50           2165          75.00       316.48
 1238.64        2951.75           2169          81.00       342.64
 1238.67        2952.00           2172          77.00       325.20
 1238.70        2952.25           2176          87.00       368.79
 1238.73        2952.50           2179          91.00       386.23
 1238.76        2952.75           2183          80.00       338.28
 1238.80        2953.00           2186          79.00       333.92
 1238.83        2953.25           2190          81.00       342.64
 1238.86        2953.50           2193          78.00       329.56
 1238.89        2953.75           2197          75.00       316.48
 1238.92        2954.00           2200          77.00       325.20
 1238.95        2954.25           2204          76.00       320.84
 1238.98        2954.50           2208          78.00       329.56
 1239.01        2954.75           2211          73.00       307.76
 1239.04        2955.00           2215          80.00       338.28
 1239.07        2955.25           2218          85.00       360.07
 1239.10        2955.50           2222          86.00       364.43
 1239.13        2955.75           2225          85.00       360.07
 1239.16        2956.00           2229          85.00       360.07
 1239.19        2956.25           2232          85.00       360.07
 1239.22        2956.50           2236          82.00       347.00
 1239.25        2956.75           2239          92.00       390.59
 1239.28        2957.00           2243          83.00       351.36
 1239.32        2957.25           2246          84.00       355.71
 1239.35        2957.50           2250          90.00       381.87
 1239.38        2957.75           2254          88.00       373.15
 1239.41        2958.00           2257          89.00       377.51
 1239.44        2958.25           2261          86.00       364.43
 1239.47        2958.50           2264          84.00       355.71
 1239.51        2958.75           2268         100.00       425.46
 1239.54        2959.00           2271          97.00       412.39
 1239.57        2959.25           2275          98.00       416.75
 1239.60        2959.50           2278         115.00       490.85
 1239.63        2959.75           2282         121.00       517.01
 1239.66        2960.00           2285         112.00       477.78
 1239.69        2960.25           2289          99.00       421.10
 1239.72        2960.50           2293         148.00       634.71
 1239.75        2960.75           2296         138.00       591.12
 1239.78        2961.00           2300         131.00       560.60
 1239.81        2961.25           2303         272.00      1175.29
 1239.84        2961.50           2307        1076.00      4680.78
 1239.87        2961.75           2310        1960.00      8536.04
 1239.90        2962.00           2314        3253.00     14176.84
 1239.93        2962.25           2317        4237.00     18471.06
 1239.96        2962.50           2321        5834.00     25443.10
 1239.99        2962.75           2324        6907.00     30129.37
 1240.02        2963.00           2328        8468.00     36949.62
 1240.06        2963.25           2331        9633.00     42041.74
 1240.09        2963.50           2335       11212.00     48946.25
 1240.12        2963.75           2339       12689.00     55407.68
 1240.15        2964.00           2342       13817.00     60344.26
 1240.18        2964.25           2346       15645.00     68347.83
 1240.21        2964.50           2349       16573.00     72412.58
 1240.24        2964.75           2353       18032.00     78805.46
 1240.27        2965.00           2356       19374.00     84688.14
 1240.30        2965.25           2360       20922.00     91476.75
 1240.33        2965.50           2363       21971.00     96078.83
 1240.36        2965.75           2367       23509.00    102828.80
 1240.39        2966.00           2370       24188.00    105809.80
 1240.42        2966.25           2374       25626.00    112125.00
 1240.45        2966.50           2378       26466.00    115815.20
 1240.48        2966.75           2381       26346.00    115288.00
 1240.51        2967.00           2385       26732.00    116984.00
 1240.54        2967.25           2388       26330.00    115217.70
 1240.58        2967.50           2392       26438.00    115692.20
 1240.61        2967.75           2395       26818.00    117361.90
 1240.64        2968.00           2399       25736.00    112608.20
 1240.67        2968.25           2402       24658.00    107873.60
 1240.70        2968.50           2406       23169.00    101336.30
 1240.73        2968.75           2409       22200.00     97083.66
 1240.76        2969.00           2413       20560.00     89888.96
 1240.79        2969.25           2417       19349.00     84578.53
 1240.82        2969.50           2420       18166.00     79392.75
 1240.85        2969.75           2424       16399.00     71650.35
 1240.88        2970.00           2427       15153.00     66193.27
 1240.91        2970.25           2431       13556.00     59201.87
 1240.94        2970.50           2434       12477.00     54480.07
 1240.97        2970.75           2438       11013.00     48075.90
 1241.00        2971.00           2441        9826.00     42885.50
 1241.03        2971.25           2445        8423.00     36752.96
 1241.06        2971.50           2449        6848.00     29871.65
 1241.10        2971.75           2452        5665.00     24705.14
 1241.13        2972.00           2456        4065.00     17720.35
 1241.16        2972.25           2459        2951.00     12859.15
 1241.19        2972.50           2463        1586.00      6904.85
 1241.22        2972.75           2466         812.00      3529.63
 1241.25        2973.00           2470         287.00      1240.68
 1241.28        2973.25           2473         158.00       678.31
 1241.31        2973.50           2477         156.00       669.59
 1241.34        2973.75           2481         109.00       464.70
 1241.37        2974.00           2484         126.00       538.81
 1241.40        2974.25           2488         129.00       551.88
 1241.43        2974.50           2491         108.00       460.34
 1241.46        2974.75           2495         123.00       525.73
 1241.49        2975.00           2498          96.00       408.03
 1241.52        2975.25           2502         118.00       503.93
 1241.55        2975.50           2505          93.00       394.95
 1241.58        2975.75           2509          98.00       416.75
 1241.62        2976.00           2512          96.00       408.03
 1241.65        2976.25           2516          91.00       386.23
 1241.68        2976.50           2520          93.00       394.95
 1241.71        2976.75           2523          99.00       421.10
 1241.74        2977.00           2527          93.00       394.95
 1241.77        2977.25           2530          83.00       351.36
 1241.80        2977.50           2534         103.00       438.54
 1241.83        2977.75           2537          88.00       373.15
 1241.86        2978.00           2541          89.00       377.51
 1241.89        2978.25           2544          87.00       368.79
 1241.92        2978.50           2548          81.00       342.64
 1241.95        2978.75           2552          82.00       347.00
 1241.98        2979.00           2555          79.00       333.92
 1242.01        2979.25           2559          86.00       364.43
 1242.04        2979.50           2562          84.00       355.71
 1242.07        2979.75           2566          91.00       386.23
 1242.10        2980.00           2569          97.00       412.39
 1242.14        2980.25           2573          86.00       364.43
 1242.17        2980.50           2577          78.00       329.56
 1242.20        2980.75           2580          72.00       303.40
 1242.23        2981.00           2584          75.00       316.48
 1242.26        2981.25           2587          72.00       303.40
 1242.29        2981.50           2591          76.00       320.84
 1242.32        2981.75           2594          81.00       342.64
 1242.35        2982.00           2598          72.00       303.40
 1242.38        2982.25           2601          73.00       307.76
 1242.41        2982.50           2605          77.00       325.20
 1242.44        2982.75           2609          78.00       329.56
 1242.47        2983.00           2612          83.00       351.36
 1242.50        2983.25           2616          73.00       307.76
 1242.53        2983.50           2619          75.00       316.48
 1242.56        2983.75           2623          69.00       290.33
 1242.59        2984.00           2626          73.00       307.76
HS scan finished at 20:42:49
end
