************************************************************
  HS Scan of 
************************************************************
Integration time is 0.2294 seconds per sample
dh070517Reading 51.44 .94 3.11pr1000
************************************************************
Dead Time -------------------------  3.4E-08 
Number of Cycles Used -------------  4 
Starting Wavelength (Angstroms) ---  2950 
Final Wavelength (Angstoms) -------  2984 
Wavelength Increment (Angstroms) --  .25 
Filter Wheel #1 Position ---------- (1) Ground quartz diffuser (ND=2.32)
Filter Wheel #2 Position ---------- (1) Neutral Density 0.494



************************************************************
HS scan start time = 01:12:28
Dark Count =  1.1 


Time (GMT)  Wavelength (Ang)  Step Number  Raw Counts  Counts/Second

   73.36        2950.00           2144         601.00      2615.32
   73.56        2950.25           2147         623.00      2711.24
   73.59        2950.50           2151         613.00      2667.64
   73.62        2950.75           2155         624.00      2715.60
   73.65        2951.00           2158         629.00      2737.40
   73.68        2951.25           2162         660.00      2872.56
   73.71        2951.50           2165         659.00      2868.20
   73.74        2951.75           2169         614.00      2672.00
   73.77        2952.00           2172         634.00      2759.20
   73.80        2952.25           2176         614.00      2672.00
   73.83        2952.50           2179         622.00      2706.88
   73.86        2952.75           2183         652.00      2837.68
   73.89        2953.00           2186         641.00      2789.72
   73.93        2953.25           2190         639.00      2781.00
   73.96        2953.50           2193         680.00      2959.76
   73.99        2953.75           2197         634.00      2759.20
   74.02        2954.00           2200         664.00      2890.00
   74.05        2954.25           2204         664.00      2890.00
   74.08        2954.50           2208         668.00      2907.44
   74.11        2954.75           2211         667.00      2903.08
   74.14        2955.00           2215         675.00      2937.96
   74.17        2955.25           2218         669.00      2911.80
   74.20        2955.50           2222         685.00      2981.56
   74.23        2955.75           2225         675.00      2937.96
   74.26        2956.00           2229         704.00      3064.40
   74.29        2956.25           2232         685.00      2981.56
   74.32        2956.50           2236         698.00      3038.24
   74.35        2956.75           2239         689.00      2999.00
   74.38        2957.00           2243         736.00      3203.92
   74.41        2957.25           2246         699.00      3042.60
   74.45        2957.50           2250         747.00      3251.89
   74.48        2957.75           2254         700.00      3046.96
   74.51        2958.00           2257         761.00      3312.93
   74.54        2958.25           2261         715.00      3112.36
   74.57        2958.50           2264         761.00      3312.93
   74.60        2958.75           2268         746.00      3247.53
   74.63        2959.00           2271         778.00      3387.05
   74.66        2959.25           2275         779.00      3391.41
   74.69        2959.50           2278         794.00      3456.81
   74.72        2959.75           2282         813.00      3539.66
   74.75        2960.00           2285         827.00      3600.70
   74.78        2960.25           2289         888.00      3866.68
   74.81        2960.50           2293         871.00      3792.56
   74.84        2960.75           2296         882.00      3840.52
   74.87        2961.00           2300        1063.00      4629.76
   74.90        2961.25           2303        1854.00      8079.38
   74.93        2961.50           2307        6669.00     29095.46
   74.97        2961.75           2310       13293.00     58056.52
   75.00        2962.00           2314       24053.00    105222.80
   75.03        2962.25           2317       33206.00    145464.40
   75.06        2962.50           2321       45652.00    200361.60
   75.09        2962.75           2324       54782.00    240763.60
   75.12        2963.00           2328       65771.00    289540.40
   75.15        2963.25           2331       73674.00    324720.10
   75.18        2963.50           2335       87630.00    387051.90
   75.21        2963.75           2339      100809.00    446158.50
   75.24        2964.00           2342      110007.00    487553.00
   75.27        2964.25           2346      122005.00    541725.70
   75.30        2964.50           2349      130640.00    580839.00
   75.33        2964.75           2353      141628.00    630763.10
   75.36        2965.00           2356      150237.00    669998.10
   75.39        2965.25           2360      162348.00    725373.20
   75.42        2965.50           2363      171768.00    768590.60
   75.45        2965.75           2367      182668.00    818759.30
   75.48        2966.00           2370      190762.00    856125.60
   75.52        2966.25           2374      199933.00    898580.90
   75.55        2966.50           2378      204249.00    918604.00
   75.58        2966.75           2381      206050.00    926967.50
   75.61        2967.00           2385      206091.00    927157.90
   75.64        2967.25           2388      206172.00    927534.20
   75.67        2967.50           2392      205500.00    924412.90
   75.70        2967.75           2395      204822.00    921264.40
   75.73        2968.00           2399      198271.00    890877.80
   75.76        2968.25           2402      191472.00    859408.10
   75.79        2968.50           2406      182306.00    817090.50
   75.82        2968.75           2409      174327.00    780353.20
   75.85        2969.00           2413      162419.00    725698.50
   75.88        2969.25           2417      150217.00    669906.80
   75.91        2969.50           2420      141851.00    631778.00
   75.94        2969.75           2424      129806.00    577056.70
   75.97        2970.00           2427      121930.00    541386.40
   76.00        2970.25           2431      109984.00    487449.30
   76.04        2970.50           2434      100394.00    444293.60
   76.07        2970.75           2438       86609.00    382482.70
   76.10        2971.00           2441       77445.00    341536.40
   76.13        2971.25           2445       65782.00    289589.30
   76.16        2971.50           2449       55509.00    243985.50
   76.19        2971.75           2452       46625.00    204662.00
   76.22        2972.00           2456       34055.00    149202.70
   76.25        2972.25           2459       24870.00    108810.30
   76.28        2972.50           2463       13669.00     59702.15
   76.31        2972.75           2466        6465.00     28204.45
   76.34        2973.00           2470        1718.00      7486.21
   76.37        2973.25           2473        1072.00      4669.01
   76.40        2973.50           2477         947.00      4123.94
   76.43        2973.75           2481         879.00      3827.44
   76.46        2974.00           2484         871.00      3792.56
   76.49        2974.25           2488         841.00      3661.75
   76.52        2974.50           2491         840.00      3657.39
   76.56        2974.75           2495         818.00      3561.46
   76.59        2975.00           2498         817.00      3557.10
   76.62        2975.25           2502         818.00      3561.46
   76.65        2975.50           2505         772.00      3360.89
   76.68        2975.75           2509         768.00      3343.45
   76.71        2976.00           2512         762.00      3317.29
   76.74        2976.25           2516         767.00      3339.09
   76.77        2976.50           2520         748.00      3256.25
   76.80        2976.75           2523         716.00      3116.72
   76.83        2977.00           2527         723.00      3147.24
   76.86        2977.25           2530         730.00      3177.76
   76.89        2977.50           2534         713.00      3103.64
   76.92        2977.75           2537         719.00      3129.80
   76.95        2978.00           2541         690.00      3003.36
   76.98        2978.25           2544         690.00      3003.36
   77.01        2978.50           2548         680.00      2959.76
   77.04        2978.75           2552         681.00      2964.12
   77.08        2979.00           2555         676.00      2942.32
   77.11        2979.25           2559         674.00      2933.60
   77.14        2979.50           2562         680.00      2959.76
   77.17        2979.75           2566         663.00      2885.64
   77.20        2980.00           2569         650.00      2828.96
   77.23        2980.25           2573         678.00      2951.04
   77.26        2980.50           2577         657.00      2859.48
   77.29        2980.75           2580         634.00      2759.20
   77.32        2981.00           2584         649.00      2824.60
   77.35        2981.25           2587         613.00      2667.64
   77.38        2981.50           2591         615.00      2676.36
   77.41        2981.75           2594         626.00      2724.32
   77.44        2982.00           2598         613.00      2667.64
   77.47        2982.25           2601         614.00      2672.00
   77.50        2982.50           2605         602.00      2619.68
   77.53        2982.75           2609         605.00      2632.76
   77.56        2983.00           2612         609.00      2650.20
   77.60        2983.25           2616         636.00      2767.92
   77.63        2983.50           2619         640.00      2785.36
   77.66        2983.75           2623         600.00      2610.96
   77.69        2984.00           2626         599.00      2606.60
HS scan finished at 01:17:54
end
************************************************************
  HS Scan of 
************************************************************
Integration time is 0.2294 seconds per sample
dh070517Reading 51.44 .94 3.47pr1000
************************************************************
Dead Time -------------------------  3.4E-08 
Number of Cycles Used -------------  4 
Starting Wavelength (Angstroms) ---  2950 
Final Wavelength (Angstoms) -------  2984 
Wavelength Increment (Angstroms) --  .25 
Filter Wheel #1 Position ---------- (1) Ground quartz diffuser (ND=2.32)
Filter Wheel #2 Position ---------- (1) Neutral Density 0.494



************************************************************
HS scan start time = 20:37:25
Dark Count =  3.5 


Time (GMT)  Wavelength (Ang)  Step Number  Raw Counts  Counts/Second

 1238.32        2950.00           2144         504.00      2181.94
 1238.51        2950.25           2147         519.00      2247.34
 1238.54        2950.50           2151         528.00      2286.58
 1238.57        2950.75           2155         505.00      2186.30
 1238.60        2951.00           2158         500.00      2164.50
 1238.63        2951.25           2162         515.00      2229.90
 1238.67        2951.50           2165         520.00      2251.70
 1238.70        2951.75           2169         493.00      2133.98
 1238.73        2952.00           2172         518.00      2242.98
 1238.76        2952.25           2176         506.00      2190.66
 1238.80        2952.50           2179         528.00      2286.58
 1238.83        2952.75           2183         535.00      2317.10
 1238.86        2953.00           2186         503.00      2177.58
 1238.89        2953.25           2190         520.00      2251.70
 1238.93        2953.50           2193         551.00      2386.85
 1238.96        2953.75           2197         535.00      2317.10
 1238.99        2954.00           2200         534.00      2312.74
 1239.02        2954.25           2204         537.00      2325.82
 1239.05        2954.50           2208         553.00      2395.57
 1239.08        2954.75           2211         543.00      2351.98
 1239.11        2955.00           2215         571.00      2474.05
 1239.14        2955.25           2218         543.00      2351.98
 1239.17        2955.50           2222         539.00      2334.54
 1239.20        2955.75           2225         608.00      2635.37
 1239.23        2956.00           2229         566.00      2452.25
 1239.26        2956.25           2232         563.00      2439.17
 1239.29        2956.50           2236         566.00      2452.25
 1239.32        2956.75           2239         570.00      2469.69
 1239.35        2957.00           2243         561.00      2430.45
 1239.38        2957.25           2246         597.00      2587.41
 1239.41        2957.50           2250         601.00      2604.85
 1239.44        2957.75           2254         595.00      2578.69
 1239.48        2958.00           2257         612.00      2652.81
 1239.51        2958.25           2261         640.00      2774.89
 1239.54        2958.50           2264         607.00      2631.01
 1239.57        2958.75           2268         644.00      2792.33
 1239.60        2959.00           2271         652.00      2827.21
 1239.63        2959.25           2275         647.00      2805.41
 1239.66        2959.50           2278         639.00      2770.53
 1239.69        2959.75           2282         673.00      2918.77
 1239.72        2960.00           2285         677.00      2936.21
 1239.75        2960.25           2289         709.00      3075.74
 1239.78        2960.50           2293         727.00      3154.22
 1239.81        2960.75           2296         715.00      3101.90
 1239.84        2961.00           2300         803.00      3485.59
 1239.87        2961.25           2303        1284.00      5583.01
 1239.90        2961.50           2307        4770.00     20792.81
 1239.93        2961.75           2310        9975.00     43532.13
 1239.96        2962.00           2314       18459.00     80672.15
 1240.00        2962.25           2317       26152.00    114430.90
 1240.03        2962.50           2321       36528.00    160086.50
 1240.06        2962.75           2324       43875.00    192500.40
 1240.09        2963.00           2328       53815.00    236468.60
 1240.12        2963.25           2331       61415.00    270175.30
 1240.15        2963.50           2335       73137.00    322316.30
 1240.18        2963.75           2339       84351.00    372372.20
 1240.21        2964.00           2342       92663.00    409585.40
 1240.24        2964.25           2346      103929.00    460175.70
 1240.27        2964.50           2349      110619.00    490300.60
 1240.30        2964.75           2353      120824.00    536373.50
 1240.33        2965.00           2356      128663.00    571863.80
 1240.36        2965.25           2360      139269.00    620019.50
 1240.39        2965.50           2363      146407.00    652519.00
 1240.42        2965.75           2367      156659.00    699324.10
 1240.45        2966.00           2370      163795.00    731992.40
 1240.48        2966.25           2374      172254.00    770812.90
 1240.52        2966.50           2378      178348.00    798844.20
 1240.55        2966.75           2381      179873.00    805867.30
 1240.58        2967.00           2385      180129.00    807046.70
 1240.61        2967.25           2388      180546.00    808967.90
 1240.64        2967.50           2392      180503.00    808769.80
 1240.67        2967.75           2395      179818.00    805614.00
 1240.71        2968.00           2399      176223.00    789063.40
 1240.74        2968.25           2402      170900.00    764592.00
 1240.77        2968.50           2406      161794.00    722824.50
 1240.80        2968.75           2409      154970.00    691602.60
 1240.83        2969.00           2413      145269.00    647332.80
 1240.86        2969.25           2417      131103.00    582928.30
 1240.89        2969.50           2420      127407.00    566171.60
 1240.92        2969.75           2424      117425.00    521011.70
 1240.95        2970.00           2427      109938.00    487231.20
 1240.98        2970.25           2431       98608.00    436259.70
 1241.01        2970.50           2434       91073.00    402459.50
 1241.04        2970.75           2438       80719.00    356141.30
 1241.07        2971.00           2441       72099.00    317691.70
 1241.10        2971.25           2445       61422.00    270206.40
 1241.13        2971.50           2449       50006.00    219604.40
 1241.16        2971.75           2452       42050.00    184442.00
 1241.19        2972.00           2456       31663.00    138662.20
 1241.23        2972.25           2459       24142.00    105603.00
 1241.26        2972.50           2463       14345.00     62650.75
 1241.29        2972.75           2466        7685.00     33523.37
 1241.32        2973.00           2470        2118.00      9220.41
 1241.35        2973.25           2473        1080.00      4693.43
 1241.38        2973.50           2477         817.00      3546.64
 1241.41        2973.75           2481         791.00      3433.27
 1241.44        2974.00           2484         761.00      3302.46
 1241.47        2974.25           2488         740.00      3210.90
 1241.50        2974.50           2491         727.00      3154.22
 1241.53        2974.75           2495         708.00      3071.38
 1241.56        2975.00           2498         691.00      2997.25
 1241.59        2975.25           2502         688.00      2984.17
 1241.62        2975.50           2505         668.00      2896.97
 1241.65        2975.75           2509         650.00      2818.49
 1241.68        2976.00           2512         648.00      2809.77
 1241.71        2976.25           2516         630.00      2731.29
 1241.75        2976.50           2520         634.00      2748.73
 1241.78        2976.75           2523         629.00      2726.93
 1241.81        2977.00           2527         658.00      2853.37
 1241.84        2977.25           2530         618.00      2678.97
 1241.87        2977.50           2534         599.00      2596.13
 1241.90        2977.75           2537         590.00      2556.89
 1241.93        2978.00           2541         582.00      2522.01
 1241.96        2978.25           2544         587.00      2543.81
 1242.00        2978.50           2548         585.00      2535.09
 1242.03        2978.75           2552         580.00      2513.29
 1242.06        2979.00           2555         560.00      2426.09
 1242.09        2979.25           2559         567.00      2456.61
 1242.12        2979.50           2562         572.00      2478.41
 1242.15        2979.75           2566         564.00      2443.53
 1242.18        2980.00           2569         560.00      2426.09
 1242.21        2980.25           2573         552.00      2391.21
 1242.24        2980.50           2577         548.00      2373.78
 1242.27        2980.75           2580         531.00      2299.66
 1242.30        2981.00           2584         542.00      2347.62
 1242.33        2981.25           2587         537.00      2325.82
 1242.36        2981.50           2591         515.00      2229.90
 1242.39        2981.75           2594         544.00      2356.34
 1242.42        2982.00           2598         530.00      2295.30
 1242.46        2982.25           2601         543.00      2351.98
 1242.49        2982.50           2605         533.00      2308.38
 1242.52        2982.75           2609         513.00      2221.18
 1242.55        2983.00           2612         509.00      2203.74
 1242.59        2983.25           2616         495.00      2142.70
 1242.62        2983.50           2619         521.00      2256.06
 1242.65        2983.75           2623         489.00      2116.54
 1242.68        2984.00           2626         500.00      2164.50
HS scan finished at 20:42:54
end
