************************************************************
  HS Scan of 
************************************************************
Integration time is 0.2294 seconds per sample
dh060517Reading 51.44 .94 3.11pr1000
************************************************************
Dead Time -------------------------  3.4E-08 
Number of Cycles Used -------------  4 
Starting Wavelength (Angstroms) ---  2950 
Final Wavelength (Angstoms) -------  2984 
Wavelength Increment (Angstroms) --  .25 
Filter Wheel #1 Position ---------- (1) Ground quartz diffuser (ND=2.32)
Filter Wheel #2 Position ---------- (1) Neutral Density 0.494



************************************************************
HS scan start time = 01:09:12
Dark Count =  1 


Time (GMT)  Wavelength (Ang)  Step Number  Raw Counts  Counts/Second

   70.10        2950.00           2144         519.00      2258.24
   70.29        2950.25           2147         522.00      2271.32
   70.32        2950.50           2151         530.00      2306.20
   70.35        2950.75           2155         517.00      2249.52
   70.38        2951.00           2158         505.00      2197.20
   70.41        2951.25           2162         530.00      2306.20
   70.44        2951.50           2165         500.00      2175.40
   70.47        2951.75           2169         522.00      2271.32
   70.50        2952.00           2172         553.00      2406.47
   70.53        2952.25           2176         512.00      2227.72
   70.57        2952.50           2179         514.00      2236.44
   70.60        2952.75           2183         546.00      2375.96
   70.63        2953.00           2186         543.00      2362.88
   70.66        2953.25           2190         555.00      2415.19
   70.69        2953.50           2193         540.00      2349.80
   70.72        2953.75           2197         561.00      2441.35
   70.75        2954.00           2200         535.00      2328.00
   70.78        2954.25           2204         571.00      2484.95
   70.81        2954.50           2208         563.00      2450.07
   70.84        2954.75           2211         568.00      2471.87
   70.87        2955.00           2215         565.00      2458.79
   70.90        2955.25           2218         579.00      2519.83
   70.93        2955.50           2222         609.00      2650.63
   70.96        2955.75           2225         581.00      2528.55
   70.99        2956.00           2229         588.00      2559.07
   71.02        2956.25           2232         583.00      2537.27
   71.05        2956.50           2236         608.00      2646.27
   71.09        2956.75           2239         591.00      2572.15
   71.12        2957.00           2243         614.00      2672.43
   71.15        2957.25           2246         607.00      2641.91
   71.18        2957.50           2250         621.00      2702.95
   71.21        2957.75           2254         627.00      2729.11
   71.24        2958.00           2257         661.00      2877.35
   71.27        2958.25           2261         648.00      2820.67
   71.30        2958.50           2264         665.00      2894.79
   71.33        2958.75           2268         666.00      2899.15
   71.36        2959.00           2271         675.00      2938.39
   71.39        2959.25           2275         682.00      2968.91
   71.42        2959.50           2278         682.00      2968.91
   71.45        2959.75           2282         665.00      2894.79
   71.48        2960.00           2285         695.00      3025.59
   71.51        2960.25           2289         733.00      3191.28
   71.54        2960.50           2293         717.00      3121.52
   71.57        2960.75           2296         769.00      3348.25
   71.61        2961.00           2300         870.00      3788.63
   71.64        2961.25           2303        1374.00      5986.40
   71.67        2961.50           2307        5506.00     24016.99
   71.70        2961.75           2310       10916.00     47657.81
   71.73        2962.00           2314       19842.00     86746.33
   71.76        2962.25           2317       27615.00    120870.60
   71.79        2962.50           2321       37900.00    166145.20
   71.82        2962.75           2324       46236.00    202943.00
   71.85        2963.00           2328       58168.00    255776.20
   71.88        2963.25           2331       66100.00    291003.70
   71.91        2963.50           2335       76268.00    336286.10
   71.94        2963.75           2339       86789.00    383288.60
   71.97        2964.00           2342       94849.00    419399.30
   72.00        2964.25           2346      106200.00    470406.20
   72.03        2964.50           2349      113901.00    505113.40
   72.06        2964.75           2353      123579.00    548848.00
   72.09        2965.00           2356      130498.00    580195.40
   72.13        2965.25           2360      140126.00    623929.00
   72.16        2965.50           2363      148335.00    661321.10
   72.19        2965.75           2367      159198.00    710950.60
   72.22        2966.00           2370      166412.00    744002.90
   72.25        2966.25           2374      175175.00    784253.60
   72.28        2966.50           2378      180628.00    809357.20
   72.31        2966.75           2381      182273.00    816938.70
   72.34        2967.00           2385      182783.00    819290.10
   72.37        2967.25           2388      182574.00    818326.40
   72.40        2967.50           2392      182488.00    817930.00
   72.43        2967.75           2395      182288.00    817007.90
   72.46        2968.00           2399      178269.00    798492.00
   72.49        2968.25           2402      171754.00    768526.70
   72.52        2968.50           2406      163052.00    728599.00
   72.55        2968.75           2409      156103.00    696793.20
   72.58        2969.00           2413      147108.00    655726.00
   72.61        2969.25           2417      136945.00    609465.30
   72.64        2969.50           2420      128601.00    571594.10
   72.68        2969.75           2424      117467.00    521212.70
   72.71        2970.00           2427      109141.00    483651.10
   72.74        2970.25           2431       98520.00    435875.80
   72.77        2970.50           2434       90704.00    400817.60
   72.80        2970.75           2438       79860.00    352316.30
   72.83        2971.00           2441       71335.00    314299.80
   72.86        2971.25           2445       58747.00    258344.80
   72.89        2971.50           2449       47452.00    208318.60
   72.92        2971.75           2452       39531.00    173337.70
   72.95        2972.00           2456       28964.00    126800.90
   72.98        2972.25           2459       21269.00     93005.06
   73.01        2972.50           2463       12214.00     53335.52
   73.04        2972.75           2466        6441.00     28100.07
   73.07        2973.00           2470        2055.00      8956.52
   73.10        2973.25           2473        1070.00      4660.72
   73.13        2973.50           2477         833.00      3627.30
   73.16        2973.75           2481         791.00      3444.17
   73.20        2974.00           2484         757.00      3295.92
   73.23        2974.25           2488         745.00      3243.60
   73.26        2974.50           2491         756.00      3291.56
   73.29        2974.75           2495         730.00      3178.20
   73.32        2975.00           2498         715.00      3112.80
   73.35        2975.25           2502         690.00      3003.79
   73.38        2975.50           2505         684.00      2977.63
   73.41        2975.75           2509         708.00      3082.28
   73.44        2976.00           2512         683.00      2973.27
   73.47        2976.25           2516         684.00      2977.63
   73.50        2976.50           2520         654.00      2846.83
   73.53        2976.75           2523         672.00      2925.31
   73.56        2977.00           2527         673.00      2929.67
   73.59        2977.25           2530         628.00      2733.47
   73.62        2977.50           2534         610.00      2654.99
   73.65        2977.75           2537         612.00      2663.71
   73.69        2978.00           2541         633.00      2755.27
   73.72        2978.25           2544         595.00      2589.59
   73.75        2978.50           2548         600.00      2611.39
   73.78        2978.75           2552         595.00      2589.59
   73.81        2979.00           2555         576.00      2506.75
   73.84        2979.25           2559         582.00      2532.91
   73.87        2979.50           2562         560.00      2436.99
   73.90        2979.75           2566         607.00      2641.91
   73.93        2980.00           2569         559.00      2432.63
   73.96        2980.25           2573         589.00      2563.43
   73.99        2980.50           2577         564.00      2454.43
   74.02        2980.75           2580         566.00      2463.15
   74.05        2981.00           2584         555.00      2415.19
   74.08        2981.25           2587         557.00      2423.91
   74.11        2981.50           2591         533.00      2319.28
   74.14        2981.75           2594         525.00      2284.40
   74.17        2982.00           2598         547.00      2380.31
   74.20        2982.25           2601         533.00      2319.28
   74.24        2982.50           2605         525.00      2284.40
   74.27        2982.75           2609         543.00      2362.88
   74.30        2983.00           2612         526.00      2288.76
   74.33        2983.25           2616         539.00      2345.44
   74.36        2983.50           2619         502.00      2184.12
   74.39        2983.75           2623         534.00      2323.64
   74.42        2984.00           2626         529.00      2301.84
HS scan finished at 01:14:38
end
************************************************************
  HS Scan of 
************************************************************
Integration time is 0.2294 seconds per sample
dh060517Reading 51.44 .94 3.29pr1000
************************************************************
Dead Time -------------------------  3.4E-08 
Number of Cycles Used -------------  4 
Starting Wavelength (Angstroms) ---  2950 
Final Wavelength (Angstoms) -------  2984 
Wavelength Increment (Angstroms) --  .25 
Filter Wheel #1 Position ---------- (1) Ground quartz diffuser (ND=2.32)
Filter Wheel #2 Position ---------- (1) Neutral Density 0.494



************************************************************
HS scan start time = 20:37:21
Dark Count =  2 


Time (GMT)  Wavelength (Ang)  Step Number  Raw Counts  Counts/Second

 1238.25        2950.00           2144         564.00      2450.07
 1238.44        2950.25           2147         562.00      2441.35
 1238.47        2950.50           2151         541.00      2349.80
 1238.50        2950.75           2155         575.00      2498.03
 1238.53        2951.00           2158         559.00      2428.27
 1238.56        2951.25           2162         560.00      2432.63
 1238.59        2951.50           2165         559.00      2428.27
 1238.63        2951.75           2169         559.00      2428.27
 1238.66        2952.00           2172         552.00      2397.75
 1238.69        2952.25           2176         580.00      2519.83
 1238.72        2952.50           2179         583.00      2532.91
 1238.75        2952.75           2183         567.00      2463.15
 1238.78        2953.00           2186         584.00      2537.27
 1238.81        2953.25           2190         587.00      2550.35
 1238.84        2953.50           2193         570.00      2476.23
 1238.87        2953.75           2197         609.00      2646.27
 1238.90        2954.00           2200         581.00      2524.19
 1238.93        2954.25           2204         572.00      2484.95
 1238.96        2954.50           2208         618.00      2685.51
 1238.99        2954.75           2211         577.00      2506.75
 1239.02        2955.00           2215         599.00      2602.67
 1239.05        2955.25           2218         561.00      2436.99
 1239.08        2955.50           2222         630.00      2737.83
 1239.11        2955.75           2225         625.00      2716.03
 1239.15        2956.00           2229         604.00      2624.47
 1239.18        2956.25           2232         617.00      2681.15
 1239.21        2956.50           2236         639.00      2777.07
 1239.24        2956.75           2239         651.00      2829.39
 1239.27        2957.00           2243         631.00      2742.19
 1239.30        2957.25           2246         629.00      2733.47
 1239.33        2957.50           2250         639.00      2777.07
 1239.36        2957.75           2254         677.00      2942.75
 1239.39        2958.00           2257         679.00      2951.47
 1239.42        2958.25           2261         683.00      2968.91
 1239.45        2958.50           2264         675.00      2934.03
 1239.48        2958.75           2268         687.00      2986.35
 1239.51        2959.00           2271         692.00      3008.15
 1239.54        2959.25           2275         695.00      3021.23
 1239.57        2959.50           2278         714.00      3104.08
 1239.60        2959.75           2282         725.00      3152.04
 1239.63        2960.00           2285         736.00      3200.00
 1239.67        2960.25           2289         761.00      3309.00
 1239.70        2960.50           2293         759.00      3300.28
 1239.73        2960.75           2296         808.00      3513.93
 1239.76        2961.00           2300         874.00      3801.71
 1239.79        2961.25           2303        1226.00      5336.63
 1239.82        2961.50           2307        4366.00     19035.86
 1239.85        2961.75           2310        9747.00     42541.87
 1239.88        2962.00           2314       19524.00     85347.57
 1239.91        2962.25           2317       27474.00    120246.50
 1239.94        2962.50           2321       38123.00    167123.90
 1239.97        2962.75           2324       45882.00    201374.00
 1240.00        2963.00           2328       56111.00    246650.00
 1240.03        2963.25           2331       63975.00    281553.40
 1240.06        2963.50           2335       75812.00    334247.80
 1240.09        2963.75           2339       87541.00    386649.50
 1240.12        2964.00           2342       95799.00    423656.90
 1240.15        2964.25           2346      106787.00    473044.30
 1240.19        2964.50           2349      114316.00    506981.50
 1240.22        2964.75           2353      124902.00    554832.20
 1240.25        2965.00           2356      133266.00    592750.60
 1240.28        2965.25           2360      144321.00    643020.80
 1240.31        2965.50           2363      152508.00    680361.60
 1240.34        2965.75           2367      162338.00    725323.10
 1240.37        2966.00           2370      169269.00    757108.90
 1240.40        2966.25           2374      178395.00    799067.50
 1240.43        2966.50           2378      183605.00    823076.00
 1240.46        2966.75           2381      185382.00    831273.80
 1240.49        2967.00           2385      186283.00    835432.10
 1240.52        2967.25           2388      185352.00    831135.30
 1240.55        2967.50           2392      186152.00    834827.50
 1240.58        2967.75           2395      184642.00    827859.30
 1240.61        2968.00           2399      180368.00    808154.70
 1240.64        2968.25           2402      174892.00    782947.40
 1240.67        2968.50           2406      166324.00    743594.60
 1240.71        2968.75           2409      159294.00    711385.30
 1240.74        2969.00           2413      148756.00    663236.80
 1240.77        2969.25           2417      138584.00    616911.30
 1240.80        2969.50           2420      130234.00    578993.50
 1240.83        2969.75           2424      119501.00    530399.10
 1240.86        2970.00           2427      111830.00    495767.10
 1240.89        2970.25           2431      101445.00    449012.90
 1240.92        2970.50           2434       92783.00    410130.10
 1240.95        2970.75           2438       80916.00    357027.90
 1240.98        2971.00           2441       72519.00    319569.40
 1241.01        2971.25           2445       61629.00    271132.20
 1241.04        2971.50           2449       51217.00    224970.60
 1241.07        2971.75           2452       43212.00    189579.00
 1241.10        2972.00           2456       33435.00    146468.70
 1241.13        2972.25           2459       25754.00    112689.00
 1241.16        2972.50           2463       15249.00     66615.41
 1241.19        2972.75           2466        8149.00     35557.35
 1241.23        2973.00           2470        2241.00      9763.48
 1241.26        2973.25           2473        1070.00      4656.36
 1241.29        2973.50           2477         863.00      3753.75
 1241.32        2973.75           2481         831.00      3614.22
 1241.35        2974.00           2484         801.00      3483.41
 1241.38        2974.25           2488         759.00      3300.28
 1241.41        2974.50           2491         763.00      3317.72
 1241.44        2974.75           2495         738.00      3208.72
 1241.47        2975.00           2498         723.00      3143.32
 1241.50        2975.25           2502         733.00      3186.92
 1241.53        2975.50           2505         743.00      3230.52
 1241.56        2975.75           2509         682.00      2964.55
 1241.59        2976.00           2512         713.00      3099.72
 1241.62        2976.25           2516         688.00      2990.71
 1241.65        2976.50           2520         689.00      2995.07
 1241.68        2976.75           2523         655.00      2846.83
 1241.71        2977.00           2527         662.00      2877.35
 1241.74        2977.25           2530         656.00      2851.19
 1241.78        2977.50           2534         659.00      2864.27
 1241.81        2977.75           2537         651.00      2829.39
 1241.84        2978.00           2541         649.00      2820.67
 1241.87        2978.25           2544         600.00      2607.03
 1241.90        2978.50           2548         617.00      2681.15
 1241.93        2978.75           2552         625.00      2716.03
 1241.96        2979.00           2555         615.00      2672.43
 1241.99        2979.25           2559         590.00      2563.43
 1242.02        2979.50           2562         607.00      2637.55
 1242.05        2979.75           2566         608.00      2641.91
 1242.08        2980.00           2569         591.00      2567.79
 1242.11        2980.25           2573         596.00      2589.59
 1242.14        2980.50           2577         580.00      2519.83
 1242.17        2980.75           2580         565.00      2454.43
 1242.20        2981.00           2584         564.00      2450.07
 1242.23        2981.25           2587         587.00      2550.35
 1242.26        2981.50           2591         567.00      2463.15
 1242.30        2981.75           2594         561.00      2436.99
 1242.33        2982.00           2598         573.00      2489.31
 1242.36        2982.25           2601         555.00      2410.83
 1242.39        2982.50           2605         560.00      2432.63
 1242.42        2982.75           2609         570.00      2476.23
 1242.45        2983.00           2612         541.00      2349.80
 1242.48        2983.25           2616         549.00      2384.67
 1242.51        2983.50           2619         527.00      2288.76
 1242.54        2983.75           2623         544.00      2362.88
 1242.57        2984.00           2626         545.00      2367.23
HS scan finished at 20:42:48
end
