************************************************************
  HS Scan of (1) Internal mercury lamp
************************************************************
Integration time is 0.2294 seconds per sample
dh050518Reading 51.44 .94 3.13pr1000
************************************************************
Dead Time -------------------------  3.4E-08 
Number of Cycles Used -------------  4 
Starting Wavelength (Angstroms) ---  2950 
Final Wavelength (Angstoms) -------  2984 
Wavelength Increment (Angstroms) --  .25 
Filter Wheel #1 Position ---------- (1) Ground quartz diffuser (ND=2.32)
Filter Wheel #2 Position ---------- (1) Neutral Density 0.494



************************************************************
HS scan start time = 01:04:32
Dark Count =  1 


Time (GMT)  Wavelength (Ang)  Step Number  Raw Counts  Counts/Second

   65.44        2950.00           2144          96.00       414.13
   65.63        2950.25           2147         108.00       466.44
   65.66        2950.50           2151          85.00       366.18
   65.69        2950.75           2155          87.00       374.90
   65.72        2951.00           2158          84.00       361.82
   65.75        2951.25           2162          88.00       379.26
   65.78        2951.50           2165          94.00       405.41
   65.81        2951.75           2169         119.00       514.39
   65.84        2952.00           2172          91.00       392.33
   65.88        2952.25           2176         120.00       518.75
   65.91        2952.50           2179          92.00       396.69
   65.94        2952.75           2183         107.00       462.08
   65.97        2953.00           2186         103.00       444.64
   66.00        2953.25           2190          85.00       366.18
   66.03        2953.50           2193          92.00       396.69
   66.06        2953.75           2197         122.00       527.47
   66.09        2954.00           2200         101.00       435.93
   66.12        2954.25           2204          99.00       427.21
   66.15        2954.50           2208         107.00       462.08
   66.18        2954.75           2211         112.00       483.88
   66.21        2955.00           2215          98.00       422.85
   66.24        2955.25           2218         100.00       431.57
   66.27        2955.50           2222         108.00       466.44
   66.30        2955.75           2225         102.00       440.29
   66.33        2956.00           2229         104.00       449.00
   66.36        2956.25           2232         107.00       462.08
   66.40        2956.50           2236         121.00       523.11
   66.43        2956.75           2239         108.00       466.44
   66.46        2957.00           2243         101.00       435.93
   66.49        2957.25           2246         109.00       470.80
   66.52        2957.50           2250         120.00       518.75
   66.55        2957.75           2254         134.00       579.78
   66.58        2958.00           2257         103.00       444.64
   66.61        2958.25           2261         138.00       597.22
   66.64        2958.50           2264         131.00       566.71
   66.67        2958.75           2268         119.00       514.39
   66.70        2959.00           2271         139.00       601.58
   66.73        2959.25           2275         129.00       557.99
   66.76        2959.50           2278         127.00       549.27
   66.79        2959.75           2282         154.00       666.97
   66.82        2960.00           2285         122.00       527.47
   66.85        2960.25           2289         175.00       758.52
   66.88        2960.50           2293         137.00       592.86
   66.92        2960.75           2296         137.00       592.86
   66.95        2961.00           2300         148.00       640.82
   66.98        2961.25           2303         226.00       980.85
   67.01        2961.50           2307         791.00      3444.17
   67.04        2961.75           2310        1820.00      7931.52
   67.07        2962.00           2314        3639.00     15867.32
   67.10        2962.25           2317        4927.00     21489.10
   67.13        2962.50           2321        6670.00     29100.27
   67.16        2962.75           2324        8109.00     35386.93
   67.19        2963.00           2328        9976.00     43547.43
   67.22        2963.25           2331       11379.00     49682.81
   67.25        2963.50           2335       13230.00     57781.24
   67.28        2963.75           2339       15052.00     65757.15
   67.31        2964.00           2342       16828.00     73535.86
   67.34        2964.25           2346       18791.00     82138.40
   67.37        2964.50           2349       20335.00     88908.28
   67.40        2964.75           2353       22009.00     96251.69
   67.44        2965.00           2356       23469.00    102659.40
   67.47        2965.25           2360       25327.00    110817.80
   67.50        2965.50           2363       26885.00    117662.50
   67.53        2965.75           2367       28757.00    125890.80
   67.56        2966.00           2370       29997.00    131343.70
   67.59        2966.25           2374       31983.00    140081.50
   67.62        2966.50           2378       32839.00    143849.20
   67.65        2966.75           2381       33282.00    145799.40
   67.68        2967.00           2385       33566.00    147049.90
   67.71        2967.25           2388       33634.00    147349.30
   67.74        2967.50           2392       33354.00    146116.40
   67.77        2967.75           2395       32973.00    144439.10
   67.80        2968.00           2399       32149.00    140812.10
   67.83        2968.25           2402       31275.00    136965.90
   67.86        2968.50           2406       29239.00    128010.20
   67.89        2968.75           2409       28038.00    122729.90
   67.92        2969.00           2413       26267.00    114947.10
   67.96        2969.25           2417       24355.00    106549.20
   67.99        2969.50           2420       22688.00     99231.36
   68.02        2969.75           2424       20765.00     90794.24
   68.05        2970.00           2427       19111.00     83541.23
   68.08        2970.25           2431       17261.00     75432.98
   68.11        2970.50           2434       15868.00     69330.63
   68.14        2970.75           2438       13727.00     59956.45
   68.17        2971.00           2441       12211.00     53322.39
   68.20        2971.25           2445       10196.00     44509.33
   68.23        2971.50           2449        8314.00     36282.74
   68.26        2971.75           2452        6862.00     29938.92
   68.29        2972.00           2456        5057.00     22056.64
   68.32        2972.25           2459        3743.00     16321.17
   68.35        2972.50           2463        2004.00      8734.07
   68.38        2972.75           2466         957.00      4167.98
   68.41        2973.00           2470         279.00      1211.91
   68.44        2973.25           2473         160.00       693.13
   68.48        2973.50           2477         156.00       675.69
   68.51        2973.75           2481         154.00       666.97
   68.54        2974.00           2484         149.00       645.18
   68.57        2974.25           2488         143.00       619.02
   68.60        2974.50           2491         127.00       549.27
   68.63        2974.75           2495         135.00       584.14
   68.66        2975.00           2498         128.00       553.63
   68.69        2975.25           2502         134.00       579.78
   68.72        2975.50           2505         134.00       579.78
   68.75        2975.75           2509         133.00       575.43
   68.78        2976.00           2512         133.00       575.43
   68.81        2976.25           2516         115.00       496.96
   68.84        2976.50           2520         116.00       501.32
   68.87        2976.75           2523         115.00       496.96
   68.90        2977.00           2527         109.00       470.80
   68.93        2977.25           2530         110.00       475.16
   68.96        2977.50           2534         122.00       527.47
   68.99        2977.75           2537         128.00       553.63
   69.03        2978.00           2541         117.00       505.68
   69.06        2978.25           2544         103.00       444.64
   69.09        2978.50           2548         111.00       479.52
   69.13        2978.75           2552         107.00       462.08
   69.16        2979.00           2555         110.00       475.16
   69.19        2979.25           2559          96.00       414.13
   69.22        2979.50           2562         101.00       435.93
   69.25        2979.75           2566         114.00       492.60
   69.29        2980.00           2569          94.00       405.41
   69.32        2980.25           2573         106.00       457.72
   69.35        2980.50           2577          99.00       427.21
   69.38        2980.75           2580         104.00       449.00
   69.41        2981.00           2584          87.00       374.90
   69.44        2981.25           2587          99.00       427.21
   69.47        2981.50           2591          92.00       396.69
   69.50        2981.75           2594          95.00       409.77
   69.53        2982.00           2598          89.00       383.61
   69.56        2982.25           2601          87.00       374.90
   69.59        2982.50           2605          92.00       396.69
   69.62        2982.75           2609          92.00       396.69
   69.65        2983.00           2612         101.00       435.93
   69.68        2983.25           2616          99.00       427.21
   69.71        2983.50           2619          87.00       374.90
   69.74        2983.75           2623          88.00       379.26
   69.77        2984.00           2626          86.00       370.54
HS scan finished at 01:10:00
end
************************************************************
  HS Scan of (1) Internal mercury lamp
************************************************************
Integration time is 0.2294 seconds per sample
dh050518Reading 51.44 .94 3.74pr1000
************************************************************
Dead Time -------------------------  3.4E-08 
Number of Cycles Used -------------  4 
Starting Wavelength (Angstroms) ---  2950 
Final Wavelength (Angstoms) -------  2984 
Wavelength Increment (Angstroms) --  .25 
Filter Wheel #1 Position ---------- (1) Ground quartz diffuser (ND=2.32)
Filter Wheel #2 Position ---------- (1) Neutral Density 0.494



************************************************************
HS scan start time = 20:37:24
Dark Count =  6 


Time (GMT)  Wavelength (Ang)  Step Number  Raw Counts  Counts/Second

 1238.30        2950.00           2144          66.00       261.55
 1238.49        2950.25           2147          75.00       300.79
 1238.52        2950.50           2151          76.00       305.15
 1238.55        2950.75           2155          73.00       292.07
 1238.58        2951.00           2158          56.00       217.96
 1238.61        2951.25           2162          70.00       278.99
 1238.64        2951.50           2165          66.00       261.55
 1238.67        2951.75           2169          64.00       252.84
 1238.70        2952.00           2172          71.00       283.35
 1238.73        2952.25           2176          70.00       278.99
 1238.76        2952.50           2179          68.00       270.27
 1238.80        2952.75           2183          64.00       252.84
 1238.83        2953.00           2186          69.00       274.63
 1238.86        2953.25           2190          71.00       283.35
 1238.89        2953.50           2193          71.00       283.35
 1238.92        2953.75           2197          66.00       261.55
 1238.95        2954.00           2200          72.00       287.71
 1238.98        2954.25           2204          72.00       287.71
 1239.01        2954.50           2208          67.00       265.91
 1239.04        2954.75           2211          73.00       292.07
 1239.07        2955.00           2215          71.00       283.35
 1239.10        2955.25           2218          65.00       257.19
 1239.13        2955.50           2222          68.00       270.27
 1239.16        2955.75           2225          78.00       313.87
 1239.19        2956.00           2229          76.00       305.15
 1239.22        2956.25           2232          71.00       283.35
 1239.25        2956.50           2236          67.00       265.91
 1239.28        2956.75           2239          83.00       335.66
 1239.32        2957.00           2243          73.00       292.07
 1239.35        2957.25           2246          81.00       326.94
 1239.38        2957.50           2250          76.00       305.15
 1239.41        2957.75           2254          83.00       335.66
 1239.44        2958.00           2257          71.00       283.35
 1239.47        2958.25           2261          82.00       331.30
 1239.50        2958.50           2264          90.00       366.18
 1239.53        2958.75           2268          83.00       335.66
 1239.56        2959.00           2271          80.00       322.58
 1239.59        2959.25           2275          78.00       313.87
 1239.62        2959.50           2278          78.00       313.87
 1239.65        2959.75           2282          87.00       353.10
 1239.68        2960.00           2285          82.00       331.30
 1239.71        2960.25           2289         111.00       457.72
 1239.74        2960.50           2293          87.00       353.10
 1239.77        2960.75           2296          93.00       379.26
 1239.80        2961.00           2300         147.00       614.66
 1239.83        2961.25           2303         304.00      1299.10
 1239.87        2961.50           2307        1018.00      4412.17
 1239.90        2961.75           2310        1797.00      7809.40
 1239.93        2962.00           2314        2917.00     12695.10
 1239.96        2962.25           2317        3930.00     17115.45
 1239.99        2962.50           2321        5346.00     23296.56
 1240.02        2962.75           2324        6312.00     27514.83
 1240.05        2963.00           2328        7538.00     32870.20
 1240.08        2963.25           2331        8440.00     36811.52
 1240.11        2963.50           2335        9682.00     42240.23
 1240.14        2963.75           2339       11156.00     48685.58
 1240.17        2964.00           2342       12402.00     54136.17
 1240.20        2964.25           2346       13812.00     60306.62
 1240.23        2964.50           2349       14782.00     64553.04
 1240.26        2964.75           2353       16164.00     70605.21
 1240.29        2965.00           2356       17144.00     74898.43
 1240.32        2965.25           2360       18397.00     80389.43
 1240.35        2965.50           2363       19069.00     83335.18
 1240.39        2965.75           2367       20310.00     88776.71
 1240.42        2966.00           2370       21280.00     93031.38
 1240.45        2966.25           2374       22250.00     97287.28
 1240.48        2966.50           2378       22707.00     99292.80
 1240.51        2966.75           2381       22641.00     99003.15
 1240.54        2967.00           2385       22830.00     99832.62
 1240.57        2967.25           2388       22983.00    100504.10
 1240.60        2967.50           2392       22811.00     99749.24
 1240.63        2967.75           2395       22617.00     98897.81
 1240.66        2968.00           2399       21504.00     94014.08
 1240.69        2968.25           2402       20698.00     90478.43
 1240.72        2968.50           2406       19606.00     85689.56
 1240.75        2968.75           2409       18667.00     81572.93
 1240.78        2969.00           2413       17386.00     75958.78
 1240.81        2969.25           2417       16066.00     70175.96
 1240.84        2969.50           2420       15085.00     65879.75
 1240.87        2969.75           2424       13638.00     59545.01
 1240.91        2970.00           2427       12616.00     55072.51
 1240.94        2970.25           2431       11175.00     48768.68
 1240.97        2970.50           2434       10302.00     44950.95
 1241.00        2970.75           2438        9227.00     40251.21
 1241.03        2971.00           2441        8222.00     35858.87
 1241.06        2971.25           2445        6792.00     29611.32
 1241.09        2971.50           2449        5460.00     23794.31
 1241.12        2971.75           2452        4385.00     19101.33
 1241.15        2972.00           2456        3183.00     13855.70
 1241.18        2972.25           2459        2288.00      9951.06
 1241.21        2972.50           2463        1162.00      5040.10
 1241.24        2972.75           2466         560.00      2415.19
 1241.27        2973.00           2470         180.00       758.52
 1241.30        2973.25           2473         114.00       470.80
 1241.33        2973.50           2477          91.00       370.54
 1241.36        2973.75           2481         117.00       483.88
 1241.39        2974.00           2484          97.00       396.69
 1241.43        2974.25           2488         136.00       566.71
 1241.46        2974.50           2491         103.00       422.85
 1241.49        2974.75           2495          85.00       344.38
 1241.52        2975.00           2498          86.00       348.74
 1241.55        2975.25           2502          81.00       326.94
 1241.58        2975.50           2505          76.00       305.15
 1241.61        2975.75           2509          88.00       357.46
 1241.64        2976.00           2512          88.00       357.46
 1241.67        2976.25           2516          76.00       305.15
 1241.70        2976.50           2520          82.00       331.30
 1241.73        2976.75           2523          80.00       322.58
 1241.76        2977.00           2527          74.00       296.43
 1241.79        2977.25           2530          77.00       309.51
 1241.82        2977.50           2534          71.00       283.35
 1241.85        2977.75           2537          79.00       318.22
 1241.88        2978.00           2541          83.00       335.66
 1241.91        2978.25           2544          74.00       296.43
 1241.95        2978.50           2548          73.00       292.07
 1241.98        2978.75           2552          68.00       270.27
 1242.01        2979.00           2555          76.00       305.15
 1242.04        2979.25           2559          72.00       287.71
 1242.07        2979.50           2562          68.00       270.27
 1242.10        2979.75           2566          75.00       300.79
 1242.13        2980.00           2569          76.00       305.15
 1242.16        2980.25           2573          78.00       313.87
 1242.19        2980.50           2577          67.00       265.91
 1242.22        2980.75           2580          62.00       244.12
 1242.25        2981.00           2584          68.00       270.27
 1242.28        2981.25           2587          70.00       278.99
 1242.31        2981.50           2591          61.00       239.76
 1242.34        2981.75           2594          68.00       270.27
 1242.37        2982.00           2598          64.00       252.84
 1242.40        2982.25           2601          65.00       257.19
 1242.43        2982.50           2605          63.00       248.48
 1242.46        2982.75           2609          62.00       244.12
 1242.50        2983.00           2612          63.00       248.48
 1242.53        2983.25           2616          63.00       248.48
 1242.56        2983.50           2619          72.00       287.71
 1242.59        2983.75           2623          64.00       252.84
 1242.62        2984.00           2626          64.00       252.84
HS scan finished at 20:42:50
end
