************************************************************
  HS Scan of (1) Internal mercury lamp
************************************************************
Integration time is 0.2294 seconds per sample
dh120518Reading 51.44 .94 3.39pr1000
************************************************************
Dead Time -------------------------  3.4E-08 
Number of Cycles Used -------------  4 
Starting Wavelength (Angstroms) ---  2950 
Final Wavelength (Angstoms) -------  2984 
Wavelength Increment (Angstroms) --  .25 
Filter Wheel #1 Position ---------- (1) Ground quartz diffuser (ND=2.32)
Filter Wheel #2 Position ---------- (1) Neutral Density 0.494



************************************************************
HS scan start time = 01:04:11
Dark Count =  1.9 


Time (GMT)  Wavelength (Ang)  Step Number  Raw Counts  Counts/Second

   65.07        2950.00           2144          84.00       357.89
   65.27        2950.25           2147          83.00       353.54
   65.30        2950.50           2151          85.00       362.25
   65.33        2950.75           2155          82.00       349.18
   65.36        2951.00           2158          88.00       375.33
   65.39        2951.25           2162          89.00       379.69
   65.42        2951.50           2165          87.00       370.97
   65.45        2951.75           2169          79.00       336.10
   65.48        2952.00           2172          86.00       366.61
   65.51        2952.25           2176          92.00       392.77
   65.54        2952.50           2179          84.00       357.89
   65.57        2952.75           2183          80.00       340.46
   65.60        2953.00           2186          79.00       336.10
   65.64        2953.25           2190          91.00       388.41
   65.67        2953.50           2193          85.00       362.25
   65.70        2953.75           2197          90.00       384.05
   65.73        2954.00           2200          85.00       362.25
   65.76        2954.25           2204          88.00       375.33
   65.79        2954.50           2208          91.00       388.41
   65.82        2954.75           2211          86.00       366.61
   65.85        2955.00           2215          86.00       366.61
   65.88        2955.25           2218         103.00       440.72
   65.91        2955.50           2222          97.00       414.57
   65.94        2955.75           2225          99.00       423.28
   65.97        2956.00           2229          93.00       397.13
   66.00        2956.25           2232          95.00       405.85
   66.03        2956.50           2236          98.00       418.92
   66.06        2956.75           2239          96.00       410.21
   66.09        2957.00           2243          97.00       414.57
   66.12        2957.25           2246          99.00       423.28
   66.15        2957.50           2250         129.00       554.06
   66.19        2957.75           2254         106.00       453.80
   66.22        2958.00           2257          98.00       418.92
   66.25        2958.25           2261         108.00       462.52
   66.28        2958.50           2264          98.00       418.92
   66.31        2958.75           2268         115.00       493.03
   66.34        2959.00           2271         105.00       449.44
   66.37        2959.25           2275         129.00       554.06
   66.40        2959.50           2278         164.00       706.64
   66.43        2959.75           2282         117.00       501.75
   66.46        2960.00           2285         136.00       584.58
   66.49        2960.25           2289         122.00       523.55
   66.52        2960.50           2293         120.00       514.83
   66.55        2960.75           2296         149.00       641.25
   66.58        2961.00           2300         162.00       697.92
   66.61        2961.25           2303         364.00      1578.55
   66.64        2961.50           2307        1366.00      5947.58
   66.68        2961.75           2310        2527.00     11011.53
   66.71        2962.00           2314        4199.00     18307.38
   66.74        2962.25           2317        5461.00     23816.58
   66.77        2962.50           2321        7149.00     31188.68
   66.80        2962.75           2324        8702.00     37974.46
   66.83        2963.00           2328       10631.00     46407.52
   66.86        2963.25           2331       12281.00     53624.71
   66.89        2963.50           2335       14168.00     61882.90
   66.92        2963.75           2339       16049.00     70119.46
   66.95        2964.00           2342       17537.00     76638.41
   66.98        2964.25           2346       19406.00     84830.63
   67.01        2964.50           2349       20721.00     90597.29
   67.04        2964.75           2353       22791.00     99679.44
   67.07        2965.00           2356       24375.00    106633.10
   67.10        2965.25           2360       26187.00    114591.60
   67.13        2965.50           2363       27467.00    120216.20
   67.16        2965.75           2367       29041.00    127135.60
   67.20        2966.00           2370       30468.00    133411.60
   67.23        2966.25           2374       31838.00    139439.40
   67.26        2966.50           2378       32804.00    143691.20
   67.29        2966.75           2381       32987.00    144496.80
   67.32        2967.00           2385       32843.00    143862.80
   67.35        2967.25           2388       32855.00    143915.60
   67.38        2967.50           2392       32595.00    142771.10
   67.41        2967.75           2395       32516.00    142423.40
   67.44        2968.00           2399       31196.00    136614.40
   67.47        2968.25           2402       30018.00    131432.10
   67.50        2968.50           2406       28189.00    123389.70
   67.53        2968.75           2409       26950.00    117944.10
   67.56        2969.00           2413       25111.00    109865.20
   67.59        2969.25           2417       23397.00    102339.30
   67.62        2969.50           2420       22142.00     96831.34
   67.65        2969.75           2424       20221.00     88404.38
   67.68        2970.00           2427       18616.00     81367.34
   67.72        2970.25           2431       16467.00     71950.43
   67.75        2970.50           2434       15079.00     65871.43
   67.78        2970.75           2438       13202.00     57654.76
   67.81        2971.00           2441       11939.00     52128.49
   67.84        2971.25           2445       10151.00     44308.64
   67.87        2971.50           2449        8240.00     35955.43
   67.90        2971.75           2452        6774.00     29550.60
   67.93        2972.00           2456        4930.00     21498.27
   67.97        2972.25           2459        3549.00     15470.65
   68.00        2972.50           2463        1940.00      8450.99
   68.03        2972.75           2466         880.00      3828.31
   68.06        2973.00           2470         277.00      1199.26
   68.10        2973.25           2473         168.00       724.08
   68.13        2973.50           2477         144.00       619.46
   68.16        2973.75           2481         169.00       728.44
   68.19        2974.00           2484         151.00       649.97
   68.22        2974.25           2488         129.00       554.06
   68.25        2974.50           2491         124.00       532.27
   68.28        2974.75           2495         123.00       527.91
   68.31        2975.00           2498         142.00       610.74
   68.34        2975.25           2502         141.00       606.38
   68.37        2975.50           2505         117.00       501.75
   68.40        2975.75           2509         109.00       466.88
   68.43        2976.00           2512         125.00       536.63
   68.46        2976.25           2516         127.00       545.35
   68.49        2976.50           2520         125.00       536.63
   68.52        2976.75           2523         133.00       571.50
   68.55        2977.00           2527         101.00       432.00
   68.58        2977.25           2530         114.00       488.67
   68.62        2977.50           2534          97.00       414.57
   68.65        2977.75           2537         117.00       501.75
   68.68        2978.00           2541         102.00       436.36
   68.71        2978.25           2544         114.00       488.67
   68.74        2978.50           2548         102.00       436.36
   68.77        2978.75           2552          88.00       375.33
   68.80        2979.00           2555          92.00       392.77
   68.83        2979.25           2559          89.00       379.69
   68.86        2979.50           2562          95.00       405.85
   68.89        2979.75           2566          96.00       410.21
   68.92        2980.00           2569          99.00       423.28
   68.95        2980.25           2573         101.00       432.00
   68.98        2980.50           2577          97.00       414.57
   69.01        2980.75           2580          86.00       366.61
   69.04        2981.00           2584          95.00       405.85
   69.07        2981.25           2587          91.00       388.41
   69.10        2981.50           2591         104.00       445.08
   69.14        2981.75           2594          78.00       331.74
   69.17        2982.00           2598         107.00       458.16
   69.20        2982.25           2601          90.00       384.05
   69.23        2982.50           2605          90.00       384.05
   69.26        2982.75           2609          83.00       353.54
   69.29        2983.00           2612          78.00       331.74
   69.32        2983.25           2616          74.00       314.30
   69.35        2983.50           2619          88.00       375.33
   69.38        2983.75           2623          81.00       344.82
   69.41        2984.00           2626          86.00       366.61
HS scan finished at 01:09:38
end
************************************************************
  HS Scan of (1) Internal mercury lamp
************************************************************
Integration time is 0.2294 seconds per sample
dh120518Reading 51.44 .94 3.19pr1000
************************************************************
Dead Time -------------------------  3.4E-08 
Number of Cycles Used -------------  4 
Starting Wavelength (Angstroms) ---  2950 
Final Wavelength (Angstoms) -------  2984 
Wavelength Increment (Angstroms) --  .25 
Filter Wheel #1 Position ---------- (1) Ground quartz diffuser (ND=2.32)
Filter Wheel #2 Position ---------- (1) Neutral Density 0.494



************************************************************
HS scan start time = 20:39:55
Dark Count =  1 


Time (GMT)  Wavelength (Ang)  Step Number  Raw Counts  Counts/Second

 1240.82        2950.00           2144          82.00       353.10
 1241.01        2950.25           2147          75.00       322.58
 1241.04        2950.50           2151          81.00       348.74
 1241.07        2950.75           2155          72.00       309.51
 1241.10        2951.00           2158          85.00       366.18
 1241.13        2951.25           2162          86.00       370.54
 1241.16        2951.50           2165          86.00       370.54
 1241.20        2951.75           2169          93.00       401.05
 1241.24        2952.00           2172          88.00       379.26
 1241.27        2952.25           2176          87.00       374.90
 1241.30        2952.50           2179          81.00       348.74
 1241.33        2952.75           2183          82.00       353.10
 1241.36        2953.00           2186          88.00       379.26
 1241.39        2953.25           2190         102.00       440.29
 1241.42        2953.50           2193          84.00       361.82
 1241.45        2953.75           2197          93.00       401.05
 1241.48        2954.00           2200          85.00       366.18
 1241.51        2954.25           2204          90.00       387.97
 1241.54        2954.50           2208          95.00       409.77
 1241.58        2954.75           2211          89.00       383.61
 1241.61        2955.00           2215          88.00       379.26
 1241.64        2955.25           2218          87.00       374.90
 1241.67        2955.50           2222          91.00       392.33
 1241.70        2955.75           2225          98.00       422.85
 1241.73        2956.00           2229          92.00       396.69
 1241.76        2956.25           2232          91.00       392.33
 1241.79        2956.50           2236         102.00       440.29
 1241.82        2956.75           2239          99.00       427.21
 1241.85        2957.00           2243          96.00       414.13
 1241.88        2957.25           2246          94.00       405.41
 1241.91        2957.50           2250         100.00       431.57
 1241.94        2957.75           2254          96.00       414.13
 1241.97        2958.00           2257         100.00       431.57
 1242.00        2958.25           2261          99.00       427.21
 1242.03        2958.50           2264         105.00       453.36
 1242.06        2958.75           2268         124.00       536.19
 1242.10        2959.00           2271         112.00       483.88
 1242.13        2959.25           2275         107.00       462.08
 1242.16        2959.50           2278          99.00       427.21
 1242.19        2959.75           2282         106.00       457.72
 1242.22        2960.00           2285         111.00       479.52
 1242.25        2960.25           2289         144.00       623.38
 1242.28        2960.50           2293         111.00       479.52
 1242.31        2960.75           2296         131.00       566.71
 1242.34        2961.00           2300         179.00       775.96
 1242.37        2961.25           2303         374.00      1626.07
 1242.40        2961.50           2307        1165.00      5074.98
 1242.43        2961.75           2310        2117.00      9226.96
 1242.46        2962.00           2314        3743.00     16321.17
 1242.49        2962.25           2317        5078.00     22148.32
 1242.52        2962.50           2321        6801.00     29672.47
 1242.55        2962.75           2324        8072.00     35225.25
 1242.58        2963.00           2328        9766.00     42629.32
 1242.62        2963.25           2331       11124.00     48567.50
 1242.65        2963.50           2335       12806.00     55925.78
 1242.68        2963.75           2339       14780.00     64566.17
 1242.71        2964.00           2342       16180.00     70697.19
 1242.74        2964.25           2346       17956.00     78478.53
 1242.77        2964.50           2349       19162.00     83764.82
 1242.80        2964.75           2353       20912.00     91439.02
 1242.83        2965.00           2356       21989.00     96163.94
 1242.86        2965.25           2360       23725.00    103783.20
 1242.89        2965.50           2363       24952.00    109170.80
 1242.92        2965.75           2367       26675.00    116739.70
 1242.95        2966.00           2370       27815.00    121749.70
 1242.98        2966.25           2374       29221.00    127931.00
 1243.01        2966.50           2378       29667.00    129892.40
 1243.04        2966.75           2381       29884.00    130846.70
 1243.07        2967.00           2385       29958.00    131172.20
 1243.10        2967.25           2388       30008.00    131392.10
 1243.14        2967.50           2392       29890.00    130873.10
 1243.17        2967.75           2395       29544.00    129351.40
 1243.20        2968.00           2399       28859.00    126339.30
 1243.23        2968.25           2402       27629.00    120932.10
 1243.26        2968.50           2406       26169.00    114516.50
 1243.29        2968.75           2409       25113.00    109877.90
 1243.32        2969.00           2413       23332.00    102058.00
 1243.35        2969.25           2417       21676.00     94790.62
 1243.38        2969.50           2420       20233.00     88460.96
 1243.41        2969.75           2424       18589.00     81252.93
 1243.44        2970.00           2427       17134.00     74876.52
 1243.47        2970.25           2431       15232.00     66545.34
 1243.50        2970.50           2434       14092.00     61554.15
 1243.53        2970.75           2438       12351.00     53934.91
 1243.56        2971.00           2441       10899.00     47583.46
 1243.59        2971.25           2445        9161.00     39984.58
 1243.62        2971.50           2449        7406.00     32315.35
 1243.66        2971.75           2452        6057.00     26423.03
 1243.69        2972.00           2456        4377.00     19088.24
 1243.72        2972.25           2459        3127.00     13633.17
 1243.75        2972.50           2463        1593.00      6941.48
 1243.78        2972.75           2466         730.00      3178.20
 1243.81        2973.00           2470         237.00      1028.81
 1243.84        2973.25           2473         166.00       719.29
 1243.87        2973.50           2477         143.00       619.02
 1243.90        2973.75           2481         135.00       584.14
 1243.93        2974.00           2484         131.00       566.71
 1243.96        2974.25           2488         150.00       649.53
 1243.99        2974.50           2491         104.00       449.00
 1244.02        2974.75           2495         124.00       536.19
 1244.05        2975.00           2498         111.00       479.52
 1244.08        2975.25           2502         127.00       549.27
 1244.11        2975.50           2505         107.00       462.08
 1244.14        2975.75           2509         125.00       540.55
 1244.17        2976.00           2512          99.00       427.21
 1244.21        2976.25           2516          96.00       414.13
 1244.24        2976.50           2520         106.00       457.72
 1244.27        2976.75           2523         102.00       440.29
 1244.30        2977.00           2527          97.00       418.49
 1244.33        2977.25           2530          99.00       427.21
 1244.36        2977.50           2534         100.00       431.57
 1244.39        2977.75           2537          93.00       401.05
 1244.42        2978.00           2541         118.00       510.03
 1244.45        2978.25           2544          97.00       418.49
 1244.48        2978.50           2548         101.00       435.93
 1244.51        2978.75           2552          89.00       383.61
 1244.54        2979.00           2555          88.00       379.26
 1244.57        2979.25           2559          87.00       374.90
 1244.60        2979.50           2562          98.00       422.85
 1244.63        2979.75           2566          89.00       383.61
 1244.66        2980.00           2569          80.00       344.38
 1244.69        2980.25           2573          88.00       379.26
 1244.73        2980.50           2577          92.00       396.69
 1244.76        2980.75           2580          86.00       370.54
 1244.79        2981.00           2584          73.00       313.87
 1244.82        2981.25           2587          88.00       379.26
 1244.85        2981.50           2591          93.00       401.05
 1244.88        2981.75           2594          79.00       340.02
 1244.91        2982.00           2598          84.00       361.82
 1244.94        2982.25           2601          80.00       344.38
 1244.97        2982.50           2605          87.00       374.90
 1245.00        2982.75           2609          77.00       331.30
 1245.03        2983.00           2612          84.00       361.82
 1245.06        2983.25           2616          88.00       379.26
 1245.09        2983.50           2619          83.00       357.46
 1245.12        2983.75           2623          84.00       361.82
 1245.15        2984.00           2626          80.00       344.38
HS scan finished at 20:45:22
end
