************************************************************
  HS Scan of 
************************************************************
Integration time is 0.2294 seconds per sample
dh190517Reading 51.44 .94 3.07pr1000
************************************************************
Dead Time -------------------------  3.4E-08 
Number of Cycles Used -------------  4 
Starting Wavelength (Angstroms) ---  2950 
Final Wavelength (Angstoms) -------  2984 
Wavelength Increment (Angstroms) --  .25 
Filter Wheel #1 Position ---------- (1) Ground quartz diffuser (ND=2.32)
Filter Wheel #2 Position ---------- (1) Neutral Density 0.494



************************************************************
HS scan start time = 01:04:22
Dark Count =  .9 


Time (GMT)  Wavelength (Ang)  Step Number  Raw Counts  Counts/Second

   65.27        2950.00           2144         418.00      1818.33
   65.46        2950.25           2147         417.00      1813.97
   65.49        2950.50           2151         419.00      1822.69
   65.52        2950.75           2155         413.00      1796.54
   65.55        2951.00           2158         420.00      1827.05
   65.58        2951.25           2162         406.00      1766.02
   65.61        2951.50           2165         407.00      1770.38
   65.64        2951.75           2169         435.00      1892.45
   65.67        2952.00           2172         408.00      1774.74
   65.70        2952.25           2176         426.00      1853.21
   65.73        2952.50           2179         422.00      1835.77
   65.77        2952.75           2183         441.00      1918.61
   65.80        2953.00           2186         440.00      1914.25
   65.83        2953.25           2190         433.00      1883.73
   65.86        2953.50           2193         422.00      1835.77
   65.89        2953.75           2197         419.00      1822.69
   65.92        2954.00           2200         444.00      1931.69
   65.95        2954.25           2204         442.00      1922.97
   65.98        2954.50           2208         430.00      1870.65
   66.01        2954.75           2211         431.00      1875.01
   66.04        2955.00           2215         464.00      2018.88
   66.07        2955.25           2218         452.00      1966.57
   66.10        2955.50           2222         438.00      1905.53
   66.13        2955.75           2225         453.00      1970.93
   66.16        2956.00           2229         453.00      1970.93
   66.19        2956.25           2232         463.00      2014.52
   66.22        2956.50           2236         457.00      1988.36
   66.25        2956.75           2239         461.00      2005.80
   66.28        2957.00           2243         464.00      2018.88
   66.32        2957.25           2246         466.00      2027.60
   66.35        2957.50           2250         492.00      2140.96
   66.38        2957.75           2254         488.00      2123.52
   66.41        2958.00           2257         499.00      2171.48
   66.44        2958.25           2261         488.00      2123.52
   66.47        2958.50           2264         520.00      2263.03
   66.50        2958.75           2268         516.00      2245.59
   66.53        2959.00           2271         526.00      2289.19
   66.56        2959.25           2275         532.00      2315.35
   66.59        2959.50           2278         564.00      2454.87
   66.62        2959.75           2282         559.00      2433.07
   66.65        2960.00           2285         550.00      2393.83
   66.68        2960.25           2289         573.00      2494.11
   66.71        2960.50           2293         581.00      2528.99
   66.74        2960.75           2296         572.00      2489.75
   66.77        2961.00           2300         661.00      2877.79
   66.80        2961.25           2303         960.00      4181.50
   66.84        2961.50           2307        3267.00     14244.48
   66.87        2961.75           2310        7267.00     31708.54
   66.90        2962.00           2314       14061.00     61418.89
   66.93        2962.25           2317       19711.00     86172.33
   66.96        2962.50           2321       27040.00    118344.00
   66.99        2962.75           2324       32820.00    143766.00
   67.02        2963.00           2328       40997.00    179806.00
   67.05        2963.25           2331       46844.00    205631.00
   67.08        2963.50           2335       54352.00    238859.20
   67.11        2963.75           2339       63548.00    279661.00
   67.14        2964.00           2342       69582.00    306495.20
   67.17        2964.25           2346       78438.00    345968.60
   67.20        2964.50           2349       84639.00    373671.70
   67.23        2964.75           2353       92484.00    408794.70
   67.26        2965.00           2356       97782.00    432562.40
   67.29        2965.25           2360      105477.00    467152.50
   67.32        2965.50           2363      111247.00    493143.30
   67.36        2965.75           2367      118986.00    528076.40
   67.39        2966.00           2370      124792.00    554339.20
   67.42        2966.25           2374      132075.00    587350.10
   67.45        2966.50           2378      136806.00    608834.00
   67.48        2966.75           2381      138673.00    617321.00
   67.51        2967.00           2385      139247.00    619931.30
   67.54        2967.25           2388      139168.00    619572.00
   67.57        2967.50           2392      139211.00    619767.50
   67.60        2967.75           2395      138530.00    616670.80
   67.63        2968.00           2399      135649.00    603577.00
   67.66        2968.25           2402      131446.00    584496.10
   67.70        2968.50           2406      124128.00    551333.30
   67.74        2968.75           2409      118523.00    525984.10
   67.77        2969.00           2413      110333.00    489023.20
   67.80        2969.25           2417      102236.00    452573.80
   67.83        2969.50           2420       96227.00    425582.40
   67.86        2969.75           2424       87706.00    387393.00
   67.89        2970.00           2427       81408.00    359230.60
   67.92        2970.25           2431       73696.00    324819.10
   67.95        2970.50           2434       68116.00    299971.10
   67.98        2970.75           2438       59323.00    260900.90
   68.01        2971.00           2441       52826.00    232099.50
   68.04        2971.25           2445       44465.00    195118.00
   68.07        2971.50           2449       36326.00    159207.80
   68.10        2971.75           2452       30672.00    134313.40
   68.14        2972.00           2456       23127.00    101158.60
   68.17        2972.25           2459       16915.00     73917.45
   68.20        2972.50           2463        8860.00     38669.38
   68.23        2972.75           2466        4269.00     18617.28
   68.26        2973.00           2470        1377.00      5999.92
   68.29        2973.25           2473         768.00      3344.32
   68.32        2973.50           2477         639.00      2781.87
   68.35        2973.75           2481         588.00      2559.51
   68.38        2974.00           2484         606.00      2637.99
   68.41        2974.25           2488         585.00      2546.43
   68.44        2974.50           2491         570.00      2481.03
   68.47        2974.75           2495         570.00      2481.03
   68.50        2975.00           2498         561.00      2441.79
   68.53        2975.25           2502         559.00      2433.07
   68.56        2975.50           2505         534.00      2324.07
   68.59        2975.75           2509         525.00      2284.83
   68.62        2976.00           2512         508.00      2210.72
   68.66        2976.25           2516         536.00      2332.79
   68.69        2976.50           2520         521.00      2267.39
   68.72        2976.75           2523         529.00      2302.27
   68.75        2977.00           2527         522.00      2271.75
   68.78        2977.25           2530         503.00      2188.92
   68.81        2977.50           2534         510.00      2219.44
   68.84        2977.75           2537         497.00      2162.76
   68.87        2978.00           2541         486.00      2114.80
   68.90        2978.25           2544         503.00      2188.92
   68.93        2978.50           2548         495.00      2154.04
   68.96        2978.75           2552         476.00      2071.20
   68.99        2979.00           2555         492.00      2140.96
   69.02        2979.25           2559         457.00      1988.36
   69.05        2979.50           2562         497.00      2162.76
   69.08        2979.75           2566         465.00      2023.24
   69.11        2980.00           2569         441.00      1918.61
   69.14        2980.25           2573         470.00      2045.04
   69.17        2980.50           2577         464.00      2018.88
   69.21        2980.75           2580         444.00      1931.69
   69.24        2981.00           2584         448.00      1949.13
   69.27        2981.25           2587         419.00      1822.69
   69.30        2981.50           2591         443.00      1927.33
   69.33        2981.75           2594         440.00      1914.25
   69.36        2982.00           2598         432.00      1879.37
   69.39        2982.25           2601         432.00      1879.37
   69.42        2982.50           2605         435.00      1892.45
   69.45        2982.75           2609         446.00      1940.41
   69.48        2983.00           2612         405.00      1761.66
   69.51        2983.25           2616         440.00      1914.25
   69.54        2983.50           2619         432.00      1879.37
   69.57        2983.75           2623         431.00      1875.01
   69.60        2984.00           2626         414.00      1800.90
HS scan finished at 01:09:50
end
************************************************************
  HS Scan of 
************************************************************
Integration time is 0.2294 seconds per sample
dh190517Reading 51.44 .94 3.15pr1000
************************************************************
Dead Time -------------------------  3.4E-08 
Number of Cycles Used -------------  4 
Starting Wavelength (Angstroms) ---  2950 
Final Wavelength (Angstoms) -------  2984 
Wavelength Increment (Angstroms) --  .25 
Filter Wheel #1 Position ---------- (1) Ground quartz diffuser (ND=2.32)
Filter Wheel #2 Position ---------- (1) Neutral Density 0.494



************************************************************
HS scan start time = 20:37:27
Dark Count =  1.2 


Time (GMT)  Wavelength (Ang)  Step Number  Raw Counts  Counts/Second

 1238.35        2950.00           2144         472.00      2052.45
 1238.54        2950.25           2147         463.00      2013.22
 1238.57        2950.50           2151         463.00      2013.22
 1238.60        2950.75           2155         461.00      2004.50
 1238.63        2951.00           2158         490.00      2130.93
 1238.66        2951.25           2162         473.00      2056.81
 1238.69        2951.50           2165         475.00      2065.53
 1238.72        2951.75           2169         495.00      2152.73
 1238.76        2952.00           2172         471.00      2048.09
 1238.79        2952.25           2176         483.00      2100.41
 1238.82        2952.50           2179         488.00      2122.21
 1238.85        2952.75           2183         494.00      2148.37
 1238.88        2953.00           2186         489.00      2126.57
 1238.91        2953.25           2190         482.00      2096.05
 1238.94        2953.50           2193         485.00      2109.13
 1238.97        2953.75           2197         481.00      2091.69
 1239.00        2954.00           2200         473.00      2056.81
 1239.03        2954.25           2204         459.00      1995.78
 1239.06        2954.50           2208         505.00      2196.33
 1239.09        2954.75           2211         511.00      2222.49
 1239.12        2955.00           2215         517.00      2248.65
 1239.15        2955.25           2218         506.00      2200.69
 1239.18        2955.50           2222         515.00      2239.93
 1239.21        2955.75           2225         489.00      2126.57
 1239.24        2956.00           2229         537.00      2335.84
 1239.28        2956.25           2232         515.00      2239.93
 1239.31        2956.50           2236         531.00      2309.68
 1239.34        2956.75           2239         551.00      2396.88
 1239.37        2957.00           2243         546.00      2375.08
 1239.40        2957.25           2246         543.00      2362.00
 1239.43        2957.50           2250         544.00      2366.36
 1239.46        2957.75           2254         549.00      2388.16
 1239.49        2958.00           2257         534.00      2322.76
 1239.52        2958.25           2261         555.00      2414.32
 1239.55        2958.50           2264         591.00      2571.28
 1239.58        2958.75           2268         568.00      2471.00
 1239.61        2959.00           2271         566.00      2462.28
 1239.64        2959.25           2275         595.00      2588.72
 1239.67        2959.50           2278         588.00      2558.20
 1239.70        2959.75           2282         597.00      2597.44
 1239.73        2960.00           2285         606.00      2636.68
 1239.76        2960.25           2289         623.00      2710.80
 1239.80        2960.50           2293         665.00      2893.92
 1239.83        2960.75           2296         649.00      2824.16
 1239.86        2961.00           2300         726.00      3159.89
 1239.89        2961.25           2303        1096.00      4773.22
 1239.92        2961.50           2307        3896.00     16988.02
 1239.95        2961.75           2310        7752.00     33826.15
 1239.98        2962.00           2314       14881.00     65007.51
 1240.01        2962.25           2317       21172.00     92578.66
 1240.04        2962.50           2321       29789.00    130428.00
 1240.07        2962.75           2324       36592.00    160378.70
 1240.10        2963.00           2328       45002.00    197489.00
 1240.13        2963.25           2331       50933.00    223717.00
 1240.16        2963.50           2335       60070.00    264214.70
 1240.19        2963.75           2339       69157.00    304602.10
 1240.22        2964.00           2342       76201.00    335986.30
 1240.25        2964.25           2346       84606.00    373522.70
 1240.28        2964.50           2349       91452.00    404168.10
 1240.32        2964.75           2353      100347.00    444082.00
 1240.35        2965.00           2356      106761.00    472930.90
 1240.38        2965.25           2360      114526.00    507932.80
 1240.41        2965.50           2363      120173.00    533440.50
 1240.44        2965.75           2367      127958.00    568678.90
 1240.47        2966.00           2370      134378.00    597802.90
 1240.50        2966.25           2374      142083.00    632833.50
 1240.53        2966.50           2378      146858.00    654585.30
 1240.56        2966.75           2381      147764.00    658716.20
 1240.59        2967.00           2385      148273.00    661037.40
 1240.62        2967.25           2388      147995.00    659769.50
 1240.65        2967.50           2392      147910.00    659382.00
 1240.68        2967.75           2395      147352.00    656837.60
 1240.71        2968.00           2399      143336.00    638538.20
 1240.74        2968.25           2402      138365.00    615919.20
 1240.77        2968.50           2406      130723.00    581215.10
 1240.80        2968.75           2409      124583.00    553391.60
 1240.84        2969.00           2413      116448.00    516609.50
 1240.87        2969.25           2417      108753.00    481902.20
 1240.90        2969.50           2420      102515.00    453826.80
 1240.93        2969.75           2424       93702.00    414254.00
 1240.96        2970.00           2427       86993.00    384200.60
 1240.99        2970.25           2431       78020.00    344101.80
 1241.02        2970.50           2434       71451.00    314815.60
 1241.05        2970.75           2438       63557.00    279699.60
 1241.08        2971.00           2441       57497.00    252799.10
 1241.11        2971.25           2445       49068.00    215464.60
 1241.14        2971.50           2449       40118.00    175926.30
 1241.17        2971.75           2452       33366.00    146168.40
 1241.20        2972.00           2456       25220.00    110347.00
 1241.23        2972.25           2459       19410.00     84851.25
 1241.26        2972.50           2463       11287.00     49279.54
 1241.29        2972.75           2466        5908.00     25771.48
 1241.32        2973.00           2470        1733.00      7551.20
 1241.36        2973.25           2473         949.00      4132.23
 1241.39        2973.50           2477         731.00      3181.69
 1241.42        2973.75           2481         680.00      2959.32
 1241.45        2974.00           2484         680.00      2959.32
 1241.48        2974.25           2488         647.00      2815.44
 1241.51        2974.50           2491         661.00      2876.48
 1241.54        2974.75           2495         625.00      2719.52
 1241.57        2975.00           2498         634.00      2758.76
 1241.60        2975.25           2502         627.00      2728.24
 1241.63        2975.50           2505         592.00      2575.64
 1241.66        2975.75           2509         596.00      2593.08
 1241.69        2976.00           2512         608.00      2645.40
 1241.72        2976.25           2516         566.00      2462.28
 1241.75        2976.50           2520         584.00      2540.76
 1241.78        2976.75           2523         561.00      2440.48
 1241.81        2977.00           2527         568.00      2471.00
 1241.84        2977.25           2530         562.00      2444.84
 1241.87        2977.50           2534         550.00      2392.52
 1241.91        2977.75           2537         543.00      2362.00
 1241.94        2978.00           2541         555.00      2414.32
 1241.97        2978.25           2544         529.00      2300.96
 1242.00        2978.50           2548         529.00      2300.96
 1242.03        2978.75           2552         533.00      2318.40
 1242.06        2979.00           2555         502.00      2183.25
 1242.09        2979.25           2559         507.00      2205.05
 1242.12        2979.50           2562         525.00      2283.53
 1242.15        2979.75           2566         494.00      2148.37
 1242.18        2980.00           2569         496.00      2157.09
 1242.21        2980.25           2573         505.00      2196.33
 1242.24        2980.50           2577         483.00      2100.41
 1242.27        2980.75           2580         481.00      2091.69
 1242.30        2981.00           2584         479.00      2082.97
 1242.33        2981.25           2587         470.00      2043.73
 1242.36        2981.50           2591         481.00      2091.69
 1242.39        2981.75           2594         481.00      2091.69
 1242.43        2982.00           2598         499.00      2170.17
 1242.46        2982.25           2601         460.00      2000.14
 1242.49        2982.50           2605         468.00      2035.01
 1242.52        2982.75           2609         452.00      1965.26
 1242.55        2983.00           2612         468.00      2035.01
 1242.58        2983.25           2616         481.00      2091.69
 1242.61        2983.50           2619         468.00      2035.01
 1242.64        2983.75           2623         480.00      2087.33
 1242.67        2984.00           2626         471.00      2048.09
HS scan finished at 20:42:54
end
