************************************************************
  HS Scan of 
************************************************************
Integration time is 0.2294 seconds per sample
dh120517Reading 51.44 .94 3.31pr1000
************************************************************
Dead Time -------------------------  3.4E-08 
Number of Cycles Used -------------  4 
Starting Wavelength (Angstroms) ---  2950 
Final Wavelength (Angstoms) -------  2984 
Wavelength Increment (Angstroms) --  .25 
Filter Wheel #1 Position ---------- (1) Ground quartz diffuser (ND=2.32)
Filter Wheel #2 Position ---------- (1) Neutral Density 0.494



************************************************************
HS scan start time = 01:04:15
Dark Count =  1.6 


Time (GMT)  Wavelength (Ang)  Step Number  Raw Counts  Counts/Second

   65.14        2950.00           2144         431.00      1871.96
   65.34        2950.25           2147         427.00      1854.52
   65.37        2950.50           2151         433.00      1880.68
   65.40        2950.75           2155         443.00      1924.28
   65.43        2951.00           2158         436.00      1893.76
   65.46        2951.25           2162         433.00      1880.68
   65.49        2951.50           2165         437.00      1898.12
   65.52        2951.75           2169         447.00      1941.72
   65.55        2952.00           2172         438.00      1902.48
   65.58        2952.25           2176         466.00      2024.55
   65.61        2952.50           2179         454.00      1972.23
   65.64        2952.75           2183         457.00      1985.31
   65.67        2953.00           2186         429.00      1863.24
   65.70        2953.25           2190         467.00      2028.91
   65.73        2953.50           2193         441.00      1915.56
   65.76        2953.75           2197         458.00      1989.67
   65.79        2954.00           2200         460.00      1998.39
   65.82        2954.25           2204         462.00      2007.11
   65.86        2954.50           2208         460.00      1998.39
   65.89        2954.75           2211         464.00      2015.83
   65.92        2955.00           2215         460.00      1998.39
   65.95        2955.25           2218         487.00      2116.11
   65.98        2955.50           2222         485.00      2107.39
   66.01        2955.75           2225         495.00      2150.99
   66.05        2956.00           2229         492.00      2137.91
   66.08        2956.25           2232         511.00      2220.74
   66.11        2956.50           2236         499.00      2168.42
   66.14        2956.75           2239         536.00      2329.74
   66.17        2957.00           2243         529.00      2299.22
   66.20        2957.25           2246         532.00      2312.30
   66.23        2957.50           2250         528.00      2294.86
   66.26        2957.75           2254         545.00      2368.98
   66.29        2958.00           2257         553.00      2403.86
   66.32        2958.25           2261         546.00      2373.34
   66.35        2958.50           2264         539.00      2342.82
   66.38        2958.75           2268         560.00      2434.38
   66.41        2959.00           2271         553.00      2403.86
   66.44        2959.25           2275         560.00      2434.38
   66.47        2959.50           2278         562.00      2443.10
   66.50        2959.75           2282         552.00      2399.50
   66.53        2960.00           2285         572.00      2486.70
   66.57        2960.25           2289         623.00      2709.06
   66.60        2960.50           2293         634.00      2757.02
   66.63        2960.75           2296         646.00      2809.34
   66.66        2961.00           2300         735.00      3197.38
   66.69        2961.25           2303        1351.00      5883.48
   66.72        2961.50           2307        5141.00     22420.75
   66.75        2961.75           2310       10121.00     44178.78
   66.78        2962.00           2314       17845.00     77989.44
   66.81        2962.25           2317       24004.00    105005.40
   66.84        2962.50           2321       32461.00    142182.60
   66.87        2962.75           2324       38902.00    170560.80
   66.90        2963.00           2328       47633.00    209116.20
   66.93        2963.25           2331       54996.00    241709.70
   66.96        2963.50           2335       64488.00    283834.90
   66.99        2963.75           2339       74281.00    327423.40
   67.02        2964.00           2342       81136.00    358012.40
   67.05        2964.25           2346       89967.00    397513.40
   67.09        2964.50           2349       96202.00    425467.10
   67.12        2964.75           2353      105056.00    465254.80
   67.15        2965.00           2356      112062.00    496815.00
   67.18        2965.25           2360      121615.00    539959.40
   67.21        2965.50           2363      127642.00    567245.00
   67.24        2965.75           2367      136373.00    606863.30
   67.27        2966.00           2370      142532.00    634875.70
   67.30        2966.25           2374      150341.00    670470.40
   67.33        2966.50           2378      155856.00    695661.30
   67.36        2966.75           2381      157841.00    704738.90
   67.39        2967.00           2385      158391.00    707255.10
   67.42        2967.25           2388      158199.00    706376.60
   67.45        2967.50           2392      158366.00    707140.80
   67.48        2967.75           2395      157448.00    702941.20
   67.51        2968.00           2399      154151.00    687868.70
   67.54        2968.25           2402      150010.00    668959.90
   67.57        2968.50           2406      141777.00    631438.90
   67.61        2968.75           2409      134918.00    600253.50
   67.64        2969.00           2413      124882.00    554743.50
   67.67        2969.25           2417      115611.00    512828.60
   67.70        2969.50           2420      109015.00    483080.70
   67.73        2969.75           2424       99558.00    440535.30
   67.76        2970.00           2427       92981.00    411019.50
   67.79        2970.25           2431       83089.00    366739.00
   67.82        2970.50           2434       75571.00    333174.90
   67.85        2970.75           2438       66119.00    291085.50
   67.88        2971.00           2441       59234.00    260502.90
   67.91        2971.25           2445       49672.00    218135.00
   67.94        2971.50           2449       41264.00    180981.20
   67.97        2971.75           2452       34930.00    153054.20
   68.00        2972.00           2456       25058.00    109633.70
   68.03        2972.25           2459       17961.00     78497.81
   68.06        2972.50           2463        9428.00     41149.08
   68.09        2972.75           2466        4551.00     19845.12
   68.12        2973.00           2470        1486.00      6472.22
   68.16        2973.25           2473         875.00      3807.82
   68.19        2973.50           2477         719.00      3127.62
   68.22        2973.75           2481         676.00      2940.14
   68.25        2974.00           2484         669.00      2909.62
   68.28        2974.25           2488         614.00      2669.82
   68.31        2974.50           2491         607.00      2639.30
   68.34        2974.75           2495         623.00      2709.06
   68.37        2975.00           2498         581.00      2525.94
   68.40        2975.25           2502         578.00      2512.86
   68.43        2975.50           2505         592.00      2573.90
   68.46        2975.75           2509         577.00      2508.50
   68.49        2976.00           2512         559.00      2430.02
   68.52        2976.25           2516         562.00      2443.10
   68.55        2976.50           2520         558.00      2425.66
   68.58        2976.75           2523         559.00      2430.02
   68.61        2977.00           2527         535.00      2325.38
   68.64        2977.25           2530         563.00      2447.46
   68.68        2977.50           2534         537.00      2334.10
   68.71        2977.75           2537         519.00      2255.62
   68.74        2978.00           2541         511.00      2220.74
   68.77        2978.25           2544         524.00      2277.42
   68.80        2978.50           2548         514.00      2233.82
   68.83        2978.75           2552         513.00      2229.46
   68.86        2979.00           2555         508.00      2207.66
   68.89        2979.25           2559         504.00      2190.22
   68.92        2979.50           2562         500.00      2172.79
   68.95        2979.75           2566         464.00      2015.83
   68.98        2980.00           2569         485.00      2107.39
   69.01        2980.25           2573         475.00      2063.79
   69.04        2980.50           2577         485.00      2107.39
   69.07        2980.75           2580         470.00      2041.99
   69.10        2981.00           2584         481.00      2089.95
   69.13        2981.25           2587         502.00      2181.50
   69.16        2981.50           2591         455.00      1976.59
   69.20        2981.75           2594         455.00      1976.59
   69.23        2982.00           2598         476.00      2068.15
   69.26        2982.25           2601         496.00      2155.35
   69.29        2982.50           2605         456.00      1980.95
   69.32        2982.75           2609         466.00      2024.55
   69.35        2983.00           2612         451.00      1959.15
   69.38        2983.25           2616         441.00      1915.56
   69.41        2983.50           2619         439.00      1906.84
   69.44        2983.75           2623         443.00      1924.28
   69.47        2984.00           2626         465.00      2020.19
HS scan finished at 01:09:42
end
************************************************************
  HS Scan of 
************************************************************
Integration time is 0.2294 seconds per sample
dh120517Reading 51.44 .94 3.41pr1000
************************************************************
Dead Time -------------------------  3.4E-08 
Number of Cycles Used -------------  4 
Starting Wavelength (Angstroms) ---  2950 
Final Wavelength (Angstoms) -------  2984 
Wavelength Increment (Angstroms) --  .25 
Filter Wheel #1 Position ---------- (1) Ground quartz diffuser (ND=2.32)
Filter Wheel #2 Position ---------- (1) Neutral Density 0.494



************************************************************
HS scan start time = 20:37:21
Dark Count =  2.2 


Time (GMT)  Wavelength (Ang)  Step Number  Raw Counts  Counts/Second

 1238.25        2950.00           2144         509.00      2209.41
 1238.44        2950.25           2147         493.00      2139.65
 1238.48        2950.50           2151         510.00      2213.77
 1238.51        2950.75           2155         507.00      2200.69
 1238.54        2951.00           2158         503.00      2183.25
 1238.57        2951.25           2162         532.00      2309.68
 1238.60        2951.50           2165         503.00      2183.25
 1238.63        2951.75           2169         503.00      2183.25
 1238.66        2952.00           2172         528.00      2292.24
 1238.69        2952.25           2176         513.00      2226.85
 1238.72        2952.50           2179         503.00      2183.25
 1238.75        2952.75           2183         512.00      2222.49
 1238.78        2953.00           2186         544.00      2362.00
 1238.81        2953.25           2190         513.00      2226.85
 1238.84        2953.50           2193         539.00      2340.20
 1238.87        2953.75           2197         532.00      2309.68
 1238.90        2954.00           2200         518.00      2248.65
 1238.94        2954.25           2204         561.00      2436.12
 1238.98        2954.50           2208         533.00      2314.04
 1239.01        2954.75           2211         537.00      2331.48
 1239.04        2955.00           2215         531.00      2305.32
 1239.07        2955.25           2218         556.00      2414.32
 1239.10        2955.50           2222         546.00      2370.72
 1239.13        2955.75           2225         550.00      2388.16
 1239.16        2956.00           2229         577.00      2505.88
 1239.19        2956.25           2232         572.00      2484.08
 1239.22        2956.50           2236         554.00      2405.60
 1239.25        2956.75           2239         575.00      2497.16
 1239.28        2957.00           2243         587.00      2549.48
 1239.31        2957.25           2246         595.00      2584.36
 1239.34        2957.50           2250         580.00      2518.96
 1239.37        2957.75           2254         587.00      2549.48
 1239.40        2958.00           2257         609.00      2645.40
 1239.43        2958.25           2261         599.00      2601.80
 1239.47        2958.50           2264         614.00      2667.20
 1239.50        2958.75           2268         608.00      2641.04
 1239.53        2959.00           2271         634.00      2754.40
 1239.56        2959.25           2275         673.00      2924.44
 1239.59        2959.50           2278         653.00      2837.24
 1239.62        2959.75           2282         688.00      2989.84
 1239.65        2960.00           2285         675.00      2933.16
 1239.68        2960.25           2289         698.00      3033.44
 1239.71        2960.50           2293         725.00      3151.17
 1239.74        2960.75           2296         764.00      3321.21
 1239.77        2961.00           2300         796.00      3460.74
 1239.80        2961.25           2303        1226.00      5335.75
 1239.83        2961.50           2307        4257.00     18559.22
 1239.86        2961.75           2310        8859.00     38659.32
 1239.89        2962.00           2314       17751.00     77574.88
 1239.92        2962.25           2317       25575.00    111901.90
 1239.95        2962.50           2321       35695.00    156421.70
 1239.99        2962.75           2324       42758.00    187573.40
 1240.02        2963.00           2328       52861.00    232248.70
 1240.05        2963.25           2331       60202.00    264796.10
 1240.08        2963.50           2335       70018.00    308430.20
 1240.11        2963.75           2339       80943.00    357147.60
 1240.14        2964.00           2342       88991.00    393139.80
 1240.17        2964.25           2346       99087.00    438416.90
 1240.20        2964.50           2349      106704.00    472669.70
 1240.23        2964.75           2353      116382.00    516307.00
 1240.26        2965.00           2356      123424.00    548141.10
 1240.29        2965.25           2360      132513.00    589331.90
 1240.32        2965.50           2363      140058.00    623614.20
 1240.35        2965.75           2367      149976.00    668802.00
 1240.38        2966.00           2370      156944.00    700633.30
 1240.41        2966.25           2374      165475.00    739700.00
 1240.44        2966.50           2378      169716.00    759160.40
 1240.47        2966.75           2381      171640.00    767997.40
 1240.51        2967.00           2385      171747.00    768489.00
 1240.54        2967.25           2388      172055.00    769904.30
 1240.57        2967.50           2392      172044.00    769853.80
 1240.60        2967.75           2395      171790.00    768686.60
 1240.63        2968.00           2399      168119.00    751829.30
 1240.66        2968.25           2402      162045.00    723980.10
 1240.69        2968.50           2406      153587.00    685289.10
 1240.72        2968.75           2409      147595.00    657941.00
 1240.75        2969.00           2413      138903.00    618360.90
 1240.78        2969.25           2417      128698.00    572028.30
 1240.81        2969.50           2420      121657.00    540146.60
 1240.84        2969.75           2424      111164.00    492763.20
 1240.87        2970.00           2427      103937.00    460217.60
 1240.90        2970.25           2431       94281.00    416846.10
 1240.93        2970.50           2434       87114.00    384737.60
 1240.96        2970.75           2438       75960.00    334907.00
 1240.99        2971.00           2441       67445.00    296980.10
 1241.03        2971.25           2445       57047.00    250799.10
 1241.06        2971.50           2449       47118.00    206836.60
 1241.09        2971.75           2452       39613.00    173694.10
 1241.12        2972.00           2456       30040.00    131527.60
 1241.15        2972.25           2459       22952.00    100384.80
 1241.18        2972.50           2463       13646.00     59596.66
 1241.21        2972.75           2466        7417.00     32358.16
 1241.24        2973.00           2470        2019.00      8794.26
 1241.27        2973.25           2473        1024.00      4454.90
 1241.30        2973.50           2477         758.00      3295.05
 1241.33        2973.75           2481         745.00      3238.37
 1241.36        2974.00           2484         742.00      3225.29
 1241.39        2974.25           2488         691.00      3002.92
 1241.42        2974.50           2491         690.00      2998.56
 1241.45        2974.75           2495         685.00      2976.76
 1241.48        2975.00           2498         674.00      2928.80
 1241.51        2975.25           2502         674.00      2928.80
 1241.54        2975.50           2505         663.00      2880.84
 1241.58        2975.75           2509         645.00      2802.36
 1241.61        2976.00           2512         615.00      2671.56
 1241.64        2976.25           2516         604.00      2623.60
 1241.67        2976.50           2520         605.00      2627.96
 1241.70        2976.75           2523         605.00      2627.96
 1241.73        2977.00           2527         605.00      2627.96
 1241.76        2977.25           2530         582.00      2527.68
 1241.79        2977.50           2534         590.00      2562.56
 1241.82        2977.75           2537         605.00      2627.96
 1241.85        2978.00           2541         571.00      2479.72
 1241.88        2978.25           2544         565.00      2453.56
 1241.91        2978.50           2548         560.00      2431.76
 1241.94        2978.75           2552         572.00      2484.08
 1241.97        2979.00           2555         578.00      2510.24
 1242.00        2979.25           2559         561.00      2436.12
 1242.03        2979.50           2562         557.00      2418.68
 1242.06        2979.75           2566         535.00      2322.76
 1242.10        2980.00           2569         550.00      2388.16
 1242.13        2980.25           2573         540.00      2344.56
 1242.16        2980.50           2577         519.00      2253.01
 1242.19        2980.75           2580         533.00      2314.04
 1242.22        2981.00           2584         506.00      2196.33
 1242.25        2981.25           2587         507.00      2200.69
 1242.28        2981.50           2591         511.00      2218.13
 1242.31        2981.75           2594         509.00      2209.41
 1242.34        2982.00           2598         492.00      2135.29
 1242.37        2982.25           2601         503.00      2183.25
 1242.40        2982.50           2605         511.00      2218.13
 1242.44        2982.75           2609         487.00      2113.49
 1242.47        2983.00           2612         495.00      2148.37
 1242.50        2983.25           2616         495.00      2148.37
 1242.53        2983.50           2619         502.00      2178.89
 1242.56        2983.75           2623         479.00      2078.61
 1242.59        2984.00           2626         498.00      2161.45
HS scan finished at 20:42:49
end
