************************************************************
  HS Scan of 
************************************************************
Integration time is 0.2294 seconds per sample
dh110517Reading 51.44 .94 2.96pr1000
************************************************************
Dead Time -------------------------  3.4E-08 
Number of Cycles Used -------------  4 
Starting Wavelength (Angstroms) ---  2950 
Final Wavelength (Angstoms) -------  2984 
Wavelength Increment (Angstroms) --  .25 
Filter Wheel #1 Position ---------- (1) Ground quartz diffuser (ND=2.32)
Filter Wheel #2 Position ---------- (1) Neutral Density 0.494



************************************************************
HS scan start time = 01:04:15
Dark Count =  1 


Time (GMT)  Wavelength (Ang)  Step Number  Raw Counts  Counts/Second

   65.15        2950.00           2144         556.00      2419.55
   65.35        2950.25           2147         577.00      2511.11
   65.38        2950.50           2151         579.00      2519.83
   65.41        2950.75           2155         575.00      2502.39
   65.44        2951.00           2158         567.00      2467.51
   65.47        2951.25           2162         566.00      2463.15
   65.50        2951.50           2165         572.00      2489.31
   65.53        2951.75           2169         597.00      2598.31
   65.56        2952.00           2172         564.00      2454.43
   65.59        2952.25           2176         558.00      2428.27
   65.62        2952.50           2179         606.00      2637.55
   65.65        2952.75           2183         595.00      2589.59
   65.68        2953.00           2186         604.00      2628.83
   65.71        2953.25           2190         582.00      2532.91
   65.74        2953.50           2193         592.00      2576.51
   65.78        2953.75           2197         583.00      2537.27
   65.81        2954.00           2200         600.00      2611.39
   65.84        2954.25           2204         623.00      2711.67
   65.87        2954.50           2208         603.00      2624.47
   65.90        2954.75           2211         605.00      2633.19
   65.93        2955.00           2215         637.00      2772.71
   65.96        2955.25           2218         624.00      2716.03
   65.99        2955.50           2222         610.00      2654.99
   66.02        2955.75           2225         622.00      2707.31
   66.05        2956.00           2229         629.00      2737.83
   66.08        2956.25           2232         649.00      2825.03
   66.11        2956.50           2236         630.00      2742.19
   66.14        2956.75           2239         651.00      2833.75
   66.17        2957.00           2243         642.00      2794.51
   66.20        2957.25           2246         674.00      2934.03
   66.23        2957.50           2250         693.00      3016.87
   66.27        2957.75           2254         677.00      2947.11
   66.30        2958.00           2257         690.00      3003.79
   66.33        2958.25           2261         674.00      2934.03
   66.36        2958.50           2264         704.00      3064.84
   66.39        2958.75           2268         667.00      2903.51
   66.42        2959.00           2271         714.00      3108.44
   66.45        2959.25           2275         718.00      3125.88
   66.48        2959.50           2278         728.00      3169.48
   66.51        2959.75           2282         725.00      3156.40
   66.54        2960.00           2285         733.00      3191.28
   66.57        2960.25           2289         760.00      3309.00
   66.60        2960.50           2293         778.00      3387.49
   66.63        2960.75           2296         790.00      3439.81
   66.66        2961.00           2300         838.00      3649.10
   66.69        2961.25           2303        1263.00      5502.34
   66.72        2961.50           2307        4284.00     18682.31
   66.75        2961.75           2310        9168.00     40015.18
   66.79        2962.00           2314       18269.00     79850.32
   66.82        2962.25           2317       26561.00    116238.80
   66.85        2962.50           2321       37484.00    164311.20
   66.88        2962.75           2324       44732.00    196297.00
   66.91        2963.00           2328       54763.00    240679.90
   66.94        2963.25           2331       62498.00    274996.00
   66.97        2963.50           2335       73506.00    323971.90
   67.00        2963.75           2339       84875.00    374726.50
   67.03        2964.00           2342       93581.00    413712.40
   67.06        2964.25           2346      105222.00    466004.50
   67.09        2964.50           2349      112882.00    500516.20
   67.12        2964.75           2353      123630.00    549078.80
   67.15        2965.00           2356      130949.00    582241.10
   67.18        2965.25           2360      140934.00    627605.20
   67.21        2965.50           2363      148570.00    662393.00
   67.24        2965.75           2367      157941.00    705199.00
   67.27        2966.00           2370      165816.00    741269.30
   67.30        2966.25           2374      175966.00    787892.40
   67.34        2966.50           2378      181018.00    811154.30
   67.37        2966.75           2381      182360.00    817339.80
   67.40        2967.00           2385      183244.00    821415.70
   67.43        2967.25           2388      182882.00    819746.50
   67.46        2967.50           2392      182735.00    819068.70
   67.49        2967.75           2395      182081.00    816053.60
   67.52        2968.00           2399      177724.00    795982.90
   67.55        2968.25           2402      171698.00    768269.50
   67.58        2968.50           2406      161505.00    721512.30
   67.61        2968.75           2409      154484.00    689393.00
   67.64        2969.00           2413      145083.00    646496.70
   67.67        2969.25           2417      134227.00    597118.10
   67.70        2969.50           2420      125942.00    559546.30
   67.73        2969.75           2424      114920.00    509712.00
   67.76        2970.00           2427      106843.00    473301.00
   67.79        2970.25           2431       96485.00    426739.80
   67.82        2970.50           2434       89207.00    394112.40
   67.86        2970.75           2438       78619.00    346776.00
   67.89        2971.00           2441       70556.00    310830.90
   67.92        2971.25           2445       59563.00    261965.50
   67.95        2971.50           2449       48896.00    214704.60
   67.98        2971.75           2452       40857.00    179187.80
   68.01        2972.00           2456       30160.00    132060.70
   68.04        2972.25           2459       22741.00     99463.96
   68.07        2972.50           2463       14449.00     63116.99
   68.10        2972.75           2466        8173.00     35666.60
   68.13        2973.00           2470        2589.00     11285.94
   68.16        2973.25           2473        1230.00      5358.43
   68.19        2973.50           2477         900.00      3919.44
   68.22        2973.75           2481         858.00      3736.31
   68.25        2974.00           2484         815.00      3548.82
   68.28        2974.25           2488         801.00      3487.77
   68.31        2974.50           2491         793.00      3452.89
   68.34        2974.75           2495         766.00      3335.16
   68.38        2975.00           2498         791.00      3444.17
   68.41        2975.25           2502         758.00      3300.28
   68.44        2975.50           2505         724.00      3152.04
   68.47        2975.75           2509         716.00      3117.16
   68.50        2976.00           2512         718.00      3125.88
   68.53        2976.25           2516         697.00      3034.31
   68.56        2976.50           2520         682.00      2968.91
   68.59        2976.75           2523         682.00      2968.91
   68.62        2977.00           2527         687.00      2990.71
   68.65        2977.25           2530         699.00      3043.04
   68.68        2977.50           2534         669.00      2912.23
   68.71        2977.75           2537         654.00      2846.83
   68.74        2978.00           2541         652.00      2838.11
   68.77        2978.25           2544         664.00      2890.43
   68.80        2978.50           2548         650.00      2829.39
   68.83        2978.75           2552         630.00      2742.19
   68.86        2979.00           2555         636.00      2768.35
   68.90        2979.25           2559         643.00      2798.87
   68.93        2979.50           2562         610.00      2654.99
   68.96        2979.75           2566         621.00      2702.95
   68.99        2980.00           2569         626.00      2724.75
   69.02        2980.25           2573         597.00      2598.31
   69.05        2980.50           2577         621.00      2702.95
   69.08        2980.75           2580         577.00      2511.11
   69.11        2981.00           2584         597.00      2598.31
   69.14        2981.25           2587         572.00      2489.31
   69.17        2981.50           2591         603.00      2624.47
   69.20        2981.75           2594         579.00      2519.83
   69.23        2982.00           2598         582.00      2532.91
   69.26        2982.25           2601         581.00      2528.55
   69.29        2982.50           2605         585.00      2545.99
   69.32        2982.75           2609         572.00      2489.31
   69.35        2983.00           2612         565.00      2458.79
   69.38        2983.25           2616         560.00      2436.99
   69.42        2983.50           2619         588.00      2559.07
   69.45        2983.75           2623         560.00      2436.99
   69.48        2984.00           2626         581.00      2528.55
HS scan finished at 01:09:42
end
************************************************************
  HS Scan of 
************************************************************
Integration time is 0.2294 seconds per sample
dh110517Reading 51.44 .94 3.41pr1000
************************************************************
Dead Time -------------------------  3.4E-08 
Number of Cycles Used -------------  4 
Starting Wavelength (Angstroms) ---  2950 
Final Wavelength (Angstoms) -------  2984 
Wavelength Increment (Angstroms) --  .25 
Filter Wheel #1 Position ---------- (1) Ground quartz diffuser (ND=2.32)
Filter Wheel #2 Position ---------- (1) Neutral Density 0.494



************************************************************
HS scan start time = 20:37:29
Dark Count =  2.3 


Time (GMT)  Wavelength (Ang)  Step Number  Raw Counts  Counts/Second

 1238.38        2950.00           2144         444.00      1925.58
 1238.58        2950.25           2147         430.00      1864.55
 1238.61        2950.50           2151         457.00      1982.26
 1238.64        2950.75           2155         457.00      1982.26
 1238.67        2951.00           2158         452.00      1960.46
 1238.70        2951.25           2162         452.00      1960.46
 1238.73        2951.50           2165         467.00      2025.86
 1238.76        2951.75           2169         518.00      2248.21
 1238.79        2952.00           2172         466.00      2021.50
 1238.82        2952.25           2176         471.00      2043.30
 1238.85        2952.50           2179         471.00      2043.30
 1238.88        2952.75           2183         478.00      2073.82
 1238.91        2953.00           2186         470.00      2038.94
 1238.94        2953.25           2190         470.00      2038.94
 1238.97        2953.50           2193         480.00      2082.54
 1239.00        2953.75           2197         503.00      2182.81
 1239.03        2954.00           2200         469.00      2034.58
 1239.07        2954.25           2204         493.00      2139.21
 1239.10        2954.50           2208         476.00      2065.10
 1239.13        2954.75           2211         502.00      2178.45
 1239.16        2955.00           2215         518.00      2248.21
 1239.19        2955.25           2218         487.00      2113.06
 1239.22        2955.50           2222         503.00      2182.81
 1239.25        2955.75           2225         506.00      2195.89
 1239.28        2956.00           2229         507.00      2200.25
 1239.31        2956.25           2232         515.00      2235.13
 1239.34        2956.50           2236         520.00      2256.93
 1239.37        2956.75           2239         517.00      2243.85
 1239.40        2957.00           2243         513.00      2226.41
 1239.43        2957.25           2246         531.00      2304.89
 1239.46        2957.50           2250         529.00      2296.17
 1239.49        2957.75           2254         556.00      2413.89
 1239.52        2958.00           2257         565.00      2453.13
 1239.55        2958.25           2261         542.00      2352.85
 1239.59        2958.50           2264         560.00      2431.33
 1239.62        2958.75           2268         579.00      2514.16
 1239.65        2959.00           2271         566.00      2457.49
 1239.68        2959.25           2275         589.00      2557.76
 1239.71        2959.50           2278         601.00      2610.08
 1239.74        2959.75           2282         589.00      2557.76
 1239.77        2960.00           2285         600.00      2605.72
 1239.80        2960.25           2289         625.00      2714.72
 1239.83        2960.50           2293         631.00      2740.88
 1239.86        2960.75           2296         690.00      2998.13
 1239.89        2961.00           2300         711.00      3089.69
 1239.92        2961.25           2303        1010.00      4393.42
 1239.95        2961.50           2307        3164.00     13788.94
 1239.98        2961.75           2310        7465.00     32567.43
 1240.01        2962.00           2314       15598.00     68142.44
 1240.04        2962.25           2317       21876.00     95662.43
 1240.07        2962.50           2321       29952.00    131140.10
 1240.11        2962.75           2324       36330.00    159219.20
 1240.14        2963.00           2328       45526.00    199799.50
 1240.17        2963.25           2331       53377.00    234533.70
 1240.20        2963.50           2335       62991.00    277180.10
 1240.23        2963.75           2339       71961.00    317082.30
 1240.26        2964.00           2342       77878.00    343463.20
 1240.29        2964.25           2346       87583.00    386836.10
 1240.32        2964.50           2349       94863.00    419456.20
 1240.35        2964.75           2353      104179.00    461305.70
 1240.38        2965.00           2356      111043.00    492217.30
 1240.41        2965.25           2360      119721.00    531392.10
 1240.44        2965.50           2363      125837.00    559064.80
 1240.47        2965.75           2367      134209.00    597030.60
 1240.50        2966.00           2370      141068.00    628209.00
 1240.53        2966.25           2374      149212.00    665315.60
 1240.56        2966.50           2378      156061.00    696595.30
 1240.59        2966.75           2381      158082.00    705838.10
 1240.63        2967.00           2385      158734.00    708821.30
 1240.66        2967.25           2388      158888.00    709526.00
 1240.69        2967.50           2392      159543.00    712523.50
 1240.72        2967.75           2395      159132.00    710642.60
 1240.75        2968.00           2399      157494.00    703148.30
 1240.78        2968.25           2402      153618.00    685430.30
 1240.81        2968.50           2406      145279.00    647383.90
 1240.84        2968.75           2409      138506.00    616555.30
 1240.87        2969.00           2413      130504.00    580216.80
 1240.90        2969.25           2417      122131.00    542290.30
 1240.93        2969.50           2420      115721.00    513322.00
 1240.96        2969.75           2424      105518.00    467330.70
 1240.99        2970.00           2427       97039.00    429220.60
 1241.02        2970.25           2431       86701.00    382889.10
 1241.05        2970.50           2434       80052.00    353167.90
 1241.08        2970.75           2438       70316.00    309756.50
 1241.11        2971.00           2441       62972.00    277095.70
 1241.14        2971.25           2445       53442.00    234821.60
 1241.18        2971.50           2449       44864.00    196874.40
 1241.21        2971.75           2452       37624.00    164922.60
 1241.24        2972.00           2456       27910.00    122161.50
 1241.27        2972.25           2459       20979.00     91727.22
 1241.30        2972.50           2463       12636.00     55176.22
 1241.33        2972.75           2466        7156.00     31217.51
 1241.36        2973.00           2470        2597.00     11315.16
 1241.39        2973.25           2473        1156.00      5030.07
 1241.42        2973.50           2477         761.00      3307.70
 1241.45        2973.75           2481         710.00      3085.33
 1241.48        2974.00           2484         680.00      2954.53
 1241.51        2974.25           2488         681.00      2958.89
 1241.54        2974.50           2491         643.00      2793.20
 1241.57        2974.75           2495         646.00      2806.28
 1241.60        2975.00           2498         616.00      2675.48
 1241.63        2975.25           2502         584.00      2535.96
 1241.67        2975.50           2505         601.00      2610.08
 1241.70        2975.75           2509         615.00      2671.12
 1241.73        2976.00           2512         591.00      2566.48
 1241.76        2976.25           2516         568.00      2466.20
 1241.79        2976.50           2520         569.00      2470.57
 1241.82        2976.75           2523         594.00      2579.56
 1241.85        2977.00           2527         551.00      2392.09
 1241.88        2977.25           2530         546.00      2370.29
 1241.91        2977.50           2534         555.00      2409.53
 1241.94        2977.75           2537         539.00      2339.77
 1241.97        2978.00           2541         543.00      2357.21
 1242.00        2978.25           2544         541.00      2348.49
 1242.03        2978.50           2548         516.00      2239.49
 1242.06        2978.75           2552         507.00      2200.25
 1242.09        2979.00           2555         541.00      2348.49
 1242.12        2979.25           2559         500.00      2169.73
 1242.15        2979.50           2562         517.00      2243.85
 1242.19        2979.75           2566         511.00      2217.69
 1242.22        2980.00           2569         507.00      2200.25
 1242.25        2980.25           2573         494.00      2143.57
 1242.28        2980.50           2577         475.00      2060.74
 1242.31        2980.75           2580         469.00      2034.58
 1242.34        2981.00           2584         481.00      2086.90
 1242.37        2981.25           2587         485.00      2104.34
 1242.40        2981.50           2591         496.00      2152.29
 1242.43        2981.75           2594         451.00      1956.10
 1242.46        2982.00           2598         462.00      2004.06
 1242.49        2982.25           2601         465.00      2017.14
 1242.52        2982.50           2605         455.00      1973.54
 1242.55        2982.75           2609         477.00      2069.46
 1242.58        2983.00           2612         477.00      2069.46
 1242.61        2983.25           2616         479.00      2078.18
 1242.64        2983.50           2619         451.00      1956.10
 1242.67        2983.75           2623         454.00      1969.18
 1242.70        2984.00           2626         458.00      1986.62
HS scan finished at 20:42:56
end
