************************************************************
  HS Scan of (1) Internal mercury lamp
************************************************************
Integration time is 0.2294 seconds per sample
dh140518Reading 51.44 .94 3.11pr1000
************************************************************
Dead Time -------------------------  3.4E-08 
Number of Cycles Used -------------  4 
Starting Wavelength (Angstroms) ---  2950 
Final Wavelength (Angstoms) -------  2984 
Wavelength Increment (Angstroms) --  .25 
Filter Wheel #1 Position ---------- (1) Ground quartz diffuser (ND=2.32)
Filter Wheel #2 Position ---------- (1) Neutral Density 0.494



************************************************************
HS scan start time = 01:12:25
Dark Count =  1.1 


Time (GMT)  Wavelength (Ang)  Step Number  Raw Counts  Counts/Second

   73.32        2950.00           2144         113.00       487.80
   73.51        2950.25           2147          77.00       330.87
   73.54        2950.50           2151          96.00       413.69
   73.57        2950.75           2155          88.00       378.82
   73.60        2951.00           2158          85.00       365.74
   73.63        2951.25           2162          88.00       378.82
   73.67        2951.50           2165          89.00       383.18
   73.70        2951.75           2169          84.00       361.38
   73.73        2952.00           2172          86.00       370.10
   73.76        2952.25           2176          86.00       370.10
   73.79        2952.50           2179          88.00       378.82
   73.82        2952.75           2183          91.00       391.90
   73.85        2953.00           2186          86.00       370.10
   73.88        2953.25           2190          93.00       400.62
   73.91        2953.50           2193          96.00       413.69
   73.94        2953.75           2197          91.00       391.90
   73.97        2954.00           2200         104.00       448.57
   74.00        2954.25           2204         102.00       439.85
   74.03        2954.50           2208          89.00       383.18
   74.06        2954.75           2211         107.00       461.65
   74.09        2955.00           2215         103.00       444.21
   74.12        2955.25           2218         101.00       435.49
   74.15        2955.50           2222         151.00       653.46
   74.18        2955.75           2225         114.00       492.16
   74.22        2956.00           2229         106.00       457.29
   74.25        2956.25           2232          98.00       422.41
   74.28        2956.50           2236         106.00       457.29
   74.31        2956.75           2239         101.00       435.49
   74.34        2957.00           2243         108.00       466.01
   74.37        2957.25           2246         102.00       439.85
   74.40        2957.50           2250         130.00       561.91
   74.43        2957.75           2254         107.00       461.65
   74.46        2958.00           2257         101.00       435.49
   74.49        2958.25           2261         104.00       448.57
   74.52        2958.50           2264         137.00       592.43
   74.55        2958.75           2268         131.00       566.27
   74.58        2959.00           2271         116.00       500.88
   74.61        2959.25           2275         134.00       579.35
   74.64        2959.50           2278         108.00       466.01
   74.67        2959.75           2282         127.00       548.83
   74.70        2960.00           2285         114.00       492.16
   74.74        2960.25           2289         147.00       636.02
   74.77        2960.50           2293         136.00       588.07
   74.80        2960.75           2296         128.00       553.19
   74.83        2961.00           2300         162.00       701.41
   74.86        2961.25           2303         375.00      1629.99
   74.89        2961.50           2307        1294.00      5637.09
   74.92        2961.75           2310        2413.00     10517.71
   74.95        2962.00           2314        4038.00     17608.19
   74.98        2962.25           2317        5385.00     23488.24
   75.01        2962.50           2321        7173.00     31297.02
   75.04        2962.75           2324        8270.00     36090.03
   75.07        2963.00           2328       10146.00     44290.28
   75.10        2963.25           2331       11700.00     51086.48
   75.13        2963.50           2335       13641.00     59579.60
   75.16        2963.75           2339       15848.00     69242.60
   75.19        2964.00           2342       17277.00     75502.65
   75.23        2964.25           2346       19009.00     83093.63
   75.26        2964.50           2349       20255.00     88557.01
   75.29        2964.75           2353       22174.00     96975.28
   75.32        2965.00           2356       23652.00    103462.30
   75.35        2965.25           2360       25495.00    111555.30
   75.38        2965.50           2363       26845.00    117486.30
   75.41        2965.75           2367       28511.00    124808.80
   75.44        2966.00           2370       29812.00    130529.60
   75.47        2966.25           2374       31166.00    136485.90
   75.50        2966.50           2378       32089.00    140547.50
   75.53        2966.75           2381       32450.00    142136.40
   75.56        2967.00           2385       32632.00    142937.50
   75.59        2967.25           2388       32657.00    143047.60
   75.62        2967.50           2392       32737.00    143399.70
   75.65        2967.75           2395       32596.00    142779.10
   75.68        2968.00           2399       31526.00    138069.90
   75.71        2968.25           2402       30486.00    133494.30
   75.74        2968.50           2406       28798.00    126070.60
   75.78        2968.75           2409       27211.00    119094.60
   75.81        2969.00           2413       25096.00    109802.80
   75.84        2969.25           2417       23096.00    101021.60
   75.87        2969.50           2420       21773.00     95215.78
   75.90        2969.75           2424       19867.00     86855.51
   75.93        2970.00           2427       18619.00     81384.00
   75.96        2970.25           2431       16486.00     72037.16
   75.99        2970.50           2434       14884.00     65021.10
   76.02        2970.75           2438       12988.00     56721.75
   76.05        2971.00           2441       11608.00     50684.05
   76.08        2971.25           2445        9878.00     43118.53
   76.11        2971.50           2449        7928.00     34595.60
   76.14        2971.75           2452        6516.00     28427.20
   76.17        2972.00           2456        4537.00     19786.19
   76.20        2972.25           2459        3162.00     13785.45
   76.23        2972.50           2463        1523.00      6635.76
   76.26        2972.75           2466         730.00      3177.76
   76.30        2973.00           2470         256.00      1111.20
   76.33        2973.25           2473         151.00       653.46
   76.36        2973.50           2477         154.00       666.54
   76.39        2973.75           2481         138.00       596.79
   76.42        2974.00           2484         138.00       596.79
   76.45        2974.25           2488         117.00       505.24
   76.48        2974.50           2491         135.00       583.71
   76.51        2974.75           2495         168.00       727.57
   76.54        2975.00           2498         137.00       592.43
   76.57        2975.25           2502         130.00       561.91
   76.60        2975.50           2505         156.00       675.26
   76.63        2975.75           2509         144.00       622.94
   76.66        2976.00           2512         130.00       561.91
   76.69        2976.25           2516         119.00       513.96
   76.72        2976.50           2520         107.00       461.65
   76.75        2976.75           2523         113.00       487.80
   76.78        2977.00           2527         120.00       518.32
   76.82        2977.25           2530         125.00       540.11
   76.85        2977.50           2534         104.00       448.57
   76.88        2977.75           2537         148.00       640.38
   76.91        2978.00           2541         107.00       461.65
   76.94        2978.25           2544          97.00       418.05
   76.97        2978.50           2548         100.00       431.13
   77.00        2978.75           2552          97.00       418.05
   77.03        2979.00           2555         140.00       605.51
   77.06        2979.25           2559          97.00       418.05
   77.09        2979.50           2562         106.00       457.29
   77.12        2979.75           2566          92.00       396.26
   77.15        2980.00           2569          95.00       409.33
   77.18        2980.25           2573          87.00       374.46
   77.21        2980.50           2577          94.00       404.98
   77.25        2980.75           2580          85.00       365.74
   77.28        2981.00           2584          98.00       422.41
   77.31        2981.25           2587          85.00       365.74
   77.34        2981.50           2591         111.00       479.08
   77.37        2981.75           2594          93.00       400.62
   77.40        2982.00           2598          90.00       387.54
   77.43        2982.25           2601          82.00       352.66
   77.46        2982.50           2605          81.00       348.30
   77.49        2982.75           2609         105.00       452.93
   77.53        2983.00           2612          93.00       400.62
   77.56        2983.25           2616          96.00       413.69
   77.59        2983.50           2619          85.00       365.74
   77.62        2983.75           2623         102.00       439.85
   77.65        2984.00           2626          88.00       378.82
HS scan finished at 01:17:52
end
************************************************************
  HS Scan of (1) Internal mercury lamp
************************************************************
Integration time is 0.2294 seconds per sample
dh140518Reading 51.44 .94 3.66pr1000
************************************************************
Dead Time -------------------------  3.4E-08 
Number of Cycles Used -------------  4 
Starting Wavelength (Angstroms) ---  2950 
Final Wavelength (Angstoms) -------  2984 
Wavelength Increment (Angstroms) --  .25 
Filter Wheel #1 Position ---------- (1) Ground quartz diffuser (ND=2.32)
Filter Wheel #2 Position ---------- (1) Neutral Density 0.494



************************************************************
HS scan start time = 20:37:26
Dark Count =  4.3 


Time (GMT)  Wavelength (Ang)  Step Number  Raw Counts  Counts/Second

 1238.32        2950.00           2144          67.00       273.32
 1238.52        2950.25           2147          65.00       264.61
 1238.55        2950.50           2151          67.00       273.32
 1238.58        2950.75           2155          68.00       277.68
 1238.61        2951.00           2158          73.00       299.48
 1238.64        2951.25           2162          70.00       286.40
 1238.67        2951.50           2165          77.00       316.92
 1238.70        2951.75           2169          75.00       308.20
 1238.73        2952.00           2172          73.00       299.48
 1238.76        2952.25           2176          75.00       308.20
 1238.79        2952.50           2179          71.00       290.76
 1238.82        2952.75           2183          73.00       299.48
 1238.85        2953.00           2186          77.00       316.92
 1238.88        2953.25           2190          73.00       299.48
 1238.92        2953.50           2193          68.00       277.68
 1238.95        2953.75           2197          73.00       299.48
 1238.98        2954.00           2200          70.00       286.40
 1239.01        2954.25           2204          71.00       290.76
 1239.04        2954.50           2208          80.00       329.99
 1239.07        2954.75           2211          71.00       290.76
 1239.10        2955.00           2215          70.00       286.40
 1239.13        2955.25           2218          80.00       329.99
 1239.16        2955.50           2222          81.00       334.35
 1239.19        2955.75           2225          78.00       321.28
 1239.22        2956.00           2229          83.00       343.07
 1239.25        2956.25           2232          70.00       286.40
 1239.28        2956.50           2236          81.00       334.35
 1239.31        2956.75           2239          84.00       347.43
 1239.34        2957.00           2243          82.00       338.71
 1239.37        2957.25           2246          85.00       351.79
 1239.40        2957.50           2250          81.00       334.35
 1239.44        2957.75           2254          83.00       343.07
 1239.47        2958.00           2257          89.00       369.23
 1239.50        2958.25           2261          80.00       329.99
 1239.53        2958.50           2264          84.00       347.43
 1239.56        2958.75           2268          88.00       364.87
 1239.59        2959.00           2271         109.00       456.42
 1239.62        2959.25           2275          91.00       377.95
 1239.65        2959.50           2278          83.00       343.07
 1239.68        2959.75           2282         118.00       495.65
 1239.71        2960.00           2285         132.00       556.68
 1239.74        2960.25           2289         100.00       417.18
 1239.77        2960.50           2293         103.00       430.26
 1239.80        2960.75           2296         113.00       473.85
 1239.83        2961.00           2300         145.00       613.35
 1239.86        2961.25           2303         341.00      1467.82
 1239.89        2961.50           2307        1238.00      5378.93
 1239.92        2961.75           2310        2117.00      9212.56
 1239.96        2962.00           2314        3378.00     14713.99
 1239.99        2962.25           2317        4314.00     18798.85
 1240.02        2962.50           2321        5829.00     25412.97
 1240.05        2962.75           2324        7088.00     30911.72
 1240.08        2963.00           2328        8524.00     37186.05
 1240.11        2963.25           2331        9640.00     42064.05
 1240.14        2963.50           2335       11140.00     48623.04
 1240.17        2963.75           2339       12755.00     55688.17
 1240.20        2964.00           2342       13936.00     60856.83
 1240.23        2964.25           2346       15551.00     67927.85
 1240.26        2964.50           2349       16670.00     72829.21
 1240.29        2964.75           2353       18183.00     79458.93
 1240.32        2965.00           2356       19343.00     84543.89
 1240.35        2965.25           2360       20872.00     91249.09
 1240.38        2965.50           2363       21921.00     95851.10
 1240.41        2965.75           2367       23364.00    102184.00
 1240.44        2966.00           2370       24182.00    105775.10
 1240.48        2966.25           2374       25291.00    110645.20
 1240.51        2966.50           2378       25989.00    113711.20
 1240.54        2966.75           2381       25963.00    113597.00
 1240.57        2967.00           2385       26069.00    114062.70
 1240.60        2967.25           2388       26023.00    113860.60
 1240.63        2967.50           2392       26093.00    114168.10
 1240.66        2967.75           2395       25711.00    112490.00
 1240.69        2968.00           2399       24603.00    107623.70
 1240.72        2968.25           2402       23740.00    103834.50
 1240.75        2968.50           2406       22053.00     96430.29
 1240.78        2968.75           2409       21059.00     92069.36
 1240.81        2969.00           2413       19655.00     85911.88
 1240.84        2969.25           2417       18309.00     80011.18
 1240.87        2969.50           2420       17201.00     75155.63
 1240.90        2969.75           2424       15813.00     69075.29
 1240.93        2970.00           2427       14909.00     65116.55
 1240.96        2970.25           2431       13116.00     57267.89
 1240.99        2970.50           2434       11958.00     52201.12
 1241.04        2970.75           2438       10432.00     45526.83
 1241.07        2971.00           2441        9373.00     40896.85
 1241.10        2971.25           2445        7894.00     34433.05
 1241.13        2971.50           2449        6448.00     28116.23
 1241.16        2971.75           2452        5130.00     22360.94
 1241.19        2972.00           2456        3750.00     16337.32
 1241.22        2972.25           2459        2660.00     11581.28
 1241.26        2972.50           2463        1447.00      6290.36
 1241.29        2972.75           2466         683.00      2958.89
 1241.32        2973.00           2470         204.00       870.56
 1241.35        2973.25           2473         145.00       613.35
 1241.38        2973.50           2477         145.00       613.35
 1241.41        2973.75           2481         121.00       508.73
 1241.44        2974.00           2484         112.00       469.49
 1241.47        2974.25           2488          97.00       404.10
 1241.50        2974.50           2491         106.00       443.34
 1241.53        2974.75           2495          96.00       399.74
 1241.56        2975.00           2498          99.00       412.82
 1241.59        2975.25           2502          95.00       395.38
 1241.62        2975.50           2505          81.00       334.35
 1241.65        2975.75           2509          84.00       347.43
 1241.68        2976.00           2512          87.00       360.51
 1241.71        2976.25           2516         108.00       452.06
 1241.74        2976.50           2520          88.00       364.87
 1241.78        2976.75           2523          84.00       347.43
 1241.81        2977.00           2527          85.00       351.79
 1241.84        2977.25           2530          98.00       408.46
 1241.87        2977.50           2534          80.00       329.99
 1241.90        2977.75           2537          75.00       308.20
 1241.93        2978.00           2541          83.00       343.07
 1241.96        2978.25           2544          84.00       347.43
 1241.99        2978.50           2548          74.00       303.84
 1242.02        2978.75           2552          88.00       364.87
 1242.05        2979.00           2555          79.00       325.64
 1242.08        2979.25           2559          75.00       308.20
 1242.11        2979.50           2562          81.00       334.35
 1242.14        2979.75           2566          80.00       329.99
 1242.17        2980.00           2569          75.00       308.20
 1242.20        2980.25           2573          84.00       347.43
 1242.23        2980.50           2577          76.00       312.56
 1242.26        2980.75           2580          78.00       321.28
 1242.30        2981.00           2584          81.00       334.35
 1242.33        2981.25           2587          78.00       321.28
 1242.36        2981.50           2591          71.00       290.76
 1242.39        2981.75           2594          66.00       268.97
 1242.42        2982.00           2598          61.00       247.17
 1242.45        2982.25           2601          61.00       247.17
 1242.48        2982.50           2605          65.00       264.61
 1242.51        2982.75           2609          64.00       260.25
 1242.54        2983.00           2612          71.00       290.76
 1242.57        2983.25           2616          62.00       251.53
 1242.60        2983.50           2619          64.00       260.25
 1242.63        2983.75           2623          71.00       290.76
 1242.66        2984.00           2626          69.00       282.04
HS scan finished at 20:42:53
end
