************************************************************
  HS Scan of (1) Internal mercury lamp
************************************************************
Integration time is 0.2294 seconds per sample
dh180518Reading 51.44 .94 3.03pr1000
************************************************************
Dead Time -------------------------  3.4E-08 
Number of Cycles Used -------------  4 
Starting Wavelength (Angstroms) ---  2950 
Final Wavelength (Angstoms) -------  2984 
Wavelength Increment (Angstroms) --  .25 
Filter Wheel #1 Position ---------- (1) Ground quartz diffuser (ND=2.32)
Filter Wheel #2 Position ---------- (1) Neutral Density 0.494



************************************************************
HS scan start time = 01:04:17
Dark Count =  .8 


Time (GMT)  Wavelength (Ang)  Step Number  Raw Counts  Counts/Second

   65.18        2950.00           2144          86.00       371.41
   65.37        2950.25           2147          89.00       384.49
   65.40        2950.50           2151          87.00       375.77
   65.43        2950.75           2155          83.00       358.33
   65.46        2951.00           2158          87.00       375.77
   65.49        2951.25           2162         103.00       445.52
   65.52        2951.50           2165          83.00       358.33
   65.55        2951.75           2169          89.00       384.49
   65.58        2952.00           2172          80.00       345.25
   65.61        2952.25           2176          91.00       393.20
   65.65        2952.50           2179          92.00       397.56
   65.68        2952.75           2183          87.00       375.77
   65.71        2953.00           2186          82.00       353.97
   65.74        2953.25           2190          83.00       358.33
   65.77        2953.50           2193          88.00       380.13
   65.80        2953.75           2197          83.00       358.33
   65.83        2954.00           2200          86.00       371.41
   65.86        2954.25           2204          88.00       380.13
   65.89        2954.50           2208          88.00       380.13
   65.92        2954.75           2211         118.00       510.91
   65.95        2955.00           2215         116.00       502.19
   65.98        2955.25           2218         118.00       510.91
   66.01        2955.50           2222          96.00       415.00
   66.04        2955.75           2225         106.00       458.59
   66.07        2956.00           2229         101.00       436.80
   66.10        2956.25           2232          94.00       406.28
   66.13        2956.50           2236         101.00       436.80
   66.17        2956.75           2239         100.00       432.44
   66.20        2957.00           2243         108.00       467.31
   66.23        2957.25           2246          99.00       428.08
   66.26        2957.50           2250         115.00       497.83
   66.29        2957.75           2254         119.00       515.27
   66.32        2958.00           2257         114.00       493.47
   66.35        2958.25           2261         130.00       563.22
   66.38        2958.50           2264         109.00       471.67
   66.41        2958.75           2268         119.00       515.27
   66.44        2959.00           2271         128.00       554.50
   66.47        2959.25           2275         120.00       519.63
   66.50        2959.50           2278         129.00       558.86
   66.53        2959.75           2282         133.00       576.30
   66.56        2960.00           2285         118.00       510.91
   66.59        2960.25           2289         122.00       528.34
   66.62        2960.50           2293         144.00       624.25
   66.65        2960.75           2296         139.00       602.45
   66.69        2961.00           2300         168.00       728.88
   66.72        2961.25           2303         375.00      1631.30
   66.75        2961.50           2307        1310.00      5708.17
   66.78        2961.75           2310        2417.00     10536.47
   66.81        2962.00           2314        3997.00     17430.56
   66.84        2962.25           2317        5114.00     22306.36
   66.87        2962.50           2321        6821.00     29760.70
   66.90        2962.75           2324        8263.00     36060.75
   66.93        2963.00           2328       10029.00     43780.03
   66.96        2963.25           2331       11485.00     50147.33
   66.99        2963.50           2335       13471.00     58836.85
   67.02        2963.75           2339       15334.00     66992.88
   67.05        2964.00           2342       16807.00     73444.72
   67.08        2964.25           2346       18666.00     81591.33
   67.11        2964.50           2349       19978.00     87343.57
   67.14        2964.75           2353       21605.00     94479.99
   67.17        2965.00           2356       23176.00    101374.10
   67.20        2965.25           2360       24966.00    109233.20
   67.24        2965.50           2363       26268.00    114952.30
   67.27        2965.75           2367       27790.00    121640.70
   67.30        2966.00           2370       29184.00    127769.20
   67.33        2966.25           2374       30604.00    134014.70
   67.36        2966.50           2378       31783.00    139202.20
   67.39        2966.75           2381       32285.00    141411.50
   67.42        2967.00           2385       32063.00    140434.40
   67.45        2967.25           2388       32032.00    140298.00
   67.48        2967.50           2392       32201.00    141041.80
   67.51        2967.75           2395       31935.00    139871.10
   67.54        2968.00           2399       30965.00    135602.90
   67.57        2968.25           2402       29903.00    130931.20
   67.60        2968.50           2406       28104.00    123020.90
   67.63        2968.75           2409       26733.00    116995.40
   67.66        2969.00           2413       24771.00    108376.80
   67.69        2969.25           2417       22865.00    100009.10
   67.72        2969.50           2420       21138.00     92431.26
   67.76        2969.75           2424       19327.00     84489.09
   67.79        2970.00           2427       18166.00     79399.76
   67.82        2970.25           2431       16141.00     70527.25
   67.85        2970.50           2434       14701.00     64221.16
   67.88        2970.75           2438       12970.00     56644.30
   67.91        2971.00           2441       11518.00     50291.68
   67.94        2971.25           2445        9680.00     42254.21
   67.97        2971.50           2449        8023.00     35012.02
   68.00        2971.75           2452        6678.00     29136.09
   68.03        2972.00           2456        4651.00     20285.13
   68.06        2972.25           2459        3212.00     14004.92
   68.09        2972.50           2463        1580.00      6885.66
   68.12        2972.75           2466         702.00      3056.99
   68.15        2973.00           2470         257.00      1116.87
   68.18        2973.25           2473         162.00       702.72
   68.21        2973.50           2477         141.00       611.17
   68.24        2973.75           2481         147.00       637.33
   68.28        2974.00           2484         157.00       680.92
   68.31        2974.25           2488         146.00       632.97
   68.34        2974.50           2491         147.00       637.33
   68.37        2974.75           2495         126.00       545.78
   68.40        2975.00           2498         138.00       598.09
   68.43        2975.25           2502         120.00       519.63
   68.46        2975.50           2505         119.00       515.27
   68.49        2975.75           2509         111.00       480.39
   68.52        2976.00           2512         109.00       471.67
   68.55        2976.25           2516         101.00       436.80
   68.58        2976.50           2520         114.00       493.47
   68.61        2976.75           2523         124.00       537.06
   68.64        2977.00           2527         101.00       436.80
   68.67        2977.25           2530         106.00       458.59
   68.70        2977.50           2534         118.00       510.91
   68.73        2977.75           2537          99.00       428.08
   68.76        2978.00           2541         100.00       432.44
   68.80        2978.25           2544          95.00       410.64
   68.83        2978.50           2548          86.00       371.41
   68.86        2978.75           2552         100.00       432.44
   68.89        2979.00           2555         112.00       484.75
   68.92        2979.25           2559         101.00       436.80
   68.95        2979.50           2562         103.00       445.52
   68.98        2979.75           2566          95.00       410.64
   69.01        2980.00           2569          90.00       388.85
   69.04        2980.25           2573          96.00       415.00
   69.07        2980.50           2577          92.00       397.56
   69.10        2980.75           2580          90.00       388.85
   69.13        2981.00           2584          89.00       384.49
   69.16        2981.25           2587          90.00       388.85
   69.19        2981.50           2591          88.00       380.13
   69.22        2981.75           2594          95.00       410.64
   69.25        2982.00           2598          88.00       380.13
   69.28        2982.25           2601          81.00       349.61
   69.32        2982.50           2605          86.00       371.41
   69.35        2982.75           2609          82.00       353.97
   69.38        2983.00           2612          93.00       401.92
   69.41        2983.25           2616          91.00       393.20
   69.44        2983.50           2619          95.00       410.64
   69.47        2983.75           2623          81.00       349.61
   69.50        2984.00           2626          87.00       375.77
HS scan finished at 01:09:43
end
