************************************************************
  HS Scan of (1) Internal mercury lamp
************************************************************
Integration time is 0.2294 seconds per sample
dh190519Reading 51.44 .94 3.05pr1000
************************************************************
Dead Time -------------------------  3.4E-08 
Number of Cycles Used -------------  4 
Starting Wavelength (Angstroms) ---  2950 
Final Wavelength (Angstoms) -------  2984 
Wavelength Increment (Angstroms) --  .25 
Filter Wheel #1 Position ---------- (1) Ground quartz diffuser (ND=2.32)
Filter Wheel #2 Position ---------- (1) Neutral Density 0.494



************************************************************
HS scan start time = 01:04:24
Dark Count =  .7 


Time (GMT)  Wavelength (Ang)  Step Number  Raw Counts  Counts/Second

   65.30        2950.00           2144        1507.00      6567.73
   65.49        2950.25           2147        1570.00      6842.48
   65.52        2950.50           2151        1522.00      6633.14
   65.55        2950.75           2155        1550.00      6755.26
   65.58        2951.00           2158        1527.00      6654.95
   65.61        2951.25           2162        1552.00      6763.98
   65.64        2951.50           2165        1586.00      6912.26
   65.67        2951.75           2169        1552.00      6763.98
   65.70        2952.00           2172        1578.00      6877.37
   65.74        2952.25           2176        1563.00      6811.95
   65.77        2952.50           2179        1577.00      6873.01
   65.80        2952.75           2183        1568.00      6833.76
   65.83        2953.00           2186        1558.00      6790.15
   65.86        2953.25           2190        1601.00      6977.68
   65.89        2953.50           2193        1591.00      6934.07
   65.92        2953.75           2197        1646.00      7173.94
   65.95        2954.00           2200        1634.00      7121.60
   65.98        2954.25           2204        1581.00      6890.45
   66.01        2954.50           2208        1665.00      7256.80
   66.04        2954.75           2211        1624.00      7077.99
   66.07        2955.00           2215        1644.00      7165.22
   66.10        2955.25           2218        1659.00      7230.64
   66.13        2955.50           2222        1697.00      7396.37
   66.16        2955.75           2225        1694.00      7383.28
   66.19        2956.00           2229        1711.00      7457.43
   66.22        2956.25           2232        1677.00      7309.14
   66.26        2956.50           2236        1676.00      7304.78
   66.29        2956.75           2239        1711.00      7457.43
   66.32        2957.00           2243        1702.00      7418.17
   66.35        2957.25           2246        1750.00      7627.52
   66.38        2957.50           2250        1771.00      7719.11
   66.41        2957.75           2254        1746.00      7610.08
   66.44        2958.00           2257        1825.00      7954.64
   66.47        2958.25           2261        1859.00      8102.93
   66.50        2958.50           2264        1831.00      7980.81
   66.53        2958.75           2268        1886.00      8220.69
   66.56        2959.00           2271        1858.00      8098.57
   66.59        2959.25           2275        1926.00      8395.16
   66.62        2959.50           2278        1883.00      8207.61
   66.65        2959.75           2282        1960.00      8543.46
   66.68        2960.00           2285        1953.00      8512.93
   66.71        2960.25           2289        1967.00      8573.99
   66.74        2960.50           2293        2057.00      8966.55
   66.77        2960.75           2296        2112.00      9206.46
   66.81        2961.00           2300        2457.00     10711.40
   66.84        2961.25           2303        3938.00     17173.50
   66.87        2961.50           2307       12099.00     52833.71
   66.90        2961.75           2310       25169.00    110125.20
   66.93        2962.00           2314       47640.00    209151.20
   66.96        2962.25           2317       67007.00    295038.50
   66.99        2962.50           2321       91756.00    405532.70
   67.02        2962.75           2324      110896.00    491561.80
   67.05        2963.00           2328      137814.00    613416.50
   67.08        2963.25           2331      159012.00    710100.70
   67.11        2963.50           2335      186764.00    837658.50
   67.14        2963.75           2339      211828.00    953834.10
   67.17        2964.00           2342      229512.00   1036367.00
   67.20        2964.25           2346      253072.00   1147062.00
   67.23        2964.50           2349      274246.00   1247278.00
   67.26        2964.75           2353      302033.00   1379860.00
   67.29        2965.00           2356      321722.00   1474551.00
   67.33        2965.25           2360      343838.00   1581665.00
   67.36        2965.50           2363      362830.00   1674294.00
   67.39        2965.75           2367      385762.00   1786946.00
   67.42        2966.00           2370      404584.00   1880078.00
   67.45        2966.25           2374      425602.00   1984802.00
   67.48        2966.50           2378      439582.00   2054889.00
   67.51        2966.75           2381      443514.00   2074664.00
   67.54        2967.00           2385      445019.00   2082241.00
   67.57        2967.25           2388      444917.00   2081727.00
   67.60        2967.50           2392      444050.00   2077362.00
   67.63        2967.75           2395      442983.00   2071992.00
   67.66        2968.00           2399      436583.00   2039825.00
   67.69        2968.25           2402      425168.00   1982632.00
   67.72        2968.50           2406      401567.00   1865108.00
   67.75        2968.75           2409      382815.00   1772419.00
   67.78        2969.00           2413      358954.00   1655341.00
   67.81        2969.25           2417      333760.00   1532755.00
   67.85        2969.50           2420      316333.00   1448571.00
   67.88        2969.75           2424      288798.00   1316558.00
   67.91        2970.00           2427      266678.00   1211379.00
   67.94        2970.25           2431      237757.00   1075009.00
   67.97        2970.50           2434      218316.00    984059.60
   68.00        2970.75           2438      191409.00    859118.60
   68.03        2971.00           2441      170729.00    763819.30
   68.06        2971.25           2445      146304.00    652062.30
   68.09        2971.50           2449      119733.00    531453.60
   68.12        2971.75           2452       98341.00    435073.30
   68.15        2972.00           2456       70610.00    311072.60
   68.18        2972.25           2459       50782.00    223050.90
   68.21        2972.50           2463       26966.00    118019.70
   68.24        2972.75           2466       13524.00     59069.26
   68.27        2973.00           2470        4705.00     20521.29
   68.30        2973.25           2473        2736.00     11928.55
   68.33        2973.50           2477        2214.00      9651.38
   68.37        2973.75           2481        2103.00      9167.20
   68.40        2974.00           2484        2086.00      9093.05
   68.43        2974.25           2488        1985.00      8652.50
   68.46        2974.50           2491        1923.00      8382.08
   68.49        2974.75           2495        1975.00      8608.89
   68.52        2975.00           2498        1926.00      8395.16
   68.55        2975.25           2502        1882.00      8203.25
   68.58        2975.50           2505        1883.00      8207.61
   68.61        2975.75           2509        1827.00      7963.36
   68.64        2976.00           2512        1851.00      8068.04
   68.67        2976.25           2516        1792.00      7810.71
   68.70        2976.50           2520        1789.00      7797.62
   68.73        2976.75           2523        1771.00      7719.11
   68.76        2977.00           2527        1768.00      7706.03
   68.79        2977.25           2530        1753.00      7640.61
   68.82        2977.50           2534        1674.00      7296.06
   68.85        2977.75           2537        1701.00      7413.81
   68.89        2978.00           2541        1741.00      7588.27
   68.92        2978.25           2544        1686.00      7348.39
   68.95        2978.50           2548        1649.00      7187.02
   68.98        2978.75           2552        1650.00      7191.38
   69.01        2979.00           2555        1609.00      7012.57
   69.04        2979.25           2559        1602.00      6982.04
   69.07        2979.50           2562        1597.00      6960.23
   69.10        2979.75           2566        1559.00      6794.51
   69.13        2980.00           2569        1586.00      6912.26
   69.16        2980.25           2573        1560.00      6798.87
   69.19        2980.50           2577        1593.00      6942.79
   69.22        2980.75           2580        1512.00      6589.53
   69.25        2981.00           2584        1554.00      6772.70
   69.28        2981.25           2587        1572.00      6851.20
   69.31        2981.50           2591        1560.00      6798.87
   69.34        2981.75           2594        1568.00      6833.76
   69.37        2982.00           2598        1497.00      6524.12
   69.41        2982.25           2601        1494.00      6511.03
   69.44        2982.50           2605        1468.00      6397.64
   69.47        2982.75           2609        1491.00      6497.95
   69.50        2983.00           2612        1537.00      6698.56
   69.53        2983.25           2616        1543.00      6724.73
   69.56        2983.50           2619        1485.00      6471.78
   69.59        2983.75           2623        1471.00      6410.73
   69.62        2984.00           2626        1459.00      6358.39
HS scan finished at 01:09:51
end
************************************************************
  HS Scan of (1) Internal mercury lamp
************************************************************
Integration time is 0.2294 seconds per sample
dh190519Reading 51.44 .94 3.54pr1000
************************************************************
Dead Time -------------------------  3.4E-08 
Number of Cycles Used -------------  4 
Starting Wavelength (Angstroms) ---  2950 
Final Wavelength (Angstoms) -------  2984 
Wavelength Increment (Angstroms) --  .25 
Filter Wheel #1 Position ---------- (1) Ground quartz diffuser (ND=2.32)
Filter Wheel #2 Position ---------- (1) Neutral Density 0.494



************************************************************
HS scan start time = 20:38:40
Dark Count =  3.2 


Time (GMT)  Wavelength (Ang)  Step Number  Raw Counts  Counts/Second

 1239.56        2950.00           2144        1356.00      5898.31
 1239.75        2950.25           2147        1379.00      5998.61
 1239.78        2950.50           2151        1371.00      5963.72
 1239.81        2950.75           2155        1397.00      6077.11
 1239.84        2951.00           2158        1422.00      6186.13
 1239.87        2951.25           2162        1396.00      6072.74
 1239.90        2951.50           2165        1404.00      6107.63
 1239.93        2951.75           2169        1427.00      6207.94
 1239.96        2952.00           2172        1414.00      6151.24
 1240.00        2952.25           2176        1411.00      6138.16
 1240.03        2952.50           2179        1428.00      6212.30
 1240.06        2952.75           2183        1439.00      6260.27
 1240.09        2953.00           2186        1419.00      6173.05
 1240.12        2953.25           2190        1426.00      6203.58
 1240.15        2953.50           2193        1445.00      6286.44
 1240.18        2953.75           2197        1468.00      6386.74
 1240.21        2954.00           2200        1487.00      6469.60
 1240.24        2954.25           2204        1476.00      6421.63
 1240.27        2954.50           2208        1466.00      6378.02
 1240.30        2954.75           2211        1472.00      6404.18
 1240.33        2955.00           2215        1476.00      6421.63
 1240.36        2955.25           2218        1454.00      6325.68
 1240.39        2955.50           2222        1500.00      6526.30
 1240.42        2955.75           2225        1492.00      6491.41
 1240.45        2956.00           2229        1532.00      6665.85
 1240.49        2956.25           2232        1495.00      6504.49
 1240.52        2956.50           2236        1552.00      6753.08
 1240.55        2956.75           2239        1574.00      6849.02
 1240.58        2957.00           2243        1586.00      6901.36
 1240.61        2957.25           2246        1579.00      6870.83
 1240.64        2957.50           2250        1575.00      6853.38
 1240.67        2957.75           2254        1576.00      6857.75
 1240.70        2958.00           2257        1656.00      7206.65
 1240.73        2958.25           2261        1663.00      7237.18
 1240.76        2958.50           2264        1658.00      7215.37
 1240.79        2958.75           2268        1668.00      7258.98
 1240.82        2959.00           2271        1702.00      7407.27
 1240.85        2959.25           2275        1715.00      7463.97
 1240.88        2959.50           2278        1748.00      7607.90
 1240.91        2959.75           2282        1761.00      7664.60
 1240.94        2960.00           2285        1794.00      7808.52
 1240.97        2960.25           2289        1840.00      8009.16
 1241.01        2960.50           2293        1911.00      8318.83
 1241.04        2960.75           2296        1931.00      8406.06
 1241.07        2961.00           2300        2078.00      9047.25
 1241.10        2961.25           2303        2601.00     11328.69
 1241.13        2961.50           2307        7737.00     33751.88
 1241.16        2961.75           2310       17999.00     78657.34
 1241.19        2962.00           2314       38508.00    168816.20
 1241.22        2962.25           2317       55502.00    243945.20
 1241.25        2962.50           2321       79195.00    349337.50
 1241.28        2962.75           2324       97063.00    429324.20
 1241.31        2963.00           2328      122883.00    545688.40
 1241.34        2963.25           2331      142316.00    633885.10
 1241.37        2963.50           2335      171163.00    765801.50
 1241.40        2963.75           2339      196446.00    882414.10
 1241.43        2964.00           2342      210856.00    949299.70
 1241.46        2964.25           2346      237782.00   1075115.00
 1241.49        2964.50           2349      259857.00   1179088.00
 1241.52        2964.75           2353      288321.00   1314270.00
 1241.56        2965.00           2356      307662.00   1406856.00
 1241.59        2965.25           2360      332612.00   1527182.00
 1241.62        2965.50           2363      350391.00   1613546.00
 1241.65        2965.75           2367      373927.00   1728684.00
 1241.68        2966.00           2370      391376.00   1814648.00
 1241.71        2966.25           2374      411474.00   1914311.00
 1241.74        2966.50           2378      425847.00   1986015.00
 1241.77        2966.75           2381      429753.00   2005564.00
 1241.80        2967.00           2385      432744.00   2020552.00
 1241.83        2967.25           2388      432562.00   2019639.00
 1241.86        2967.50           2392      432930.00   2021484.00
 1241.89        2967.75           2395      432152.00   2017584.00
 1241.92        2968.00           2399      427386.00   1993714.00
 1241.95        2968.25           2402      416796.00   1940819.00
 1241.98        2968.50           2406      394507.00   1830128.00
 1242.01        2968.75           2409      377180.00   1744671.00
 1242.04        2969.00           2413      353757.00   1629955.00
 1242.08        2969.25           2417      330745.00   1518143.00
 1242.11        2969.50           2420      313165.00   1433308.00
 1242.14        2969.75           2424      291107.00   1327570.00
 1242.17        2970.00           2427      272162.00   1237371.00
 1242.20        2970.25           2431      243918.00   1103940.00
 1242.23        2970.50           2434      223968.00   1010430.00
 1242.26        2970.75           2438      196344.00    881941.80
 1242.29        2971.00           2441      178411.00    799135.60
 1242.32        2971.25           2445      153838.00    686431.20
 1242.35        2971.50           2449      129543.00    575854.60
 1242.38        2971.75           2452      111556.00    494526.20
 1242.41        2972.00           2456       86577.00    382330.10
 1242.44        2972.25           2459       66809.00    294146.80
 1242.47        2972.50           2463       39944.00    175149.80
 1242.50        2972.75           2466       22150.00     96860.75
 1242.53        2973.00           2470        7655.00     33393.61
 1242.56        2973.25           2473        3787.00     16503.59
 1242.60        2973.50           2477        2216.00      9649.20
 1242.63        2973.75           2481        1956.00      8515.11
 1242.66        2974.00           2484        1968.00      8567.45
 1242.69        2974.25           2488        1913.00      8327.55
 1242.72        2974.50           2491        1826.00      7948.09
 1242.75        2974.75           2495        1837.00      7996.07
 1242.78        2975.00           2498        1785.00      7769.27
 1242.81        2975.25           2502        1750.00      7616.62
 1242.84        2975.50           2505        1755.00      7638.43
 1242.87        2975.75           2509        1723.00      7498.86
 1242.90        2976.00           2512        1690.00      7354.93
 1242.93        2976.25           2516        1654.00      7197.93
 1242.96        2976.50           2520        1616.00      7032.20
 1242.99        2976.75           2523        1625.00      7071.45
 1243.02        2977.00           2527        1626.00      7075.81
 1243.05        2977.25           2530        1576.00      6857.75
 1243.08        2977.50           2534        1567.00      6818.49
 1243.12        2977.75           2537        1544.00      6718.19
 1243.15        2978.00           2541        1541.00      6705.10
 1243.18        2978.25           2544        1527.00      6644.05
 1243.21        2978.50           2548        1543.00      6713.83
 1243.24        2978.75           2552        1504.00      6543.74
 1243.27        2979.00           2555        1533.00      6670.21
 1243.30        2979.25           2559        1485.00      6460.88
 1243.33        2979.50           2562        1450.00      6308.24
 1243.36        2979.75           2566        1423.00      6190.49
 1243.39        2980.00           2569        1432.00      6229.74
 1243.42        2980.25           2573        1414.00      6151.24
 1243.45        2980.50           2577        1468.00      6386.74
 1243.48        2980.75           2580        1421.00      6181.77
 1243.51        2981.00           2584        1406.00      6116.36
 1243.54        2981.25           2587        1385.00      6024.77
 1243.57        2981.50           2591        1382.00      6011.69
 1243.60        2981.75           2594        1384.00      6020.41
 1243.64        2982.00           2598        1423.00      6190.49
 1243.67        2982.25           2601        1363.00      5928.83
 1243.70        2982.50           2605        1375.00      5981.16
 1243.73        2982.75           2609        1376.00      5985.53
 1243.76        2983.00           2612        1340.00      5828.53
 1243.79        2983.25           2616        1362.00      5924.47
 1243.82        2983.50           2619        1362.00      5924.47
 1243.85        2983.75           2623        1354.00      5889.58
 1243.88        2984.00           2626        1321.00      5745.67
HS scan finished at 20:44:06
end
