************************************************************
  HS Scan of 
************************************************************
Integration time is 0.2294 seconds per sample
dh100517Reading 51.44 .94 2.82pr1000
************************************************************
Dead Time -------------------------  3.4E-08 
Number of Cycles Used -------------  4 
Starting Wavelength (Angstroms) ---  2950 
Final Wavelength (Angstoms) -------  2984 
Wavelength Increment (Angstroms) --  .25 
Filter Wheel #1 Position ---------- (1) Ground quartz diffuser (ND=2.32)
Filter Wheel #2 Position ---------- (1) Neutral Density 0.494



************************************************************
HS scan start time = 01:26:18
Dark Count =  .5 


Time (GMT)  Wavelength (Ang)  Step Number  Raw Counts  Counts/Second

   87.19        2950.00           2144         561.00      2443.53
   87.38        2950.25           2147         546.00      2378.13
   87.42        2950.50           2151         554.00      2413.01
   87.45        2950.75           2155         574.00      2500.21
   87.48        2951.00           2158         570.00      2482.77
   87.51        2951.25           2162         596.00      2596.13
   87.54        2951.50           2165         569.00      2478.41
   87.57        2951.75           2169         583.00      2539.45
   87.60        2952.00           2172         567.00      2469.69
   87.63        2952.25           2176         605.00      2635.37
   87.66        2952.50           2179         574.00      2500.21
   87.69        2952.75           2183         589.00      2565.61
   87.72        2953.00           2186         599.00      2609.21
   87.75        2953.25           2190         624.00      2718.21
   87.78        2953.50           2193         584.00      2543.81
   87.81        2953.75           2197         605.00      2635.37
   87.84        2954.00           2200         602.00      2622.29
   87.87        2954.25           2204         597.00      2600.49
   87.90        2954.50           2208         597.00      2600.49
   87.94        2954.75           2211         595.00      2591.77
   87.97        2955.00           2215         600.00      2613.57
   88.00        2955.25           2218         638.00      2779.25
   88.03        2955.50           2222         621.00      2705.13
   88.06        2955.75           2225         651.00      2835.93
   88.09        2956.00           2229         632.00      2753.09
   88.12        2956.25           2232         636.00      2770.53
   88.15        2956.50           2236         626.00      2726.93
   88.18        2956.75           2239         668.00      2910.05
   88.21        2957.00           2243         649.00      2827.21
   88.24        2957.25           2246         666.00      2901.33
   88.27        2957.50           2250         692.00      3014.69
   88.30        2957.75           2254         685.00      2984.17
   88.33        2958.00           2257         663.00      2888.25
   88.36        2958.25           2261         697.00      3036.49
   88.39        2958.50           2264         690.00      3005.97
   88.42        2958.75           2268         730.00      3180.38
   88.45        2959.00           2271         722.00      3145.50
   88.49        2959.25           2275         740.00      3223.98
   88.52        2959.50           2278         712.00      3101.90
   88.55        2959.75           2282         736.00      3206.54
   88.58        2960.00           2285         747.00      3254.50
   88.61        2960.25           2289         784.00      3415.83
   88.64        2960.50           2293         789.00      3437.63
   88.67        2960.75           2296         818.00      3564.08
   88.70        2961.00           2300         902.00      3930.34
   88.73        2961.25           2303        1403.00      6115.05
   88.76        2961.50           2307        5168.00     22543.43
   88.79        2961.75           2310       10718.00     46794.10
   88.82        2962.00           2314       19751.00     86349.49
   88.85        2962.25           2317       26940.00    117906.30
   88.88        2962.50           2321       36431.00    159672.30
   88.91        2962.75           2324       44293.00    194359.90
   88.94        2963.00           2328       54828.00    240970.10
   88.97        2963.25           2331       63706.00    280364.70
   89.01        2963.50           2335       75255.00    331770.70
   89.04        2963.75           2339       86406.00    381577.20
   89.07        2964.00           2342       94801.00    419186.20
   89.10        2964.25           2346      104362.00    462137.10
   89.13        2964.50           2349      111890.00    496044.40
   89.16        2964.75           2353      122555.00    544216.50
   89.19        2965.00           2356      131363.00    584121.40
   89.22        2965.25           2360      142946.00    636765.60
   89.25        2965.50           2363      150404.00    670762.90
   89.28        2965.75           2367      160262.00    715823.00
   89.31        2966.00           2370      167750.00    750143.70
   89.34        2966.25           2374      176134.00    788667.70
   89.37        2966.50           2378      182803.00    819384.60
   89.40        2966.75           2381      184977.00    829411.90
   89.43        2967.00           2385      185419.00    831451.40
   89.46        2967.25           2388      185472.00    831696.00
   89.49        2967.50           2392      185596.00    832268.30
   89.53        2967.75           2395      185194.00    830413.20
   89.56        2968.00           2399      182082.00    816060.60
   89.59        2968.25           2402      176740.00    791456.20
   89.62        2968.50           2406      167198.00    747610.80
   89.65        2968.75           2409      159126.00    710623.30
   89.68        2969.00           2413      147452.00    657296.80
   89.71        2969.25           2417      136643.00    608095.10
   89.74        2969.50           2420      128342.00    570422.50
   89.77        2969.75           2424      117468.00    521219.50
   89.80        2970.00           2427      109149.00    483689.40
   89.83        2970.25           2431       97680.00    432106.20
   89.86        2970.50           2434       89271.00    394401.30
   89.89        2970.75           2438       78562.00    346523.80
   89.92        2971.00           2441       70263.00    309528.60
   89.95        2971.25           2445       58843.00    258772.90
   89.98        2971.50           2449       48707.00    213870.80
   90.01        2971.75           2452       41090.00    180218.20
   90.05        2972.00           2456       30109.00    131838.60
   90.08        2972.25           2459       21752.00     95126.26
   90.11        2972.50           2463       11554.00     50450.46
   90.14        2972.75           2466        5514.00     24054.10
   90.17        2973.00           2470        1883.00      8208.48
   90.20        2973.25           2473        1092.00      4758.83
   90.23        2973.50           2477         896.00      3904.18
   90.26        2973.75           2481         835.00      3638.20
   90.29        2974.00           2484         820.00      3572.80
   90.32        2974.25           2488         783.00      3411.47
   90.35        2974.50           2491         821.00      3577.16
   90.38        2974.75           2495         778.00      3389.67
   90.41        2975.00           2498         737.00      3210.90
   90.44        2975.25           2502         772.00      3363.51
   90.47        2975.50           2505         762.00      3319.90
   90.50        2975.75           2509         704.00      3067.02
   90.53        2976.00           2512         717.00      3123.70
   90.57        2976.25           2516         702.00      3058.30
   90.60        2976.50           2520         696.00      3032.13
   90.63        2976.75           2523         687.00      2992.89
   90.66        2977.00           2527         679.00      2958.01
   90.69        2977.25           2530         683.00      2975.45
   90.72        2977.50           2534         707.00      3080.10
   90.75        2977.75           2537         640.00      2787.97
   90.78        2978.00           2541         652.00      2840.29
   90.81        2978.25           2544         660.00      2875.17
   90.84        2978.50           2548         682.00      2971.09
   90.87        2978.75           2552         636.00      2770.53
   90.90        2979.00           2555         632.00      2753.09
   90.93        2979.25           2559         627.00      2731.29
   90.96        2979.50           2562         648.00      2822.85
   90.99        2979.75           2566         599.00      2609.21
   91.02        2980.00           2569         640.00      2787.97
   91.05        2980.25           2573         625.00      2722.57
   91.09        2980.50           2577         621.00      2705.13
   91.12        2980.75           2580         572.00      2491.49
   91.15        2981.00           2584         613.00      2670.25
   91.18        2981.25           2587         609.00      2652.81
   91.21        2981.50           2591         576.00      2508.93
   91.24        2981.75           2594         638.00      2779.25
   91.27        2982.00           2598         570.00      2482.77
   91.30        2982.25           2601         579.00      2522.01
   91.33        2982.50           2605         600.00      2613.57
   91.36        2982.75           2609         547.00      2382.49
   91.39        2983.00           2612         598.00      2604.85
   91.42        2983.25           2616         596.00      2596.13
   91.45        2983.50           2619         571.00      2487.13
   91.48        2983.75           2623         586.00      2552.53
   91.51        2984.00           2626         562.00      2447.89
HS scan finished at 01:31:44
end
************************************************************
  HS Scan of 
************************************************************
Integration time is 0.2294 seconds per sample
dh100517Reading 51.44 .94 3.43pr1000
************************************************************
Dead Time -------------------------  3.4E-08 
Number of Cycles Used -------------  4 
Starting Wavelength (Angstroms) ---  2950 
Final Wavelength (Angstoms) -------  2984 
Wavelength Increment (Angstroms) --  .25 
Filter Wheel #1 Position ---------- (1) Ground quartz diffuser (ND=2.32)
Filter Wheel #2 Position ---------- (1) Neutral Density 0.494



************************************************************
HS scan start time = 20:37:25
Dark Count =  2.7 


Time (GMT)  Wavelength (Ang)  Step Number  Raw Counts  Counts/Second

 1238.31        2950.00           2144         540.00      2342.38
 1238.51        2950.25           2147         506.00      2194.15
 1238.54        2950.50           2151         500.00      2167.99
 1238.57        2950.75           2155         572.00      2481.90
 1238.60        2951.00           2158         516.00      2237.75
 1238.63        2951.25           2162         547.00      2372.90
 1238.66        2951.50           2165         533.00      2311.86
 1238.69        2951.75           2169         544.00      2359.82
 1238.72        2952.00           2172         537.00      2329.30
 1238.75        2952.25           2176         521.00      2259.55
 1238.78        2952.50           2179         508.00      2202.87
 1238.81        2952.75           2183         534.00      2316.22
 1238.84        2953.00           2186         550.00      2385.98
 1238.87        2953.25           2190         522.00      2263.91
 1238.90        2953.50           2193         535.00      2320.58
 1238.93        2953.75           2197         557.00      2416.50
 1238.97        2954.00           2200         557.00      2416.50
 1239.00        2954.25           2204         530.00      2298.78
 1239.03        2954.50           2208         558.00      2420.86
 1239.06        2954.75           2211         543.00      2355.46
 1239.09        2955.00           2215         549.00      2381.62
 1239.12        2955.25           2218         553.00      2399.06
 1239.15        2955.50           2222         559.00      2425.22
 1239.18        2955.75           2225         560.00      2429.58
 1239.21        2956.00           2229         569.00      2468.82
 1239.24        2956.25           2232         584.00      2534.22
 1239.27        2956.50           2236         567.00      2460.10
 1239.30        2956.75           2239         579.00      2512.42
 1239.33        2957.00           2243         584.00      2534.22
 1239.36        2957.25           2246         598.00      2595.26
 1239.39        2957.50           2250         608.00      2638.86
 1239.42        2957.75           2254         620.00      2691.18
 1239.45        2958.00           2257         606.00      2630.14
 1239.49        2958.25           2261         607.00      2634.50
 1239.52        2958.50           2264         603.00      2617.06
 1239.55        2958.75           2268         642.00      2787.10
 1239.58        2959.00           2271         660.00      2865.58
 1239.61        2959.25           2275         669.00      2904.82
 1239.64        2959.50           2278         662.00      2874.30
 1239.67        2959.75           2282         680.00      2952.78
 1239.70        2960.00           2285         665.00      2887.38
 1239.73        2960.25           2289         708.00      3074.86
 1239.76        2960.50           2293         737.00      3201.31
 1239.79        2960.75           2296         729.00      3166.43
 1239.82        2961.00           2300         791.00      3436.76
 1239.85        2961.25           2303         928.00      4034.12
 1239.88        2961.50           2307        2371.00     10327.51
 1239.91        2961.75           2310        6230.00     27171.12
 1239.94        2962.00           2314       15555.00     67952.37
 1239.97        2962.25           2317       23555.00    103029.40
 1240.01        2962.50           2321       33244.00    145624.60
 1240.04        2962.75           2324       41009.00    179851.00
 1240.07        2963.00           2328       50621.00    222329.50
 1240.10        2963.25           2331       57803.00    254149.60
 1240.13        2963.50           2335       69130.00    304475.30
 1240.16        2963.75           2339       80535.00    355323.00
 1240.19        2964.00           2342       88400.00    390491.50
 1240.22        2964.25           2346       98735.00    436833.70
 1240.25        2964.50           2349      106423.00    471402.40
 1240.28        2964.75           2353      116119.00    515117.20
 1240.31        2965.00           2356      123124.00    546781.30
 1240.34        2965.25           2360      131762.00    585921.80
 1240.37        2965.50           2363      138798.00    617881.30
 1240.40        2965.75           2367      149673.00    667417.00
 1240.43        2966.00           2370      158065.00    705758.60
 1240.46        2966.25           2374      166746.00    745527.10
 1240.49        2966.50           2378      172305.00    771050.80
 1240.53        2966.75           2381      173762.00    777748.00
 1240.56        2967.00           2385      174293.00    780189.60
 1240.59        2967.25           2388      174552.00    781380.50
 1240.62        2967.50           2392      174671.00    781927.80
 1240.65        2967.75           2395      173920.00    778474.40
 1240.68        2968.00           2399      170295.00    761816.80
 1240.71        2968.25           2402      165101.00    737982.90
 1240.74        2968.50           2406      156219.00    697315.80
 1240.77        2968.75           2409      150065.00    669205.80
 1240.80        2969.00           2413      139858.00    622702.10
 1240.83        2969.25           2417      128980.00    573304.50
 1240.86        2969.50           2420      121400.00    538982.00
 1240.89        2969.75           2424      111467.00    494127.10
 1240.92        2970.00           2427      104126.00    461065.50
 1240.95        2970.25           2431       94500.00    417826.20
 1240.98        2970.50           2434       87537.00    386628.50
 1241.01        2970.75           2438       76915.00    339164.60
 1241.05        2971.00           2441       68883.00    303376.00
 1241.08        2971.25           2445       58152.00    255697.70
 1241.11        2971.50           2449       47106.00    206781.30
 1241.14        2971.75           2452       39704.00    174093.30
 1241.17        2972.00           2456       29817.00    130544.60
 1241.20        2972.25           2459       23596.00    103209.40
 1241.23        2972.50           2463       14476.00     63227.76
 1241.26        2972.75           2466        7669.00     33456.96
 1241.29        2973.00           2470        2388.00     10401.67
 1241.32        2973.25           2473        1127.00      4901.86
 1241.35        2973.50           2477         868.00      3772.50
 1241.38        2973.75           2481         776.00      3371.35
 1241.41        2974.00           2484         753.00      3271.07
 1241.44        2974.25           2488         732.00      3179.51
 1241.47        2974.50           2491         717.00      3114.10
 1241.50        2974.75           2495         684.00      2970.22
 1241.53        2975.00           2498         689.00      2992.02
 1241.57        2975.25           2502         670.00      2909.18
 1241.60        2975.50           2505         682.00      2961.50
 1241.63        2975.75           2509         637.00      2765.30
 1241.66        2976.00           2512         640.00      2778.38
 1241.69        2976.25           2516         645.00      2800.18
 1241.72        2976.50           2520         645.00      2800.18
 1241.75        2976.75           2523         611.00      2651.94
 1241.78        2977.00           2527         603.00      2617.06
 1241.81        2977.25           2530         667.00      2896.10
 1241.84        2977.50           2534         638.00      2769.66
 1241.87        2977.75           2537         572.00      2481.90
 1241.90        2978.00           2541         602.00      2612.70
 1241.93        2978.25           2544         585.00      2538.58
 1241.96        2978.50           2548         566.00      2455.74
 1241.99        2978.75           2552         577.00      2503.70
 1242.02        2979.00           2555         571.00      2477.54
 1242.05        2979.25           2559         575.00      2494.98
 1242.09        2979.50           2562         565.00      2451.38
 1242.12        2979.75           2566         553.00      2399.06
 1242.15        2980.00           2569         547.00      2372.90
 1242.18        2980.25           2573         542.00      2351.10
 1242.21        2980.50           2577         547.00      2372.90
 1242.24        2980.75           2580         539.00      2338.02
 1242.27        2981.00           2584         539.00      2338.02
 1242.30        2981.25           2587         523.00      2268.27
 1242.33        2981.50           2591         507.00      2198.51
 1242.36        2981.75           2594         534.00      2316.22
 1242.39        2982.00           2598         504.00      2185.43
 1242.42        2982.25           2601         498.00      2159.27
 1242.45        2982.50           2605         546.00      2368.54
 1242.48        2982.75           2609         525.00      2276.99
 1242.51        2983.00           2612         515.00      2233.39
 1242.54        2983.25           2616         506.00      2194.15
 1242.57        2983.50           2619         514.00      2229.03
 1242.61        2983.75           2623         514.00      2229.03
 1242.64        2984.00           2626         496.00      2150.55
HS scan finished at 20:42:52
end
