************************************************************
  HS Scan of (1) Internal mercury lamp
************************************************************
Integration time is 0.2294 seconds per sample
dh180519Reading 51.44 .94 3.21pr1000
************************************************************
Dead Time -------------------------  3.4E-08 
Number of Cycles Used -------------  4 
Starting Wavelength (Angstroms) ---  2950 
Final Wavelength (Angstoms) -------  2984 
Wavelength Increment (Angstroms) --  .25 
Filter Wheel #1 Position ---------- (1) Ground quartz diffuser (ND=2.32)
Filter Wheel #2 Position ---------- (1) Neutral Density 0.494



************************************************************
HS scan start time = 01:04:16
Dark Count =  1.1 


Time (GMT)  Wavelength (Ang)  Step Number  Raw Counts  Counts/Second

   65.17        2950.00           2144        1479.00      6443.87
   65.36        2950.25           2147        1506.00      6561.62
   65.39        2950.50           2151        1481.00      6452.59
   65.42        2950.75           2155        1512.00      6587.79
   65.45        2951.00           2158        1535.00      6688.09
   65.48        2951.25           2162        1537.00      6696.82
   65.51        2951.50           2165        1515.00      6600.87
   65.54        2951.75           2169        1500.00      6535.45
   65.58        2952.00           2172        1483.00      6461.32
   65.61        2952.25           2176        1544.00      6727.35
   65.64        2952.50           2179        1541.00      6714.26
   65.67        2952.75           2183        1591.00      6932.32
   65.70        2953.00           2186        1551.00      6757.87
   65.73        2953.25           2190        1536.00      6692.46
   65.76        2953.50           2193        1563.00      6810.21
   65.79        2953.75           2197        1551.00      6757.87
   65.82        2954.00           2200        1584.00      6901.79
   65.85        2954.25           2204        1566.00      6823.29
   65.88        2954.50           2208        1601.00      6975.94
   65.91        2954.75           2211        1601.00      6975.94
   65.94        2955.00           2215        1658.00      7224.53
   65.97        2955.25           2218        1616.00      7041.36
   66.00        2955.50           2222        1634.00      7119.86
   66.03        2955.75           2225        1593.00      6941.05
   66.06        2956.00           2229        1646.00      7172.19
   66.10        2956.25           2232        1650.00      7189.64
   66.13        2956.50           2236        1705.00      7429.51
   66.16        2956.75           2239        1684.00      7337.93
   66.19        2957.00           2243        1705.00      7429.51
   66.22        2957.25           2246        1702.00      7416.43
   66.25        2957.50           2250        1732.00      7547.27
   66.28        2957.75           2254        1737.00      7569.08
   66.31        2958.00           2257        1768.00      7704.29
   66.34        2958.25           2261        1779.00      7752.26
   66.37        2958.50           2264        1807.00      7874.38
   66.40        2958.75           2268        1847.00      8048.85
   66.43        2959.00           2271        1863.00      8118.63
   66.46        2959.25           2275        1871.00      8153.53
   66.49        2959.50           2278        1896.00      8262.57
   66.52        2959.75           2282        1926.00      8393.42
   66.55        2960.00           2285        1948.00      8489.37
   66.58        2960.25           2289        2000.00      8716.18
   66.62        2960.50           2293        2053.00      8947.36
   66.65        2960.75           2296        2059.00      8973.53
   66.68        2961.00           2300        2345.00     10221.08
   66.71        2961.25           2303        3415.00     14889.40
   66.74        2961.50           2307       11329.00     49463.68
   66.77        2961.75           2310       24461.00    107014.20
   66.80        2962.00           2314       46655.00    204794.60
   66.83        2962.25           2317       64514.00    283952.70
   66.86        2962.50           2321       89372.00    394850.90
   66.89        2962.75           2324      109897.00    487057.20
   66.92        2963.00           2328      139366.00    620471.60
   66.95        2963.25           2331      161225.00    720229.60
   66.98        2963.50           2335      188501.00    845678.00
   67.01        2963.75           2339      219422.00    989216.60
   67.04        2964.00           2342      241267.00   1091489.00
   67.07        2964.25           2346      269301.00   1223809.00
   67.10        2964.50           2349      289480.00   1319811.00
   67.13        2964.75           2353      315348.00   1443826.00
   67.17        2965.00           2356      336007.00   1543643.00
   67.20        2965.25           2360      363068.00   1675456.00
   67.23        2965.50           2363      381631.00   1766585.00
   67.26        2965.75           2367      402618.00   1870319.00
   67.29        2966.00           2370      416292.00   1938317.00
   67.32        2966.25           2374      438389.00   2048892.00
   67.35        2966.50           2378      451877.00   2116814.00
   67.38        2966.75           2381      454204.00   2128565.00
   67.41        2967.00           2385      454942.00   2132294.00
   67.44        2967.25           2388      454209.00   2128590.00
   67.47        2967.50           2392      454180.00   2128444.00
   67.50        2967.75           2395      450461.00   2109668.00
   67.53        2968.00           2399      436444.00   2039125.00
   67.56        2968.25           2402      422008.00   1966838.00
   67.59        2968.50           2406      397973.00   1847295.00
   67.62        2968.75           2409      379593.00   1756551.00
   67.65        2969.00           2413      355104.00   1636537.00
   67.69        2969.25           2417      329686.00   1513028.00
   67.72        2969.50           2420      311915.00   1427306.00
   67.75        2969.75           2424      287739.00   1311503.00
   67.78        2970.00           2427      267781.00   1216603.00
   67.81        2970.25           2431      238142.00   1076814.00
   67.84        2970.50           2434      216499.00    975586.60
   67.87        2970.75           2438      188562.00    845959.80
   67.90        2971.00           2441      168583.00    753964.00
   67.93        2971.25           2445      141243.00    629010.90
   67.96        2971.50           2449      113714.00    504269.10
   67.99        2971.75           2452       92549.00    409085.10
   68.02        2972.00           2456       65247.00    287210.80
   68.05        2972.25           2459       45926.00    201572.50
   68.08        2972.50           2463       23414.00    102417.50
   68.11        2972.75           2466       11043.00     48212.80
   68.14        2973.00           2470        3846.00     16770.24
   68.17        2973.25           2473        2577.00     11233.15
   68.21        2973.50           2477        2185.00      9523.14
   68.24        2973.75           2481        2061.00      8982.25
   68.27        2974.00           2484        2044.00      8908.10
   68.30        2974.25           2488        2030.00      8847.04
   68.33        2974.50           2491        1941.00      8458.84
   68.36        2974.75           2495        1929.00      8406.50
   68.39        2975.00           2498        1889.00      8232.03
   68.42        2975.25           2502        1857.00      8092.46
   68.45        2975.50           2505        1849.00      8057.57
   68.48        2975.75           2509        1845.00      8040.12
   68.51        2976.00           2512        1794.00      7817.68
   68.54        2976.25           2516        1831.00      7979.06
   68.57        2976.50           2520        1735.00      7560.36
   68.60        2976.75           2523        1734.00      7555.99
   68.63        2977.00           2527        1673.00      7289.95
   68.66        2977.25           2530        1699.00      7403.35
   68.69        2977.50           2534        1686.00      7346.65
   68.73        2977.75           2537        1672.00      7285.59
   68.76        2978.00           2541        1677.00      7307.40
   68.79        2978.25           2544        1684.00      7337.93
   68.82        2978.50           2548        1646.00      7172.19
   68.85        2978.75           2552        1598.00      6962.85
   68.88        2979.00           2555        1602.00      6980.30
   68.91        2979.25           2559        1647.00      7176.56
   68.94        2979.50           2562        1592.00      6936.68
   68.97        2979.75           2566        1573.00      6853.82
   69.00        2980.00           2569        1532.00      6675.01
   69.03        2980.25           2573        1523.00      6635.76
   69.06        2980.50           2577        1541.00      6714.26
   69.09        2980.75           2580        1528.00      6657.57
   69.12        2981.00           2584        1480.00      6448.23
   69.15        2981.25           2587        1480.00      6448.23
   69.18        2981.50           2591        1499.00      6531.09
   69.21        2981.75           2594        1456.00      6343.57
   69.25        2982.00           2598        1460.00      6361.01
   69.28        2982.25           2601        1497.00      6522.37
   69.31        2982.50           2605        1467.00      6391.54
   69.34        2982.75           2609        1448.00      6308.68
   69.37        2983.00           2612        1490.00      6491.84
   69.40        2983.25           2616        1481.00      6452.59
   69.43        2983.50           2619        1437.00      6260.71
   69.46        2983.75           2623        1427.00      6217.09
   69.49        2984.00           2626        1431.00      6234.54
HS scan finished at 01:09:43
end
************************************************************
  HS Scan of (1) Internal mercury lamp
************************************************************
Integration time is 0.2294 seconds per sample
dh180519Reading 51.44 .94 3.39pr1000
************************************************************
Dead Time -------------------------  3.4E-08 
Number of Cycles Used -------------  4 
Starting Wavelength (Angstroms) ---  2950 
Final Wavelength (Angstoms) -------  2984 
Wavelength Increment (Angstroms) --  .25 
Filter Wheel #1 Position ---------- (1) Ground quartz diffuser (ND=2.32)
Filter Wheel #2 Position ---------- (1) Neutral Density 0.494



************************************************************
HS scan start time = 20:39:55
Dark Count =  1.9 


Time (GMT)  Wavelength (Ang)  Step Number  Raw Counts  Counts/Second

 1240.82        2950.00           2144        1404.00      6113.30
 1241.02        2950.25           2147        1451.00      6318.27
 1241.05        2950.50           2151        1450.00      6313.91
 1241.08        2950.75           2155        1446.00      6296.47
 1241.11        2951.00           2158        1447.00      6300.83
 1241.14        2951.25           2162        1456.00      6340.08
 1241.17        2951.50           2165        1442.00      6279.02
 1241.20        2951.75           2169        1471.00      6405.49
 1241.23        2952.00           2172        1508.00      6566.85
 1241.26        2952.25           2176        1462.00      6366.24
 1241.29        2952.50           2179        1503.00      6545.05
 1241.32        2952.75           2183        1481.00      6449.10
 1241.35        2953.00           2186        1461.00      6361.88
 1241.38        2953.25           2190        1489.00      6483.99
 1241.41        2953.50           2193        1474.00      6418.58
 1241.45        2953.75           2197        1487.00      6475.27
 1241.48        2954.00           2200        1525.00      6640.99
 1241.51        2954.25           2204        1542.00      6715.13
 1241.54        2954.50           2208        1567.00      6824.16
 1241.57        2954.75           2211        1534.00      6680.24
 1241.60        2955.00           2215        1514.00      6593.02
 1241.63        2955.25           2218        1530.00      6662.80
 1241.66        2955.50           2222        1560.00      6793.64
 1241.69        2955.75           2225        1589.00      6920.11
 1241.72        2956.00           2229        1605.00      6989.89
 1241.75        2956.25           2232        1570.00      6837.25
 1241.78        2956.50           2236        1593.00      6937.56
 1241.81        2956.75           2239        1622.00      7064.03
 1241.84        2957.00           2243        1623.00      7068.39
 1241.87        2957.25           2246        1630.00      7098.92
 1241.90        2957.50           2250        1681.00      7321.35
 1241.93        2957.75           2254        1670.00      7273.38
 1241.97        2958.00           2257        1714.00      7465.28
 1242.00        2958.25           2261        1689.00      7356.24
 1242.03        2958.50           2264        1736.00      7561.23
 1242.06        2958.75           2268        1707.00      7434.75
 1242.09        2959.00           2271        1758.00      7657.18
 1242.12        2959.25           2275        1801.00      7844.73
 1242.15        2959.50           2278        1831.00      7975.57
 1242.18        2959.75           2282        1847.00      8045.36
 1242.21        2960.00           2285        1888.00      8224.18
 1242.24        2960.25           2289        1901.00      8280.88
 1242.27        2960.50           2293        1940.00      8450.99
 1242.30        2960.75           2296        1999.00      8708.33
 1242.33        2961.00           2300        2109.00      9188.14
 1242.36        2961.25           2303        2568.00     11190.40
 1242.39        2961.50           2307        7098.00     30965.89
 1242.42        2961.75           2310       17384.00     75967.99
 1242.45        2962.00           2314       36141.00    158388.20
 1242.49        2962.25           2317       51975.00    228326.70
 1242.52        2962.50           2321       77144.00    340189.80
 1242.55        2962.75           2324       97950.00    433312.20
 1242.58        2963.00           2328      126780.00    563338.10
 1242.61        2963.25           2331      145501.00    648397.30
 1242.64        2963.50           2335      169960.00    760282.10
 1242.67        2963.75           2339      193430.00    868460.10
 1242.70        2964.00           2342      212959.00    959092.90
 1242.73        2964.25           2346      240944.00   1089968.00
 1242.76        2964.50           2349      262105.00   1189724.00
 1242.79        2964.75           2353      289498.00   1319893.00
 1242.82        2965.00           2356      307195.00   1404619.00
 1242.85        2965.25           2360      329618.00   1512695.00
 1242.88        2965.50           2363      346833.00   1596226.00
 1242.91        2965.75           2367      371509.00   1716818.00
 1242.94        2966.00           2370      388550.00   1800696.00
 1242.97        2966.25           2374      411723.00   1915556.00
 1243.01        2966.50           2378      429534.00   2004474.00
 1243.04        2966.75           2381      433889.00   2026300.00
 1243.07        2967.00           2385      437926.00   2046563.00
 1243.10        2967.25           2388      438023.00   2047050.00
 1243.13        2967.50           2392      437414.00   2043991.00
 1243.16        2967.75           2395      438121.00   2047542.00
 1243.19        2968.00           2399      434424.00   2028983.00
 1243.22        2968.25           2402      424971.00   1981641.00
 1243.25        2968.50           2406      404133.00   1877833.00
 1243.28        2968.75           2409      388887.00   1802360.00
 1243.31        2969.00           2413      367587.00   1697583.00
 1243.34        2969.25           2417      344772.00   1586200.00
 1243.37        2969.50           2420      324386.00   1487405.00
 1243.40        2969.75           2424      294154.00   1342136.00
 1243.43        2970.00           2427      279491.00   1272204.00
 1243.46        2970.25           2431      253368.00   1148453.00
 1243.49        2970.50           2434      235012.00   1062127.00
 1243.53        2970.75           2438      208255.00    937210.10
 1243.56        2971.00           2441      188102.00    843831.30
 1243.59        2971.25           2445      160992.00    719158.90
 1243.62        2971.50           2449      131064.00    582758.70
 1243.65        2971.75           2452      108449.00    480529.50
 1243.68        2972.00           2456       81856.00    361227.60
 1243.71        2972.25           2459       62902.00    276786.60
 1243.74        2972.50           2463       40342.00    176911.40
 1243.77        2972.75           2466       24731.00    108196.30
 1243.80        2973.00           2470        8789.00     38354.69
 1243.83        2973.25           2473        3804.00     16583.46
 1243.86        2973.50           2477        2271.00      9894.79
 1243.89        2973.75           2481        2052.00      8939.51
 1243.92        2974.00           2484        1983.00      8638.54
 1243.95        2974.25           2488        1980.00      8625.46
 1243.99        2974.50           2491        1912.00      8328.86
 1244.03        2974.75           2495        1876.00      8171.84
 1244.06        2975.00           2498        1903.00      8289.61
 1244.09        2975.25           2502        1821.00      7931.96
 1244.12        2975.50           2505        1832.00      7979.93
 1244.15        2975.75           2509        1786.00      7779.30
 1244.18        2976.00           2512        1762.00      7674.63
 1244.21        2976.25           2516        1775.00      7731.33
 1244.24        2976.50           2520        1721.00      7495.81
 1244.27        2976.75           2523        1695.00      7382.41
 1244.30        2977.00           2527        1672.00      7282.10
 1244.34        2977.25           2530        1663.00      7242.85
 1244.37        2977.50           2534        1625.00      7077.12
 1244.40        2977.75           2537        1620.00      7055.31
 1244.43        2978.00           2541        1624.00      7072.76
 1244.46        2978.25           2544        1608.00      7002.98
 1244.49        2978.50           2548        1579.00      6876.50
 1244.52        2978.75           2552        1552.00      6758.75
 1244.55        2979.00           2555        1560.00      6793.64
 1244.58        2979.25           2559        1521.00      6623.55
 1244.61        2979.50           2562        1495.00      6510.16
 1244.64        2979.75           2566        1524.00      6636.63
 1244.67        2980.00           2569        1486.00      6470.91
 1244.70        2980.25           2573        1484.00      6462.19
 1244.73        2980.50           2577        1468.00      6392.41
 1244.76        2980.75           2580        1446.00      6296.47
 1244.79        2981.00           2584        1480.00      6444.74
 1244.82        2981.25           2587        1418.00      6174.36
 1244.86        2981.50           2591        1438.00      6261.58
 1244.89        2981.75           2594        1428.00      6217.97
 1244.92        2982.00           2598        1410.00      6139.47
 1244.95        2982.25           2601        1449.00      6309.55
 1244.98        2982.50           2605        1420.00      6183.08
 1245.01        2982.75           2609        1407.00      6126.39
 1245.04        2983.00           2612        1405.00      6117.66
 1245.07        2983.25           2616        1411.00      6143.83
 1245.10        2983.50           2619        1412.00      6148.19
 1245.13        2983.75           2623        1370.00      5965.03
 1245.16        2984.00           2626        1395.00      6074.05
HS scan finished at 20:45:23
end
