************************************************************
  HS Scan of (1) Internal mercury lamp
************************************************************
Integration time is 0.2294 seconds per sample
dh170519Reading 51.44 .94 3.05pr1000
************************************************************
Dead Time -------------------------  3.4E-08 
Number of Cycles Used -------------  4 
Starting Wavelength (Angstroms) ---  2950 
Final Wavelength (Angstoms) -------  2984 
Wavelength Increment (Angstroms) --  .25 
Filter Wheel #1 Position ---------- (1) Ground quartz diffuser (ND=2.32)
Filter Wheel #2 Position ---------- (1) Neutral Density 0.494



************************************************************
HS scan start time = 01:27:28
Dark Count =  .9 


Time (GMT)  Wavelength (Ang)  Step Number  Raw Counts  Counts/Second

   88.37        2950.00           2144        1555.00      6776.19
   88.56        2950.25           2147        1560.00      6798.00
   88.60        2950.50           2151        1492.00      6501.44
   88.63        2950.75           2155        1519.00      6619.19
   88.66        2951.00           2158        1523.00      6636.63
   88.69        2951.25           2162        1527.00      6654.08
   88.72        2951.50           2165        1522.00      6632.27
   88.75        2951.75           2169        1554.00      6771.83
   88.78        2952.00           2172        1530.00      6667.16
   88.81        2952.25           2176        1525.00      6645.36
   88.84        2952.50           2179        1568.00      6832.89
   88.87        2952.75           2183        1597.00      6959.36
   88.90        2953.00           2186        1553.00      6767.47
   88.93        2953.25           2190        1592.00      6937.56
   88.96        2953.50           2193        1595.00      6950.64
   88.99        2953.75           2197        1595.00      6950.64
   89.02        2954.00           2200        1640.00      7146.90
   89.05        2954.25           2204        1626.00      7085.84
   89.08        2954.50           2208        1609.00      7011.70
   89.12        2954.75           2211        1643.00      7159.98
   89.15        2955.00           2215        1634.00      7120.73
   89.18        2955.25           2218        1678.00      7312.63
   89.21        2955.50           2222        1651.00      7194.87
   89.24        2955.75           2225        1675.00      7299.54
   89.27        2956.00           2229        1660.00      7234.12
   89.30        2956.25           2232        1708.00      7443.47
   89.33        2956.50           2236        1713.00      7465.28
   89.36        2956.75           2239        1698.00      7399.86
   89.39        2957.00           2243        1764.00      7687.71
   89.42        2957.25           2246        1699.00      7404.22
   89.45        2957.50           2250        1734.00      7556.87
   89.48        2957.75           2254        1792.00      7809.83
   89.51        2958.00           2257        1817.00      7918.87
   89.54        2958.25           2261        1800.00      7844.73
   89.57        2958.50           2264        1851.00      8067.16
   89.60        2958.75           2268        1837.00      8006.10
   89.64        2959.00           2271        1876.00      8176.20
   89.67        2959.25           2275        1872.00      8158.76
   89.70        2959.50           2278        1955.00      8520.78
   89.73        2959.75           2282        1971.00      8590.56
   89.76        2960.00           2285        2017.00      8791.21
   89.79        2960.25           2289        2057.00      8965.68
   89.82        2960.50           2293        2056.00      8961.32
   89.85        2960.75           2296        2180.00      9502.20
   89.88        2961.00           2300        2710.00     11814.25
   89.91        2961.25           2303        5426.00     23668.12
   89.94        2961.50           2307       16724.00     73080.66
   89.97        2961.75           2310       31299.00    137071.90
   90.00        2962.00           2314       55429.00    243631.90
   90.03        2962.25           2317       74927.00    330306.50
   90.06        2962.50           2321       98625.00    436347.80
   90.11        2962.75           2324      118274.00    524859.00
   90.14        2963.00           2328      146432.00    652644.80
   90.17        2963.25           2331      167806.00    750398.80
   90.20        2963.50           2335      195194.00    876628.10
   90.23        2963.75           2339      221029.00    996716.40
   90.26        2964.00           2342      239683.00   1084050.00
   90.29        2964.25           2346      266956.00   1212695.00
   90.32        2964.50           2349      286730.00   1306691.00
   90.35        2964.75           2353      313998.00   1437328.00
   90.38        2965.00           2356      332793.00   1528070.00
   90.42        2965.25           2360      352883.00   1625704.00
   90.45        2965.50           2363      370507.00   1711906.00
   90.48        2965.75           2367      396805.00   1841512.00
   90.51        2966.00           2370      414447.00   1929124.00
   90.54        2966.25           2374      435538.00   2034578.00
   90.57        2966.50           2378      445321.00   2083760.00
   90.60        2966.75           2381      443810.00   2076153.00
   90.63        2967.00           2385      448386.00   2099204.00
   90.66        2967.25           2388      448698.00   2100777.00
   90.69        2967.50           2392      448699.00   2100782.00
   90.72        2967.75           2395      445996.00   2087160.00
   90.75        2968.00           2399      435306.00   2033414.00
   90.78        2968.25           2402      419931.00   1956468.00
   90.81        2968.50           2406      395763.00   1836354.00
   90.84        2968.75           2409      377588.00   1746688.00
   90.87        2969.00           2413      355718.00   1639535.00
   90.90        2969.25           2417      332004.00   1524249.00
   90.94        2969.50           2420      313329.00   1434109.00
   90.97        2969.75           2424      285026.00   1298567.00
   91.00        2970.00           2427      261557.00   1187137.00
   91.03        2970.25           2431      234624.00   1060313.00
   91.06        2970.50           2434      214256.00    965137.10
   91.09        2970.75           2438      185965.00    833969.40
   91.12        2971.00           2441      164650.00    735923.40
   91.15        2971.25           2445      137942.00    613997.50
   91.18        2971.50           2449      111450.00    494058.60
   91.21        2971.75           2452       91149.00    402811.80
   91.24        2972.00           2456       64491.00    283851.40
   91.27        2972.25           2459       44323.00    194490.70
   91.30        2972.50           2463       21690.00     94852.49
   91.33        2972.75           2466       10586.00     46215.11
   91.36        2973.00           2470        4117.00     17953.85
   91.39        2973.25           2473        2509.00     10937.37
   91.42        2973.50           2477        2184.00      9519.65
   91.45        2973.75           2481        2116.00      9223.03
   91.49        2974.00           2484        2070.00      9022.39
   91.52        2974.25           2488        2031.00      8852.27
   91.55        2974.50           2491        2020.00      8804.29
   91.58        2974.75           2495        1935.00      8433.54
   91.61        2975.00           2498        1943.00      8468.44
   91.64        2975.25           2502        1903.00      8293.97
   91.67        2975.50           2505        1828.00      7966.85
   91.70        2975.75           2509        1845.00      8041.00
   91.73        2976.00           2512        1844.00      8036.63
   91.76        2976.25           2516        1803.00      7857.81
   91.79        2976.50           2520        1777.00      7744.41
   91.82        2976.75           2523        1721.00      7500.17
   91.85        2977.00           2527        1764.00      7687.71
   91.88        2977.25           2530        1717.00      7482.72
   91.91        2977.50           2534        1723.00      7508.89
   91.94        2977.75           2537        1678.00      7312.63
   91.97        2978.00           2541        1691.00      7369.33
   92.01        2978.25           2544        1684.00      7338.80
   92.04        2978.50           2548        1647.00      7177.43
   92.07        2978.75           2552        1595.00      6950.64
   92.10        2979.00           2555        1604.00      6989.89
   92.13        2979.25           2559        1587.00      6915.75
   92.16        2979.50           2562        1603.00      6985.53
   92.19        2979.75           2566        1611.00      7020.42
   92.22        2980.00           2569        1568.00      6832.89
   92.25        2980.25           2573        1605.00      6994.25
   92.28        2980.50           2577        1547.00      6741.30
   92.31        2980.75           2580        1562.00      6806.72
   92.34        2981.00           2584        1523.00      6636.63
   92.37        2981.25           2587        1542.00      6719.50
   92.40        2981.50           2591        1475.00      6427.30
   92.43        2981.75           2594        1525.00      6645.36
   92.46        2982.00           2598        1541.00      6715.13
   92.49        2982.25           2601        1486.00      6475.27
   92.53        2982.50           2605        1501.00      6540.69
   92.56        2982.75           2609        1497.00      6523.24
   92.59        2983.00           2612        1520.00      6623.55
   92.62        2983.25           2616        1488.00      6483.99
   92.65        2983.50           2619        1453.00      6331.35
   92.68        2983.75           2623        1499.00      6531.97
   92.71        2984.00           2626        1477.00      6436.02
HS scan finished at 01:32:56
end
************************************************************
  HS Scan of (1) Internal mercury lamp
************************************************************
Integration time is 0.2294 seconds per sample
dh170519Reading 51.44 .94 3.19pr1000
************************************************************
Dead Time -------------------------  3.4E-08 
Number of Cycles Used -------------  4 
Starting Wavelength (Angstroms) ---  2950 
Final Wavelength (Angstoms) -------  2984 
Wavelength Increment (Angstroms) --  .25 
Filter Wheel #1 Position ---------- (1) Ground quartz diffuser (ND=2.32)
Filter Wheel #2 Position ---------- (1) Neutral Density 0.494



************************************************************
HS scan start time = 20:39:56
Dark Count =  .8 


Time (GMT)  Wavelength (Ang)  Step Number  Raw Counts  Counts/Second

 1240.84        2950.00           2144        1360.00      5926.22
 1241.03        2950.25           2147        1348.00      5873.88
 1241.06        2950.50           2151        1366.00      5952.38
 1241.09        2950.75           2155        1373.00      5982.91
 1241.12        2951.00           2158        1384.00      6030.88
 1241.15        2951.25           2162        1367.00      5956.74
 1241.18        2951.50           2165        1357.00      5913.13
 1241.21        2951.75           2169        1397.00      6087.57
 1241.25        2952.00           2172        1416.00      6170.43
 1241.28        2952.25           2176        1413.00      6157.35
 1241.31        2952.50           2179        1400.00      6100.66
 1241.34        2952.75           2183        1383.00      6026.52
 1241.37        2953.00           2186        1375.00      5991.63
 1241.40        2953.25           2190        1416.00      6170.43
 1241.43        2953.50           2193        1426.00      6214.04
 1241.46        2953.75           2197        1416.00      6170.43
 1241.49        2954.00           2200        1438.00      6266.37
 1241.52        2954.25           2204        1435.00      6253.29
 1241.55        2954.50           2208        1458.00      6353.60
 1241.58        2954.75           2211        1445.00      6296.90
 1241.61        2955.00           2215        1484.00      6466.98
 1241.64        2955.25           2218        1489.00      6488.79
 1241.67        2955.50           2222        1506.00      6562.93
 1241.70        2955.75           2225        1505.00      6558.57
 1241.73        2956.00           2229        1513.00      6593.46
 1241.77        2956.25           2232        1503.00      6549.85
 1241.80        2956.50           2236        1498.00      6528.04
 1241.83        2956.75           2239        1529.00      6663.24
 1241.86        2957.00           2243        1575.00      6863.85
 1241.89        2957.25           2246        1571.00      6846.41
 1241.92        2957.50           2250        1589.00      6924.91
 1241.95        2957.75           2254        1598.00      6964.16
 1241.98        2958.00           2257        1600.00      6972.88
 1242.01        2958.25           2261        1650.00      7190.95
 1242.04        2958.50           2264        1624.00      7077.55
 1242.07        2958.75           2268        1639.00      7142.97
 1242.10        2959.00           2271        1670.00      7278.17
 1242.13        2959.25           2275        1704.00      7426.46
 1242.16        2959.50           2278        1668.00      7269.45
 1242.19        2959.75           2282        1724.00      7513.69
 1242.22        2960.00           2285        1757.00      7657.62
 1242.25        2960.25           2289        1768.00      7705.59
 1242.29        2960.50           2293        1803.00      7858.25
 1242.32        2960.75           2296        1860.00      8106.85
 1242.35        2961.00           2300        1951.00      8503.77
 1242.38        2961.25           2303        2196.00      9572.43
 1242.41        2961.50           2307        5095.00     22223.41
 1242.44        2961.75           2310       11782.00     51446.50
 1242.47        2962.00           2314       28192.00    123407.70
 1242.50        2962.25           2317       44508.00    195308.40
 1242.53        2962.50           2321       67940.00    299188.50
 1242.56        2962.75           2324       85798.00    378855.80
 1242.59        2963.00           2328      110131.00    488113.20
 1242.62        2963.25           2331      126746.00    563189.00
 1242.65        2963.50           2335      150825.00    672683.10
 1242.68        2963.75           2339      174063.00    779140.60
 1242.71        2964.00           2342      192956.00    866272.40
 1242.74        2964.25           2346      215154.00    969320.60
 1242.77        2964.50           2349      232891.00   1052191.00
 1242.81        2964.75           2353      258009.00   1170366.00
 1242.84        2965.00           2356      278315.00   1266615.00
 1242.87        2965.25           2360      301926.00   1379347.00
 1242.90        2965.50           2363      319470.00   1463688.00
 1242.93        2965.75           2367      339240.00   1559329.00
 1242.96        2966.00           2370      355171.00   1636866.00
 1242.99        2966.25           2374      376598.00   1741821.00
 1243.02        2966.50           2378      393183.00   1823592.00
 1243.05        2966.75           2381      397600.00   1845449.00
 1243.08        2967.00           2385      399731.00   1856006.00
 1243.11        2967.25           2388      400185.00   1858256.00
 1243.14        2967.50           2392      400044.00   1857557.00
 1243.17        2967.75           2395      399881.00   1856749.00
 1243.20        2968.00           2399      393288.00   1824111.00
 1243.23        2968.25           2402      381693.00   1766891.00
 1243.26        2968.50           2406      363610.00   1678110.00
 1243.29        2968.75           2409      348437.00   1604040.00
 1243.32        2969.00           2413      326068.00   1495536.00
 1243.36        2969.25           2417      303693.00   1387819.00
 1243.39        2969.50           2420      287975.00   1312631.00
 1243.42        2969.75           2424      264748.00   1202237.00
 1243.45        2970.00           2427      248001.00   1123164.00
 1243.48        2970.25           2431      222254.00   1002436.00
 1243.51        2970.50           2434      202432.00    910172.40
 1243.54        2970.75           2438      178152.00    797954.20
 1243.57        2971.00           2441      160917.00    718820.60
 1243.60        2971.25           2445      138227.00    615293.60
 1243.63        2971.50           2449      114041.00    505746.00
 1243.66        2971.75           2452       94789.00    419131.00
 1243.69        2972.00           2456       71744.00    316122.40
 1243.72        2972.25           2459       54802.00    240853.60
 1243.75        2972.50           2463       32931.00    144255.10
 1243.78        2972.75           2466       18274.00     79873.11
 1243.81        2973.00           2470        5824.00     25406.42
 1243.84        2973.25           2473        2941.00     12822.50
 1243.88        2973.50           2477        2064.00      8996.65
 1243.91        2973.75           2481        1919.00      8364.19
 1243.94        2974.00           2484        1859.00      8102.49
 1243.97        2974.25           2488        1842.00      8028.35
 1244.00        2974.50           2491        1800.00      7845.16
 1244.03        2974.75           2495        1771.00      7718.68
 1244.06        2975.00           2498        1753.00      7640.17
 1244.09        2975.25           2502        1719.00      7491.88
 1244.12        2975.50           2505        1745.00      7605.28
 1244.15        2975.75           2509        1637.00      7134.25
 1244.18        2976.00           2512        1678.00      7313.06
 1244.21        2976.25           2516        1632.00      7112.44
 1244.24        2976.50           2520        1615.00      7038.30
 1244.27        2976.75           2523        1600.00      6972.88
 1244.30        2977.00           2527        1552.00      6763.54
 1244.33        2977.25           2530        1576.00      6868.21
 1244.36        2977.50           2534        1529.00      6663.24
 1244.40        2977.75           2537        1520.00      6623.99
 1244.43        2978.00           2541        1524.00      6641.43
 1244.46        2978.25           2544        1523.00      6637.07
 1244.49        2978.50           2548        1504.00      6554.21
 1244.52        2978.75           2552        1451.00      6323.07
 1244.55        2979.00           2555        1499.00      6532.40
 1244.58        2979.25           2559        1504.00      6554.21
 1244.61        2979.50           2562        1416.00      6170.43
 1244.64        2979.75           2566        1468.00      6397.21
 1244.67        2980.00           2569        1398.00      6091.93
 1244.70        2980.25           2573        1381.00      6017.80
 1244.73        2980.50           2577        1391.00      6061.41
 1244.76        2980.75           2580        1402.00      6109.38
 1244.79        2981.00           2584        1402.00      6109.38
 1244.82        2981.25           2587        1376.00      5995.99
 1244.85        2981.50           2591        1349.00      5878.25
 1244.88        2981.75           2594        1354.00      5900.05
 1244.92        2982.00           2598        1340.00      5839.00
 1244.95        2982.25           2601        1337.00      5825.91
 1244.98        2982.50           2605        1326.00      5777.94
 1245.01        2982.75           2609        1338.00      5830.28
 1245.04        2983.00           2612        1325.00      5773.58
 1245.07        2983.25           2616        1334.00      5812.83
 1245.10        2983.50           2619        1321.00      5756.14
 1245.13        2983.75           2623        1319.00      5747.42
 1245.16        2984.00           2626        1312.00      5716.89
HS scan finished at 20:45:23
end
