************************************************************
  HS Scan of (1) Internal mercury lamp
************************************************************
Integration time is 0.2294 seconds per sample
dh130518Reading 51.44 .94 3.19pr1000
************************************************************
Dead Time -------------------------  3.4E-08 
Number of Cycles Used -------------  4 
Starting Wavelength (Angstroms) ---  2950 
Final Wavelength (Angstoms) -------  2984 
Wavelength Increment (Angstroms) --  .25 
Filter Wheel #1 Position ---------- (1) Ground quartz diffuser (ND=2.32)
Filter Wheel #2 Position ---------- (1) Neutral Density 0.494



************************************************************
HS scan start time = 01:08:55
Dark Count =  1.1 


Time (GMT)  Wavelength (Ang)  Step Number  Raw Counts  Counts/Second

   69.81        2950.00           2144          91.00       391.90
   70.01        2950.25           2147          90.00       387.54
   70.04        2950.50           2151          80.00       343.94
   70.07        2950.75           2155          92.00       396.26
   70.10        2951.00           2158          86.00       370.10
   70.13        2951.25           2162          90.00       387.54
   70.16        2951.50           2165          88.00       378.82
   70.19        2951.75           2169          75.00       322.15
   70.22        2952.00           2172          89.00       383.18
   70.25        2952.25           2176          90.00       387.54
   70.28        2952.50           2179          92.00       396.26
   70.31        2952.75           2183         116.00       500.88
   70.34        2953.00           2186          91.00       391.90
   70.38        2953.25           2190         105.00       452.93
   70.41        2953.50           2193          93.00       400.62
   70.44        2953.75           2197          93.00       400.62
   70.47        2954.00           2200          94.00       404.98
   70.50        2954.25           2204          95.00       409.33
   70.53        2954.50           2208          91.00       391.90
   70.56        2954.75           2211          94.00       404.98
   70.59        2955.00           2215         109.00       470.37
   70.62        2955.25           2218         110.00       474.72
   70.65        2955.50           2222          89.00       383.18
   70.68        2955.75           2225          97.00       418.05
   70.71        2956.00           2229         118.00       509.60
   70.74        2956.25           2232         102.00       439.85
   70.77        2956.50           2236         103.00       444.21
   70.80        2956.75           2239         105.00       452.93
   70.83        2957.00           2243         144.00       622.94
   70.86        2957.25           2246         119.00       513.96
   70.90        2957.50           2250         101.00       435.49
   70.93        2957.75           2254         103.00       444.21
   70.96        2958.00           2257         114.00       492.16
   70.99        2958.25           2261         126.00       544.47
   71.02        2958.50           2264         105.00       452.93
   71.05        2958.75           2268         130.00       561.91
   71.08        2959.00           2271         130.00       561.91
   71.11        2959.25           2275         159.00       688.33
   71.14        2959.50           2278         138.00       596.79
   71.17        2959.75           2282         121.00       522.68
   71.20        2960.00           2285         111.00       479.08
   71.23        2960.25           2289         139.00       601.15
   71.26        2960.50           2293         125.00       540.11
   71.29        2960.75           2296         146.00       631.66
   71.32        2961.00           2300         186.00       806.04
   71.35        2961.25           2303         449.00      1952.61
   71.38        2961.50           2307        1452.00      6326.12
   71.42        2961.75           2310        2612.00     11385.84
   71.45        2962.00           2314        4318.00     18830.27
   71.48        2962.25           2317        5737.00     25025.21
   71.51        2962.50           2321        7551.00     32948.40
   71.54        2962.75           2324        8973.00     39162.40
   71.57        2963.00           2328       10854.00     47386.23
   71.60        2963.25           2331       12276.00     53606.34
   71.63        2963.50           2335       14113.00     61645.64
   71.66        2963.75           2339       16058.00     70162.38
   71.69        2964.00           2342       17636.00     77075.75
   71.72        2964.25           2346       19670.00     85991.68
   71.75        2964.50           2349       21080.00     92175.52
   71.78        2964.75           2353       22870.00    100029.70
   71.81        2965.00           2356       24343.00    106496.10
   71.84        2965.25           2360       26180.00    114564.40
   71.87        2965.50           2363       27665.00    121089.90
   71.90        2965.75           2367       29267.00    128132.90
   71.93        2966.00           2370       30371.00    132988.40
   71.97        2966.25           2374       31884.00    139645.30
   72.00        2966.50           2378       32348.00    141687.50
   72.03        2966.75           2381       32613.00    142853.90
   72.06        2967.00           2385       32743.00    143426.10
   72.09        2967.25           2388       32623.00    142897.90
   72.12        2967.50           2392       32554.00    142594.20
   72.15        2967.75           2395       32389.00    141867.90
   72.18        2968.00           2399       31673.00    138716.80
   72.21        2968.25           2402       30115.00    131862.30
   72.24        2968.50           2406       28315.00    123947.10
   72.27        2968.75           2409       26951.00    117952.00
   72.30        2969.00           2413       25334.00    110848.10
   72.33        2969.25           2417       23604.00    103251.60
   72.36        2969.50           2420       22038.00     96378.51
   72.39        2969.75           2424       19960.00     87263.32
   72.42        2970.00           2427       18750.00     81958.24
   72.45        2970.25           2431       16915.00     73916.56
   72.49        2970.50           2434       15419.00     67363.79
   72.52        2970.75           2438       13370.00     58393.50
   72.55        2971.00           2441       11716.00     51156.47
   72.58        2971.25           2445        9656.00     42147.98
   72.61        2971.50           2449        7616.00     33232.38
   72.64        2971.75           2452        6254.00     27282.93
   72.67        2972.00           2456        4339.00     18921.94
   72.70        2972.25           2459        3028.00     13200.78
   72.73        2972.50           2463        1597.00      6958.49
   72.76        2972.75           2466         780.00      3395.77
   72.79        2973.00           2470         268.00      1163.52
   72.82        2973.25           2473         168.00       727.57
   72.85        2973.50           2477         168.00       727.57
   72.88        2973.75           2481         167.00       723.21
   72.91        2974.00           2484         131.00       566.27
   72.94        2974.25           2488         136.00       588.07
   72.97        2974.50           2491         136.00       588.07
   73.01        2974.75           2495         125.00       540.11
   73.04        2975.00           2498         122.00       527.04
   73.07        2975.25           2502         133.00       574.99
   73.10        2975.50           2505         137.00       592.43
   73.13        2975.75           2509         111.00       479.08
   73.16        2976.00           2512         107.00       461.65
   73.19        2976.25           2516         130.00       561.91
   73.22        2976.50           2520         133.00       574.99
   73.25        2976.75           2523         108.00       466.01
   73.28        2977.00           2527         121.00       522.68
   73.31        2977.25           2530         105.00       452.93
   73.34        2977.50           2534         102.00       439.85
   73.37        2977.75           2537         140.00       605.51
   73.40        2978.00           2541         102.00       439.85
   73.43        2978.25           2544         104.00       448.57
   73.46        2978.50           2548         126.00       544.47
   73.49        2978.75           2552          94.00       404.98
   73.53        2979.00           2555          94.00       404.98
   73.56        2979.25           2559          96.00       413.69
   73.59        2979.50           2562          95.00       409.33
   73.62        2979.75           2566          95.00       409.33
   73.65        2980.00           2569         108.00       466.01
   73.68        2980.25           2573          92.00       396.26
   73.71        2980.50           2577         111.00       479.08
   73.74        2980.75           2580          93.00       400.62
   73.77        2981.00           2584          93.00       400.62
   73.80        2981.25           2587          91.00       391.90
   73.83        2981.50           2591          89.00       383.18
   73.87        2981.75           2594          91.00       391.90
   73.90        2982.00           2598          92.00       396.26
   73.93        2982.25           2601          86.00       370.10
   73.96        2982.50           2605         112.00       483.44
   73.99        2982.75           2609          87.00       374.46
   74.02        2983.00           2612          89.00       383.18
   74.05        2983.25           2616         106.00       457.29
   74.08        2983.50           2619          81.00       348.30
   74.11        2983.75           2623          89.00       383.18
   74.14        2984.00           2626          92.00       396.26
HS scan finished at 01:14:22
end
************************************************************
  HS Scan of (1) Internal mercury lamp
************************************************************
Integration time is 0.2294 seconds per sample
dh130518Reading 51.44 .94 3.52pr1000
************************************************************
Dead Time -------------------------  3.4E-08 
Number of Cycles Used -------------  4 
Starting Wavelength (Angstroms) ---  2950 
Final Wavelength (Angstoms) -------  2984 
Wavelength Increment (Angstroms) --  .25 
Filter Wheel #1 Position ---------- (1) Ground quartz diffuser (ND=2.32)
Filter Wheel #2 Position ---------- (1) Neutral Density 0.494



************************************************************
HS scan start time = 20:37:24
Dark Count =  3.3 


Time (GMT)  Wavelength (Ang)  Step Number  Raw Counts  Counts/Second

 1238.30        2950.00           2144          85.00       356.15
 1238.49        2950.25           2147          82.00       343.07
 1238.52        2950.50           2151          73.00       303.84
 1238.55        2950.75           2155          86.00       360.51
 1238.58        2951.00           2158          73.00       303.84
 1238.61        2951.25           2162          80.00       334.35
 1238.64        2951.50           2165          86.00       360.51
 1238.67        2951.75           2169          83.00       347.43
 1238.70        2952.00           2172          71.00       295.12
 1238.74        2952.25           2176          85.00       356.15
 1238.77        2952.50           2179          93.00       391.03
 1238.80        2952.75           2183          88.00       369.23
 1238.83        2953.00           2186          91.00       382.31
 1238.86        2953.25           2190          84.00       351.79
 1238.89        2953.50           2193          78.00       325.64
 1238.92        2953.75           2197          79.00       329.99
 1238.95        2954.00           2200          84.00       351.79
 1238.98        2954.25           2204          92.00       386.67
 1239.01        2954.50           2208          79.00       329.99
 1239.04        2954.75           2211          87.00       364.87
 1239.07        2955.00           2215          79.00       329.99
 1239.10        2955.25           2218          92.00       386.67
 1239.13        2955.50           2222         100.00       421.54
 1239.16        2955.75           2225          99.00       417.18
 1239.19        2956.00           2229          91.00       382.31
 1239.22        2956.25           2232         109.00       460.77
 1239.26        2956.50           2236          94.00       395.38
 1239.29        2956.75           2239          93.00       391.03
 1239.32        2957.00           2243         103.00       434.62
 1239.35        2957.25           2246         107.00       452.06
 1239.38        2957.50           2250         133.00       565.40
 1239.41        2957.75           2254         107.00       452.06
 1239.44        2958.00           2257         100.00       421.54
 1239.47        2958.25           2261         101.00       425.90
 1239.50        2958.50           2264          97.00       408.46
 1239.53        2958.75           2268          98.00       412.82
 1239.56        2959.00           2271          98.00       412.82
 1239.59        2959.25           2275         110.00       465.13
 1239.62        2959.50           2278         110.00       465.13
 1239.65        2959.75           2282         105.00       443.34
 1239.68        2960.00           2285         129.00       547.96
 1239.71        2960.25           2289         108.00       456.42
 1239.74        2960.50           2293         156.00       665.66
 1239.78        2960.75           2296         135.00       574.12
 1239.81        2961.00           2300         165.00       704.90
 1239.84        2961.25           2303         380.00      1642.20
 1239.87        2961.50           2307        1314.00      5714.71
 1239.90        2961.75           2310        2343.00     10202.75
 1239.93        2962.00           2314        3878.00     16900.29
 1239.96        2962.25           2317        5012.00     21850.14
 1239.99        2962.50           2321        6756.00     29465.86
 1240.02        2962.75           2324        8058.00     35154.02
 1240.05        2963.00           2328        9908.00     43240.08
 1240.08        2963.25           2331       11393.00     49733.99
 1240.11        2963.50           2335       13227.00     57758.05
 1240.15        2963.75           2339       14777.00     64542.97
 1240.19        2964.00           2342       16104.00     70354.23
 1240.22        2964.25           2346       17930.00     78354.50
 1240.25        2964.50           2349       19269.00     84223.84
 1240.28        2964.75           2353       20964.00     91657.03
 1240.31        2965.00           2356       22212.00     97132.37
 1240.34        2965.25           2360       24003.00    104993.60
 1240.37        2965.50           2363       24776.00    108387.80
 1240.40        2965.75           2367       26522.00    116057.30
 1240.43        2966.00           2370       27788.00    121620.90
 1240.46        2966.25           2374       29105.00    127410.80
 1240.49        2966.50           2378       29905.00    130929.00
 1240.52        2966.75           2381       30239.00    132398.10
 1240.56        2967.00           2385       30239.00    132398.10
 1240.59        2967.25           2388       30079.00    131694.30
 1240.62        2967.50           2392       30030.00    131478.80
 1240.65        2967.75           2395       29845.00    130665.10
 1240.68        2968.00           2399       29179.00    127736.20
 1240.71        2968.25           2402       27792.00    121638.50
 1240.74        2968.50           2406       26175.00    114532.80
 1240.77        2968.75           2409       25039.00    109542.80
 1240.80        2969.00           2413       23436.00    102504.40
 1240.83        2969.25           2417       21962.00     96035.38
 1240.86        2969.50           2420       20603.00     90073.61
 1240.89        2969.75           2424       18576.00     81185.86
 1240.92        2970.00           2427       17361.00     75861.06
 1240.95        2970.25           2431       15473.00     67590.63
 1240.98        2970.50           2434       14172.00     61894.29
 1241.01        2970.75           2438       12253.00     53496.08
 1241.04        2971.00           2441       10731.00     46838.71
 1241.08        2971.25           2445        8916.00     38903.65
 1241.11        2971.50           2449        7242.00     31588.84
 1241.14        2971.75           2452        5833.00     25434.80
 1241.17        2972.00           2456        4079.00     17777.53
 1241.20        2972.25           2459        2854.00     12432.02
 1241.23        2972.50           2463        1487.00      6469.16
 1241.26        2972.75           2466         774.00      3360.02
 1241.29        2973.00           2470         246.00      1058.02
 1241.32        2973.25           2473         164.00       700.54
 1241.35        2973.50           2477         140.00       595.91
 1241.38        2973.75           2481         139.00       591.56
 1241.41        2974.00           2484         125.00       530.52
 1241.44        2974.25           2488         146.00       622.07
 1241.47        2974.50           2491         103.00       434.62
 1241.50        2974.75           2495         128.00       543.60
 1241.53        2975.00           2498         160.00       683.10
 1241.56        2975.25           2502         114.00       482.57
 1241.60        2975.50           2505         127.00       539.24
 1241.63        2975.75           2509         143.00       608.99
 1241.66        2976.00           2512         105.00       443.34
 1241.69        2976.25           2516          92.00       386.67
 1241.72        2976.50           2520         104.00       438.98
 1241.75        2976.75           2523         107.00       452.06
 1241.78        2977.00           2527         104.00       438.98
 1241.81        2977.25           2530          88.00       369.23
 1241.84        2977.50           2534          91.00       382.31
 1241.87        2977.75           2537          98.00       412.82
 1241.90        2978.00           2541          98.00       412.82
 1241.93        2978.25           2544          89.00       373.59
 1241.96        2978.50           2548          97.00       408.46
 1241.99        2978.75           2552          92.00       386.67
 1242.02        2979.00           2555          91.00       382.31
 1242.05        2979.25           2559          90.00       377.95
 1242.08        2979.50           2562          97.00       408.46
 1242.12        2979.75           2566          92.00       386.67
 1242.15        2980.00           2569          75.00       312.56
 1242.18        2980.25           2573          93.00       391.03
 1242.21        2980.50           2577          86.00       360.51
 1242.24        2980.75           2580          85.00       356.15
 1242.27        2981.00           2584          96.00       404.10
 1242.31        2981.25           2587          92.00       386.67
 1242.34        2981.50           2591          82.00       343.07
 1242.37        2981.75           2594          85.00       356.15
 1242.40        2982.00           2598          81.00       338.71
 1242.43        2982.25           2601          87.00       364.87
 1242.46        2982.50           2605          82.00       343.07
 1242.49        2982.75           2609          76.00       316.92
 1242.52        2983.00           2612          76.00       316.92
 1242.55        2983.25           2616          88.00       369.23
 1242.58        2983.50           2619          83.00       347.43
 1242.61        2983.75           2623          80.00       334.35
 1242.64        2984.00           2626          76.00       316.92
HS scan finished at 20:42:52
end
