************************************************************
  HS Scan of (1) Internal mercury lamp
************************************************************
Integration time is 0.2294 seconds per sample
dh150519Reading 51.44 .94 3pr1000
************************************************************
Dead Time -------------------------  3.4E-08 
Number of Cycles Used -------------  4 
Starting Wavelength (Angstroms) ---  2950 
Final Wavelength (Angstoms) -------  2984 
Wavelength Increment (Angstroms) --  .25 
Filter Wheel #1 Position ---------- (1) Ground quartz diffuser (ND=2.32)
Filter Wheel #2 Position ---------- (1) Neutral Density 0.494



************************************************************
HS scan start time = 01:12:22
Dark Count =  .9 


Time (GMT)  Wavelength (Ang)  Step Number  Raw Counts  Counts/Second

   73.26        2950.00           2144        1541.00      6715.13
   73.45        2950.25           2147        1547.00      6741.30
   73.48        2950.50           2151        1540.00      6710.77
   73.51        2950.75           2155        1600.00      6972.45
   73.54        2951.00           2158        1591.00      6933.20
   73.57        2951.25           2162        1594.00      6946.28
   73.60        2951.50           2165        1598.00      6963.72
   73.63        2951.75           2169        1602.00      6981.17
   73.67        2952.00           2172        1584.00      6902.67
   73.70        2952.25           2176        1572.00      6850.33
   73.73        2952.50           2179        1593.00      6941.92
   73.76        2952.75           2183        1629.00      7098.92
   73.79        2953.00           2186        1659.00      7229.76
   73.82        2953.25           2190        1628.00      7094.56
   73.85        2953.50           2193        1611.00      7020.42
   73.88        2953.75           2197        1668.00      7269.01
   73.91        2954.00           2200        1672.00      7286.46
   73.94        2954.25           2204        1661.00      7238.49
   73.97        2954.50           2208        1670.00      7277.74
   74.00        2954.75           2211        1714.00      7469.64
   74.03        2955.00           2215        1690.00      7364.97
   74.06        2955.25           2218        1723.00      7508.89
   74.09        2955.50           2222        1711.00      7456.55
   74.12        2955.75           2225        1703.00      7421.66
   74.15        2956.00           2229        1682.00      7330.07
   74.19        2956.25           2232        1717.00      7482.72
   74.22        2956.50           2236        1749.00      7622.29
   74.25        2956.75           2239        1731.00      7543.78
   74.28        2957.00           2243        1713.00      7465.28
   74.31        2957.25           2246        1766.00      7696.43
   74.34        2957.50           2250        1789.00      7796.75
   74.37        2957.75           2254        1795.00      7822.92
   74.40        2958.00           2257        1876.00      8176.20
   74.43        2958.25           2261        1839.00      8014.83
   74.46        2958.50           2264        1888.00      8228.54
   74.49        2958.75           2268        1903.00      8293.97
   74.52        2959.00           2271        1953.00      8512.05
   74.55        2959.25           2275        1955.00      8520.78
   74.58        2959.50           2278        1964.00      8560.03
   74.61        2959.75           2282        1965.00      8564.39
   74.64        2960.00           2285        2020.00      8804.29
   74.67        2960.25           2289        2048.00      8926.42
   74.71        2960.50           2293        2096.00      9135.79
   74.74        2960.75           2296        2148.00      9362.62
   74.77        2961.00           2300        2382.00     10383.35
   74.80        2961.25           2303        3411.00     14872.82
   74.83        2961.50           2307       10771.00     47024.12
   74.86        2961.75           2310       22859.00     99982.29
   74.89        2962.00           2314       43705.00    191761.00
   74.92        2962.25           2317       61589.00    270959.50
   74.95        2962.50           2321       87899.00    388256.80
   74.98        2962.75           2324      109752.00    486404.70
   75.01        2963.00           2328      138880.00    618262.30
   75.04        2963.25           2331      160195.00    715514.40
   75.07        2963.50           2335      185992.00    834094.00
   75.10        2963.75           2339      209835.00    944561.10
   75.13        2964.00           2342      231029.00   1043468.00
   75.16        2964.25           2346      258837.00   1174278.00
   75.19        2964.50           2349      277674.00   1263567.00
   75.23        2964.75           2353      304536.00   1391862.00
   75.26        2965.00           2356      323538.00   1483315.00
   75.29        2965.25           2360      346419.00   1594217.00
   75.32        2965.50           2363      363459.00   1677371.00
   75.35        2965.75           2367      389255.00   1804182.00
   75.38        2966.00           2370      409611.00   1905054.00
   75.41        2966.25           2374      432687.00   2020277.00
   75.44        2966.50           2378      447171.00   2093080.00
   75.47        2966.75           2381      451146.00   2113125.00
   75.50        2967.00           2385      452495.00   2119935.00
   75.53        2967.25           2388      453360.00   2124303.00
   75.56        2967.50           2392      453239.00   2123692.00
   75.59        2967.75           2395      452006.00   2117466.00
   75.62        2968.00           2399      446284.00   2088611.00
   75.65        2968.25           2402      433481.00   2024259.00
   75.68        2968.50           2406      411156.00   1912739.00
   75.71        2968.75           2409      393004.00   1822706.00
   75.74        2969.00           2413      370128.00   1710047.00
   75.78        2969.25           2417      348380.00   1603762.00
   75.81        2969.50           2420      327890.00   1504343.00
   75.84        2969.75           2424      299816.00   1369236.00
   75.87        2970.00           2427      278295.00   1266520.00
   75.90        2970.25           2431      253150.00   1147429.00
   75.93        2970.50           2434      233424.00   1054688.00
   75.96        2970.75           2438      205860.00    926085.90
   75.99        2971.00           2441      184207.00    825857.60
   76.02        2971.25           2445      155121.00    692304.60
   76.05        2971.50           2449      124453.00    552804.50
   76.08        2971.75           2452      103266.00    457205.40
   76.11        2972.00           2456       77052.00    339783.90
   76.14        2972.25           2459       57055.00    250840.40
   76.17        2972.50           2463       31777.00    139175.30
   76.20        2972.75           2466       16231.00     70921.03
   76.23        2973.00           2470        5662.00     24698.59
   76.26        2973.25           2473        3081.00     13432.90
   76.30        2973.50           2477        2262.00      9859.89
   76.33        2973.75           2481        2165.00      9436.77
   76.36        2974.00           2484        2162.00      9423.68
   76.39        2974.25           2488        2066.00      9004.94
   76.42        2974.50           2491        2074.00      9039.83
   76.45        2974.75           2495        1981.00      8634.18
   76.48        2975.00           2498        2041.00      8895.89
   76.51        2975.25           2502        1969.00      8581.84
   76.54        2975.50           2505        1926.00      8394.29
   76.57        2975.75           2509        1885.00      8215.46
   76.60        2976.00           2512        1835.00      7997.38
   76.63        2976.25           2516        1821.00      7936.32
   76.66        2976.50           2520        1825.00      7953.76
   76.69        2976.75           2523        1826.00      7958.13
   76.72        2977.00           2527        1816.00      7914.51
   76.75        2977.25           2530        1741.00      7587.40
   76.78        2977.50           2534        1755.00      7648.46
   76.82        2977.75           2537        1735.00      7561.23
   76.85        2978.00           2541        1720.00      7495.81
   76.88        2978.25           2544        1698.00      7399.86
   76.91        2978.50           2548        1661.00      7238.49
   76.94        2978.75           2552        1675.00      7299.54
   76.97        2979.00           2555        1649.00      7186.15
   77.00        2979.25           2559        1660.00      7234.12
   77.03        2979.50           2562        1665.00      7255.93
   77.06        2979.75           2566        1620.00      7059.67
   77.09        2980.00           2569        1630.00      7103.28
   77.12        2980.25           2573        1595.00      6950.64
   77.15        2980.50           2577        1587.00      6915.75
   77.18        2980.75           2580        1606.00      6998.61
   77.21        2981.00           2584        1557.00      6784.91
   77.24        2981.25           2587        1593.00      6941.92
   77.27        2981.50           2591        1540.00      6710.77
   77.31        2981.75           2594        1587.00      6915.75
   77.34        2982.00           2598        1519.00      6619.19
   77.37        2982.25           2601        1503.00      6549.41
   77.40        2982.50           2605        1591.00      6933.20
   77.43        2982.75           2609        1518.00      6614.83
   77.46        2983.00           2612        1501.00      6540.69
   77.49        2983.25           2616        1564.00      6815.44
   77.52        2983.50           2619        1514.00      6597.38
   77.55        2983.75           2623        1465.00      6383.69
   77.58        2984.00           2626        1492.00      6501.44
HS scan finished at 01:17:48
end
************************************************************
  HS Scan of (1) Internal mercury lamp
************************************************************
Integration time is 0.2294 seconds per sample
dh150519Reading 51.44 .94 3.54pr1000
************************************************************
Dead Time -------------------------  3.4E-08 
Number of Cycles Used -------------  4 
Starting Wavelength (Angstroms) ---  2950 
Final Wavelength (Angstoms) -------  2984 
Wavelength Increment (Angstroms) --  .25 
Filter Wheel #1 Position ---------- (1) Ground quartz diffuser (ND=2.32)
Filter Wheel #2 Position ---------- (1) Neutral Density 0.494



************************************************************
HS scan start time = 20:37:23
Dark Count =  2.9 


Time (GMT)  Wavelength (Ang)  Step Number  Raw Counts  Counts/Second

 1238.28        2950.00           2144        1236.00      5376.31
 1238.47        2950.25           2147        1233.00      5363.23
 1238.50        2950.50           2151        1226.00      5332.70
 1238.53        2950.75           2155        1240.00      5393.75
 1238.56        2951.00           2158        1224.00      5323.98
 1238.59        2951.25           2162        1237.00      5380.67
 1238.62        2951.50           2165        1231.00      5354.51
 1238.65        2951.75           2169        1250.00      5437.36
 1238.68        2952.00           2172        1258.00      5472.25
 1238.72        2952.25           2176        1259.00      5476.61
 1238.75        2952.50           2179        1266.00      5507.13
 1238.78        2952.75           2183        1243.00      5406.84
 1238.81        2953.00           2186        1272.00      5533.30
 1238.84        2953.25           2190        1308.00      5690.29
 1238.87        2953.50           2193        1300.00      5655.40
 1238.90        2953.75           2197        1271.00      5528.94
 1238.93        2954.00           2200        1293.00      5624.88
 1238.96        2954.25           2204        1310.00      5699.01
 1238.99        2954.50           2208        1317.00      5729.54
 1239.02        2954.75           2211        1338.00      5821.12
 1239.05        2955.00           2215        1324.00      5760.06
 1239.08        2955.25           2218        1355.00      5895.25
 1239.11        2955.50           2222        1347.00      5860.37
 1239.14        2955.75           2225        1346.00      5856.00
 1239.17        2956.00           2229        1347.00      5860.37
 1239.21        2956.25           2232        1369.00      5956.31
 1239.24        2956.50           2236        1338.00      5821.12
 1239.27        2956.75           2239        1392.00      6056.61
 1239.30        2957.00           2243        1399.00      6087.14
 1239.33        2957.25           2246        1385.00      6026.08
 1239.36        2957.50           2250        1408.00      6126.39
 1239.39        2957.75           2254        1460.00      6353.16
 1239.42        2958.00           2257        1467.00      6383.69
 1239.45        2958.25           2261        1461.00      6357.52
 1239.48        2958.50           2264        1480.00      6440.38
 1239.51        2958.75           2268        1515.00      6593.02
 1239.54        2959.00           2271        1512.00      6579.94
 1239.57        2959.25           2275        1530.00      6658.44
 1239.60        2959.50           2278        1534.00      6675.88
 1239.63        2959.75           2282        1549.00      6741.30
 1239.66        2960.00           2285        1597.00      6950.64
 1239.69        2960.25           2289        1604.00      6981.17
 1239.72        2960.50           2293        1662.00      7234.12
 1239.76        2960.75           2296        1695.00      7378.05
 1239.79        2961.00           2300        1814.00      7897.06
 1239.82        2961.25           2303        2080.00      9057.28
 1239.85        2961.50           2307        5642.00     24602.52
 1239.88        2961.75           2310       14252.00     62246.24
 1239.91        2962.00           2314       30736.00    134586.10
 1239.94        2962.25           2317       45504.00    199699.60
 1239.97        2962.50           2321       67150.00    295664.80
 1240.00        2962.75           2324       84790.00    374338.00
 1240.03        2963.00           2328      109444.00    485007.80
 1240.06        2963.25           2331      128190.00    569722.60
 1240.09        2963.50           2335      151544.00    675955.60
 1240.12        2963.75           2339      173408.00    776119.60
 1240.15        2964.00           2342      191446.00    859279.50
 1240.18        2964.25           2346      215036.00    968761.00
 1240.21        2964.50           2349      233636.00   1055672.00
 1240.24        2964.75           2353      257898.00   1169832.00
 1240.28        2965.00           2356      275556.00   1253490.00
 1240.31        2965.25           2360      298259.00   1361770.00
 1240.34        2965.50           2363      313840.00   1436558.00
 1240.37        2965.75           2367      334244.00   1535089.00
 1240.40        2966.00           2370      350051.00   1611891.00
 1240.43        2966.25           2374      369163.00   1705304.00
 1240.46        2966.50           2378      384674.00   1781570.00
 1240.49        2966.75           2381      391689.00   1816196.00
 1240.52        2967.00           2385      393464.00   1824971.00
 1240.55        2967.25           2388      393752.00   1826395.00
 1240.58        2967.50           2392      394177.00   1828497.00
 1240.61        2967.75           2395      392506.00   1820234.00
 1240.64        2968.00           2399      388864.00   1802242.00
 1240.67        2968.25           2402      378719.00   1752242.00
 1240.70        2968.50           2406      359255.00   1656801.00
 1240.73        2968.75           2409      343913.00   1582019.00
 1240.76        2969.00           2413      323094.00   1481162.00
 1240.80        2969.25           2417      302109.00   1380214.00
 1240.83        2969.50           2420      286387.00   1305046.00
 1240.86        2969.75           2424      266647.00   1211221.00
 1240.89        2970.00           2427      249050.00   1128095.00
 1240.92        2970.25           2431      223276.00   1007199.00
 1240.95        2970.50           2434      205324.00    923587.10
 1240.98        2970.75           2438      182487.00    817916.50
 1241.01        2971.00           2441      165192.00    738399.20
 1241.04        2971.25           2445      144131.00    642151.10
 1241.07        2971.50           2449      121399.00    538976.50
 1241.10        2971.75           2452      104404.00    462315.30
 1241.13        2972.00           2456       79722.00    351691.70
 1241.16        2972.25           2459       60948.00    268104.60
 1241.19        2972.50           2463       38752.00    169893.50
 1241.22        2972.75           2466       24739.00    108227.10
 1241.25        2973.00           2470        9085.00     39644.08
 1241.28        2973.25           2473        3921.00     17089.70
 1241.32        2973.50           2477        2050.00      8926.42
 1241.35        2973.75           2481        1823.00      7936.32
 1241.38        2974.00           2484        1744.00      7591.76
 1241.41        2974.25           2488        1707.00      7430.39
 1241.44        2974.50           2491        1680.00      7312.63
 1241.47        2974.75           2495        1617.00      7037.87
 1241.50        2975.00           2498        1637.00      7125.09
 1241.53        2975.25           2502        1578.00      6867.78
 1241.56        2975.50           2505        1559.00      6784.91
 1241.59        2975.75           2509        1538.00      6693.33
 1241.62        2976.00           2512        1479.00      6436.02
 1241.65        2976.25           2516        1510.00      6571.22
 1241.68        2976.50           2520        1479.00      6436.02
 1241.71        2976.75           2523        1452.00      6318.27
 1241.74        2977.00           2527        1449.00      6305.19
 1241.77        2977.25           2530        1441.00      6270.30
 1241.80        2977.50           2534        1409.00      6130.75
 1241.84        2977.75           2537        1403.00      6104.58
 1241.87        2978.00           2541        1365.00      5938.86
 1241.90        2978.25           2544        1331.00      5790.59
 1241.93        2978.50           2548        1366.00      5943.22
 1241.96        2978.75           2552        1322.00      5751.34
 1241.99        2979.00           2555        1322.00      5751.34
 1242.02        2979.25           2559        1329.00      5781.87
 1242.05        2979.50           2562        1325.00      5764.43
 1242.08        2979.75           2566        1290.00      5611.79
 1242.11        2980.00           2569        1258.00      5472.25
 1242.14        2980.25           2573        1301.00      5659.76
 1242.17        2980.50           2577        1294.00      5629.24
 1242.20        2980.75           2580        1288.00      5603.07
 1242.23        2981.00           2584        1245.00      5415.56
 1242.26        2981.25           2587        1271.00      5528.94
 1242.29        2981.50           2591        1255.00      5459.17
 1242.32        2981.75           2594        1256.00      5463.53
 1242.35        2982.00           2598        1249.00      5433.00
 1242.39        2982.25           2601        1224.00      5323.98
 1242.42        2982.50           2605        1223.00      5319.62
 1242.45        2982.75           2609        1206.00      5245.49
 1242.48        2983.00           2612        1191.00      5180.08
 1242.51        2983.25           2616        1235.00      5371.95
 1242.54        2983.50           2619        1187.00      5162.63
 1242.57        2983.75           2623        1226.00      5332.70
 1242.60        2984.00           2626        1191.00      5180.08
HS scan finished at 20:42:49
end
