************************************************************
  HS Scan of 
************************************************************
Integration time is 0.2294 seconds per sample
dh130517Reading 51.44 .94 3.27pr1000
************************************************************
Dead Time -------------------------  3.4E-08 
Number of Cycles Used -------------  4 
Starting Wavelength (Angstroms) ---  2950 
Final Wavelength (Angstoms) -------  2984 
Wavelength Increment (Angstroms) --  .25 
Filter Wheel #1 Position ---------- (1) Ground quartz diffuser (ND=2.32)
Filter Wheel #2 Position ---------- (1) Neutral Density 0.494



************************************************************
HS scan start time = 01:08:59
Dark Count =  1.6 


Time (GMT)  Wavelength (Ang)  Step Number  Raw Counts  Counts/Second

   69.88        2950.00           2144         482.00      2094.31
   70.08        2950.25           2147         487.00      2116.11
   70.11        2950.50           2151         485.00      2107.39
   70.14        2950.75           2155         559.00      2430.02
   70.17        2951.00           2158         489.00      2124.83
   70.20        2951.25           2162         496.00      2155.35
   70.23        2951.50           2165         522.00      2268.70
   70.26        2951.75           2169         521.00      2264.34
   70.29        2952.00           2172         483.00      2098.67
   70.32        2952.25           2176         517.00      2246.90
   70.35        2952.50           2179         527.00      2290.50
   70.38        2952.75           2183         533.00      2316.66
   70.41        2953.00           2186         532.00      2312.30
   70.44        2953.25           2190         517.00      2246.90
   70.48        2953.50           2193         532.00      2312.30
   70.51        2953.75           2197         534.00      2321.02
   70.54        2954.00           2200         518.00      2251.26
   70.57        2954.25           2204         535.00      2325.38
   70.60        2954.50           2208         545.00      2368.98
   70.63        2954.75           2211         556.00      2416.94
   70.66        2955.00           2215         545.00      2368.98
   70.69        2955.25           2218         561.00      2438.74
   70.72        2955.50           2222         542.00      2355.90
   70.75        2955.75           2225         568.00      2469.26
   70.78        2956.00           2229         586.00      2547.74
   70.81        2956.25           2232         569.00      2473.62
   70.84        2956.50           2236         561.00      2438.74
   70.87        2956.75           2239         581.00      2525.94
   70.90        2957.00           2243         559.00      2430.02
   70.93        2957.25           2246         577.00      2508.50
   70.96        2957.50           2250         592.00      2573.90
   71.00        2957.75           2254         594.00      2582.62
   71.03        2958.00           2257         616.00      2678.54
   71.06        2958.25           2261         594.00      2582.62
   71.09        2958.50           2264         607.00      2639.30
   71.12        2958.75           2268         615.00      2674.18
   71.15        2959.00           2271         625.00      2717.78
   71.18        2959.25           2275         653.00      2839.86
   71.21        2959.50           2278         650.00      2826.78
   71.24        2959.75           2282         647.00      2813.70
   71.27        2960.00           2285         654.00      2844.22
   71.30        2960.25           2289         709.00      3084.02
   71.33        2960.50           2293         712.00      3097.10
   71.36        2960.75           2296         753.00      3275.87
   71.39        2961.00           2300         828.00      3602.88
   71.42        2961.25           2303        1398.00      6088.44
   71.45        2961.50           2307        5128.00     22363.99
   71.48        2961.75           2310       10275.00     44852.13
   71.52        2962.00           2314       19078.00     83393.93
   71.55        2962.25           2317       26825.00    117396.20
   71.58        2962.50           2321       36490.00    159927.40
   71.61        2962.75           2324       44003.00    193074.10
   71.64        2963.00           2328       55446.00    243704.10
   71.67        2963.25           2331       63333.00    278702.60
   71.70        2963.50           2335       72542.00    319673.70
   71.73        2963.75           2339       82620.00    364642.90
   71.76        2964.00           2342       91159.00    402853.40
   71.79        2964.25           2346      101482.00    449181.00
   71.82        2964.50           2349      109015.00    483080.70
   71.85        2964.75           2353      118749.00    527002.20
   71.88        2965.00           2356      126208.00    560748.30
   71.91        2965.25           2360      135925.00    604827.80
   71.94        2965.50           2363      143787.00    640590.40
   71.97        2965.75           2367      153828.00    686392.90
   72.00        2966.00           2370      161119.00    719741.90
   72.03        2966.25           2374      169890.00    759962.10
   72.07        2966.50           2378      174724.00    782176.60
   72.10        2966.75           2381      176348.00    789647.30
   72.13        2967.00           2385      177122.00    793209.30
   72.16        2967.25           2388      177012.00    792703.00
   72.19        2967.50           2392      176622.00    790908.10
   72.22        2967.75           2395      176346.00    789638.10
   72.25        2968.00           2399      172600.00    772411.60
   72.28        2968.25           2402      166824.00    745890.00
   72.31        2968.50           2406      157465.00    703019.00
   72.34        2968.75           2409      151267.00    674697.00
   72.38        2969.00           2413      141915.00    632067.10
   72.42        2969.25           2417      132641.00    589915.60
   72.45        2969.50           2420      125278.00    556536.60
   72.48        2969.75           2424      114574.00    508147.70
   72.51        2970.00           2427      105967.00    469354.70
   72.54        2970.25           2431       95457.00    422124.10
   72.57        2970.50           2434       87777.00    387707.60
   72.60        2970.75           2438       77133.00    340142.10
   72.63        2971.00           2441       68616.00    302192.70
   72.66        2971.25           2445       56841.00    249888.30
   72.69        2971.50           2449       45618.00    200209.10
   72.72        2971.75           2452       37961.00    166411.40
   72.75        2972.00           2456       28204.00    123457.00
   72.78        2972.25           2459       20536.00     89787.21
   72.82        2972.50           2463       11806.00     51547.99
   72.85        2972.75           2466        6314.00     27542.78
   72.88        2973.00           2470        1929.00      8404.32
   72.91        2973.25           2473         995.00      4331.07
   72.94        2973.50           2477         776.00      3376.15
   72.97        2973.75           2481         776.00      3376.15
   73.00        2974.00           2484         744.00      3236.63
   73.03        2974.25           2488         690.00      3001.18
   73.06        2974.50           2491         721.00      3136.34
   73.09        2974.75           2495         726.00      3158.14
   73.12        2975.00           2498         688.00      2992.46
   73.15        2975.25           2502         656.00      2852.94
   73.18        2975.50           2505         677.00      2944.50
   73.21        2975.75           2509         657.00      2857.30
   73.24        2976.00           2512         655.00      2848.58
   73.27        2976.25           2516         634.00      2757.02
   73.30        2976.50           2520         628.00      2730.86
   73.33        2976.75           2523         599.00      2604.42
   73.37        2977.00           2527         624.00      2713.42
   73.40        2977.25           2530         608.00      2643.66
   73.43        2977.50           2534         602.00      2617.50
   73.46        2977.75           2537         595.00      2586.98
   73.49        2978.00           2541         566.00      2460.54
   73.52        2978.25           2544         604.00      2626.22
   73.55        2978.50           2548         574.00      2495.42
   73.58        2978.75           2552         540.00      2347.18
   73.61        2979.00           2555         543.00      2360.26
   73.64        2979.25           2559         556.00      2416.94
   73.67        2979.50           2562         556.00      2416.94
   73.70        2979.75           2566         542.00      2355.90
   73.73        2980.00           2569         550.00      2390.78
   73.76        2980.25           2573         548.00      2382.06
   73.79        2980.50           2577         541.00      2351.54
   73.82        2980.75           2580         537.00      2334.10
   73.85        2981.00           2584         543.00      2360.26
   73.89        2981.25           2587         526.00      2286.14
   73.92        2981.50           2591         517.00      2246.90
   73.95        2981.75           2594         511.00      2220.74
   73.98        2982.00           2598         517.00      2246.90
   74.01        2982.25           2601         542.00      2355.90
   74.04        2982.50           2605         510.00      2216.38
   74.07        2982.75           2609         514.00      2233.82
   74.10        2983.00           2612         524.00      2277.42
   74.13        2983.25           2616         517.00      2246.90
   74.16        2983.50           2619         521.00      2264.34
   74.19        2983.75           2623         514.00      2233.82
   74.22        2984.00           2626         495.00      2150.99
HS scan finished at 01:14:27
end
************************************************************
  HS Scan of 
************************************************************
Integration time is 0.2294 seconds per sample
dh130517Reading 51.44 .94 3.39pr1000
************************************************************
Dead Time -------------------------  3.4E-08 
Number of Cycles Used -------------  4 
Starting Wavelength (Angstroms) ---  2950 
Final Wavelength (Angstoms) -------  2984 
Wavelength Increment (Angstroms) --  .25 
Filter Wheel #1 Position ---------- (1) Ground quartz diffuser (ND=2.32)
Filter Wheel #2 Position ---------- (1) Neutral Density 0.494



************************************************************
HS scan start time = 20:37:23
Dark Count =  2.2 


Time (GMT)  Wavelength (Ang)  Step Number  Raw Counts  Counts/Second

 1238.28        2950.00           2144         538.00      2335.84
 1238.48        2950.25           2147         541.00      2348.92
 1238.51        2950.50           2151         537.00      2331.48
 1238.54        2950.75           2155         539.00      2340.20
 1238.57        2951.00           2158         541.00      2348.92
 1238.60        2951.25           2162         552.00      2396.88
 1238.63        2951.50           2165         525.00      2279.17
 1238.66        2951.75           2169         572.00      2484.08
 1238.69        2952.00           2172         574.00      2492.80
 1238.72        2952.25           2176         556.00      2414.32
 1238.75        2952.50           2179         543.00      2357.64
 1238.78        2952.75           2183         543.00      2357.64
 1238.81        2953.00           2186         561.00      2436.12
 1238.84        2953.25           2190         559.00      2427.40
 1238.87        2953.50           2193         553.00      2401.24
 1238.90        2953.75           2197         578.00      2510.24
 1238.94        2954.00           2200         566.00      2457.92
 1238.97        2954.25           2204         578.00      2510.24
 1239.00        2954.50           2208         584.00      2536.40
 1239.03        2954.75           2211         585.00      2540.76
 1239.06        2955.00           2215         586.00      2545.12
 1239.09        2955.25           2218         587.00      2549.48
 1239.12        2955.50           2222         578.00      2510.24
 1239.15        2955.75           2225         622.00      2702.08
 1239.18        2956.00           2229         588.00      2553.84
 1239.21        2956.25           2232         571.00      2479.72
 1239.24        2956.50           2236         613.00      2662.84
 1239.27        2956.75           2239         614.00      2667.20
 1239.30        2957.00           2243         615.00      2671.56
 1239.33        2957.25           2246         630.00      2736.96
 1239.36        2957.50           2250         613.00      2662.84
 1239.39        2957.75           2254         632.00      2745.68
 1239.42        2958.00           2257         650.00      2824.16
 1239.46        2958.25           2261         627.00      2723.88
 1239.49        2958.50           2264         659.00      2863.40
 1239.52        2958.75           2268         665.00      2889.56
 1239.55        2959.00           2271         685.00      2976.76
 1239.58        2959.25           2275         679.00      2950.60
 1239.61        2959.50           2278         693.00      3011.64
 1239.64        2959.75           2282         712.00      3094.48
 1239.67        2960.00           2285         709.00      3081.40
 1239.70        2960.25           2289         757.00      3290.69
 1239.73        2960.50           2293         723.00      3142.45
 1239.76        2960.75           2296         766.00      3329.93
 1239.79        2961.00           2300         822.00      3574.10
 1239.82        2961.25           2303         974.00      4236.88
 1239.85        2961.50           2307        3153.00     13741.38
 1239.88        2961.75           2310        7699.00     33590.22
 1239.91        2962.00           2314       16175.00     70670.04
 1239.94        2962.25           2317       23948.00    104756.90
 1239.98        2962.50           2321       34038.00    149123.00
 1240.01        2962.75           2324       41269.00    181000.60
 1240.04        2963.00           2328       51434.00    225930.30
 1240.07        2963.25           2331       58924.00    259124.70
 1240.10        2963.50           2335       69345.00    305434.50
 1240.13        2963.75           2339       80429.00    354851.90
 1240.16        2964.00           2342       86589.00    382388.30
 1240.19        2964.25           2346       98306.00    434909.40
 1240.22        2964.50           2349      106610.00    472246.60
 1240.25        2964.75           2353      116619.00    517377.20
 1240.28        2965.00           2356      124705.00    553939.50
 1240.31        2965.25           2360      134224.00    597099.10
 1240.34        2965.50           2363      141906.00    632023.30
 1240.37        2965.75           2367      152552.00    680561.50
 1240.40        2966.00           2370      160034.00    714771.50
 1240.43        2966.25           2374      169245.00    756997.90
 1240.46        2966.50           2378      176641.00    790992.80
 1240.49        2966.75           2381      179287.00    803174.20
 1240.53        2967.00           2385      179789.00    805486.50
 1240.56        2967.25           2388      180280.00    807748.40
 1240.59        2967.50           2392      180228.00    807508.70
 1240.62        2967.75           2395      179840.00    805721.30
 1240.65        2968.00           2399      175736.00    786828.80
 1240.68        2968.25           2402      170633.00    763371.50
 1240.71        2968.50           2406      162431.00    725748.40
 1240.74        2968.75           2409      155297.00    693103.10
 1240.77        2969.00           2413      145753.00    649544.20
 1240.80        2969.25           2417      135261.00    601808.70
 1240.83        2969.50           2420      127488.00    566544.50
 1240.86        2969.75           2424      116970.00    518962.40
 1240.89        2970.00           2427      108707.00    481690.40
 1240.92        2970.25           2431       98065.00    433827.20
 1240.95        2970.50           2434       90373.00    399329.30
 1240.98        2970.75           2438       79747.00    351806.40
 1241.01        2971.00           2441       71440.00    314762.10
 1241.05        2971.25           2445       60916.00    267965.60
 1241.08        2971.50           2449       49307.00    216517.50
 1241.11        2971.75           2452       41534.00    182170.20
 1241.14        2972.00           2456       30904.00    135328.30
 1241.17        2972.25           2459       23550.00    103009.70
 1241.20        2972.50           2463       13719.00     59916.18
 1241.23        2972.75           2466        7473.00     32602.82
 1241.26        2973.00           2470        2275.00      9910.93
 1241.29        2973.25           2473        1115.00      4851.72
 1241.32        2973.50           2477         835.00      3630.79
 1241.35        2973.75           2481         826.00      3591.55
 1241.38        2974.00           2484         779.00      3386.61
 1241.41        2974.25           2488         739.00      3212.21
 1241.44        2974.50           2491         744.00      3234.01
 1241.47        2974.75           2495         704.00      3059.60
 1241.50        2975.00           2498         725.00      3151.17
 1241.54        2975.25           2502         676.00      2937.52
 1241.57        2975.50           2505         712.00      3094.48
 1241.60        2975.75           2509         665.00      2889.56
 1241.63        2976.00           2512         685.00      2976.76
 1241.66        2976.25           2516         659.00      2863.40
 1241.69        2976.50           2520         653.00      2837.24
 1241.72        2976.75           2523         660.00      2867.76
 1241.75        2977.00           2527         650.00      2824.16
 1241.78        2977.25           2530         630.00      2736.96
 1241.81        2977.50           2534         632.00      2745.68
 1241.84        2977.75           2537         605.00      2627.96
 1241.87        2978.00           2541         600.00      2606.16
 1241.90        2978.25           2544         636.00      2763.12
 1241.93        2978.50           2548         614.00      2667.20
 1241.96        2978.75           2552         601.00      2610.52
 1241.99        2979.00           2555         578.00      2510.24
 1242.02        2979.25           2559         586.00      2545.12
 1242.05        2979.50           2562         615.00      2671.56
 1242.09        2979.75           2566         588.00      2553.84
 1242.12        2980.00           2569         554.00      2405.60
 1242.15        2980.25           2573         555.00      2409.96
 1242.18        2980.50           2577         544.00      2362.00
 1242.21        2980.75           2580         571.00      2479.72
 1242.24        2981.00           2584         549.00      2383.80
 1242.27        2981.25           2587         533.00      2314.04
 1242.30        2981.50           2591         534.00      2318.40
 1242.33        2981.75           2594         550.00      2388.16
 1242.36        2982.00           2598         564.00      2449.20
 1242.39        2982.25           2601         550.00      2388.16
 1242.42        2982.50           2605         540.00      2344.56
 1242.45        2982.75           2609         519.00      2253.01
 1242.48        2983.00           2612         513.00      2226.85
 1242.51        2983.25           2616         540.00      2344.56
 1242.54        2983.50           2619         511.00      2218.13
 1242.57        2983.75           2623         523.00      2270.45
 1242.61        2984.00           2626         501.00      2174.53
HS scan finished at 20:42:50
end
