************************************************************
  HS Scan of (1) Internal mercury lamp
************************************************************
Integration time is 0.2294 seconds per sample
dh160518Reading 51.44 .94 3.45pr1000
************************************************************
Dead Time -------------------------  3.4E-08 
Number of Cycles Used -------------  4 
Starting Wavelength (Angstroms) ---  2950 
Final Wavelength (Angstoms) -------  2984 
Wavelength Increment (Angstroms) --  .25 
Filter Wheel #1 Position ---------- (1) Ground quartz diffuser (ND=2.32)
Filter Wheel #2 Position ---------- (1) Neutral Density 0.494



************************************************************
HS scan start time = 02:33:16
Dark Count =  1.9 


Time (GMT)  Wavelength (Ang)  Step Number  Raw Counts  Counts/Second

  154.16        2950.00           2144          74.00       314.30
  154.35        2950.25           2147          77.00       327.38
  154.39        2950.50           2151          65.00       275.07
  154.42        2950.75           2155          81.00       344.82
  154.45        2951.00           2158         100.00       427.64
  154.48        2951.25           2162          78.00       331.74
  154.51        2951.50           2165          80.00       340.46
  154.54        2951.75           2169          80.00       340.46
  154.57        2952.00           2172          88.00       375.33
  154.60        2952.25           2176          82.00       349.18
  154.63        2952.50           2179          81.00       344.82
  154.66        2952.75           2183          75.00       318.66
  154.69        2953.00           2186          80.00       340.46
  154.72        2953.25           2190          92.00       392.77
  154.75        2953.50           2193          95.00       405.85
  154.78        2953.75           2197          96.00       410.21
  154.81        2954.00           2200          87.00       370.97
  154.84        2954.25           2204          84.00       357.89
  154.87        2954.50           2208          86.00       366.61
  154.91        2954.75           2211          93.00       397.13
  154.94        2955.00           2215          94.00       401.49
  154.97        2955.25           2218          88.00       375.33
  155.00        2955.50           2222          91.00       388.41
  155.03        2955.75           2225          88.00       375.33
  155.06        2956.00           2229          82.00       349.18
  155.09        2956.25           2232          84.00       357.89
  155.12        2956.50           2236         110.00       471.24
  155.15        2956.75           2239          95.00       405.85
  155.18        2957.00           2243          89.00       379.69
  155.21        2957.25           2246          93.00       397.13
  155.24        2957.50           2250         104.00       445.08
  155.27        2957.75           2254          95.00       405.85
  155.30        2958.00           2257         112.00       479.96
  155.33        2958.25           2261         130.00       558.42
  155.36        2958.50           2264          95.00       405.85
  155.39        2958.75           2268          99.00       423.28
  155.43        2959.00           2271         106.00       453.80
  155.46        2959.25           2275         111.00       475.60
  155.49        2959.50           2278         122.00       523.55
  155.52        2959.75           2282         119.00       510.47
  155.55        2960.00           2285         101.00       432.00
  155.58        2960.25           2289         110.00       471.24
  155.61        2960.50           2293         124.00       532.27
  155.64        2960.75           2296         145.00       623.81
  155.67        2961.00           2300         149.00       641.25
  155.70        2961.25           2303         315.00      1364.93
  155.73        2961.50           2307        1034.00      4499.82
  155.76        2961.75           2310        2090.00      9105.26
  155.79        2962.00           2314        3646.00     15893.94
  155.82        2962.25           2317        4941.00     21546.30
  155.85        2962.50           2321        6515.00     28419.34
  155.88        2962.75           2324        7660.00     33421.13
  155.91        2963.00           2328        9602.00     41908.41
  155.94        2963.25           2331       10932.00     47723.84
  155.98        2963.50           2335       12584.00     54950.43
  156.01        2963.75           2339       14307.00     62491.40
  156.04        2964.00           2342       15588.00     68100.40
  156.07        2964.25           2346       17570.00     76783.02
  156.10        2964.50           2349       19032.00     83190.95
  156.13        2964.75           2353       20875.00     91272.79
  156.16        2965.00           2356       21903.00     95782.65
  156.19        2965.25           2360       23412.00    102405.20
  156.22        2965.50           2363       24667.00    107915.30
  156.25        2965.75           2367       26579.00    116313.90
  156.28        2966.00           2370       27586.00    120739.20
  156.31        2966.25           2374       29317.00    128349.20
  156.34        2966.50           2378       29952.00    131141.90
  156.37        2966.75           2381       30117.00    131867.60
  156.40        2967.00           2385       30522.00    133649.10
  156.43        2967.25           2388       30574.00    133877.90
  156.46        2967.50           2392       30600.00    133992.20
  156.50        2967.75           2395       30284.00    132602.20
  156.53        2968.00           2399       29256.00    128081.00
  156.56        2968.25           2402       27964.00    122400.70
  156.59        2968.50           2406       26440.00    115703.20
  156.62        2968.75           2409       25287.00    110638.20
  156.65        2969.00           2413       23799.00    104104.10
  156.68        2969.25           2417       21927.00     95887.96
  156.71        2969.50           2420       20503.00     89641.15
  156.74        2969.75           2424       18478.00     80762.44
  156.77        2970.00           2427       17189.00     75113.56
  156.80        2970.25           2431       15443.00     67465.40
  156.83        2970.50           2434       14087.00     61528.32
  156.86        2970.75           2438       12419.00     54228.49
  156.89        2971.00           2441       10888.00     47531.42
  156.92        2971.25           2445        8848.00     38612.56
  156.95        2971.50           2449        7227.00     31529.42
  156.99        2971.75           2452        5914.00     25794.63
  157.02        2972.00           2456        4275.00     18639.10
  157.05        2972.25           2459        2942.00     12822.07
  157.08        2972.50           2463        1524.00      6636.63
  157.11        2972.75           2466         702.00      3052.19
  157.14        2973.00           2470         225.00       972.57
  157.17        2973.25           2473         150.00       645.61
  157.20        2973.50           2477         146.00       628.17
  157.23        2973.75           2481         125.00       536.63
  157.26        2974.00           2484         163.00       702.28
  157.29        2974.25           2488         134.00       575.86
  157.32        2974.50           2491         113.00       484.31
  157.35        2974.75           2495         166.00       715.36
  157.38        2975.00           2498         110.00       471.24
  157.41        2975.25           2502         116.00       497.39
  157.44        2975.50           2505         101.00       432.00
  157.47        2975.75           2509         110.00       471.24
  157.50        2976.00           2512         103.00       440.72
  157.54        2976.25           2516         124.00       532.27
  157.57        2976.50           2520          96.00       410.21
  157.60        2976.75           2523          96.00       410.21
  157.63        2977.00           2527          97.00       414.57
  157.66        2977.25           2530          96.00       410.21
  157.69        2977.50           2534         115.00       493.03
  157.72        2977.75           2537         100.00       427.64
  157.75        2978.00           2541          96.00       410.21
  157.78        2978.25           2544          96.00       410.21
  157.81        2978.50           2548          97.00       414.57
  157.84        2978.75           2552          82.00       349.18
  157.87        2979.00           2555          80.00       340.46
  157.90        2979.25           2559         105.00       449.44
  157.93        2979.50           2562          87.00       370.97
  157.96        2979.75           2566          88.00       375.33
  157.99        2980.00           2569          84.00       357.89
  158.02        2980.25           2573          80.00       340.46
  158.06        2980.50           2577          83.00       353.54
  158.09        2980.75           2580          82.00       349.18
  158.12        2981.00           2584          87.00       370.97
  158.15        2981.25           2587          85.00       362.25
  158.18        2981.50           2591          86.00       366.61
  158.21        2981.75           2594          80.00       340.46
  158.24        2982.00           2598          81.00       344.82
  158.27        2982.25           2601          82.00       349.18
  158.30        2982.50           2605          84.00       357.89
  158.33        2982.75           2609          75.00       318.66
  158.36        2983.00           2612          84.00       357.89
  158.39        2983.25           2616          77.00       327.38
  158.42        2983.50           2619          71.00       301.22
  158.45        2983.75           2623          83.00       353.54
  158.48        2984.00           2626          82.00       349.18
HS scan finished at 02:38:42
end
