************************************************************
  HS Scan of 
************************************************************
Integration time is 0.2294 seconds per sample
dh180517Reading 51.44 .94 3.37pr1000
************************************************************
Dead Time -------------------------  3.4E-08 
Number of Cycles Used -------------  4 
Starting Wavelength (Angstroms) ---  2950 
Final Wavelength (Angstoms) -------  2984 
Wavelength Increment (Angstroms) --  .25 
Filter Wheel #1 Position ---------- (1) Ground quartz diffuser (ND=2.32)
Filter Wheel #2 Position ---------- (1) Neutral Density 0.494



************************************************************
HS scan start time = 01:04:16
Dark Count =  1.8 


Time (GMT)  Wavelength (Ang)  Step Number  Raw Counts  Counts/Second

   65.17        2950.00           2144         378.00      1640.02
   65.36        2950.25           2147         355.00      1539.75
   65.39        2950.50           2151         366.00      1587.71
   65.42        2950.75           2155         373.00      1618.22
   65.46        2951.00           2158         364.00      1578.99
   65.49        2951.25           2162         384.00      1666.18
   65.52        2951.50           2165         374.00      1622.58
   65.55        2951.75           2169         390.00      1692.34
   65.58        2952.00           2172         367.00      1592.07
   65.61        2952.25           2176         384.00      1666.18
   65.64        2952.50           2179         398.00      1727.22
   65.67        2952.75           2183         378.00      1640.02
   65.70        2953.00           2186         351.00      1522.31
   65.73        2953.25           2190         391.00      1696.70
   65.76        2953.50           2193         388.00      1683.62
   65.79        2953.75           2197         401.00      1740.29
   65.82        2954.00           2200         365.00      1583.35
   65.85        2954.25           2204         382.00      1657.46
   65.88        2954.50           2208         398.00      1727.22
   65.91        2954.75           2211         428.00      1858.01
   65.94        2955.00           2215         413.00      1792.61
   65.98        2955.25           2218         392.00      1701.06
   66.01        2955.50           2222         400.00      1735.94
   66.04        2955.75           2225         404.00      1753.37
   66.07        2956.00           2229         402.00      1744.65
   66.10        2956.25           2232         414.00      1796.97
   66.13        2956.50           2236         422.00      1831.85
   66.16        2956.75           2239         437.00      1897.25
   66.19        2957.00           2243         438.00      1901.61
   66.22        2957.25           2246         428.00      1858.01
   66.25        2957.50           2250         423.00      1836.21
   66.28        2957.75           2254         434.00      1884.17
   66.31        2958.00           2257         449.00      1949.56
   66.34        2958.25           2261         459.00      1993.16
   66.37        2958.50           2264         446.00      1936.48
   66.40        2958.75           2268         460.00      1997.52
   66.43        2959.00           2271         484.00      2102.16
   66.46        2959.25           2275         475.00      2062.92
   66.50        2959.50           2278         496.00      2154.47
   66.53        2959.75           2282         484.00      2102.16
   66.56        2960.00           2285         481.00      2089.08
   66.59        2960.25           2289         518.00      2250.39
   66.62        2960.50           2293         548.00      2381.19
   66.65        2960.75           2296         549.00      2385.55
   66.68        2961.00           2300         651.00      2830.26
   66.71        2961.25           2303        1231.00      5359.30
   66.74        2961.50           2307        4366.00     19036.73
   66.77        2961.75           2310        8442.00     36838.61
   66.80        2962.00           2314       15042.00     65709.85
   66.83        2962.25           2317       20913.00     91439.89
   66.86        2962.50           2321       28712.00    125689.40
   66.89        2962.75           2324       34237.00    150001.10
   66.92        2963.00           2328       41284.00    181068.60
   66.95        2963.25           2331       47039.00    206489.10
   66.98        2963.50           2335       55307.00    243087.20
   67.02        2963.75           2339       64016.00    281736.50
   67.05        2964.00           2342       70518.00    310658.10
   67.08        2964.25           2346       77899.00    343559.10
   67.11        2964.50           2349       83015.00    366407.40
   67.14        2964.75           2353       90972.00    402014.70
   67.17        2965.00           2356       96684.00    427629.40
   67.20        2965.25           2360      103947.00    460264.40
   67.23        2965.50           2363      109450.00    485039.70
   67.26        2965.75           2367      117005.00    519122.40
   67.29        2966.00           2370      121898.00    541238.50
   67.32        2966.25           2374      128747.00    572252.30
   67.35        2966.50           2378      131870.00    586415.90
   67.38        2966.75           2381      132696.00    590164.30
   67.41        2967.00           2385      133140.00    592179.60
   67.44        2967.25           2388      133173.00    592329.30
   67.47        2967.50           2392      133466.00    593659.50
   67.50        2967.75           2395      131898.00    586543.00
   67.54        2968.00           2399      128903.00    572959.50
   67.57        2968.25           2402      124931.00    554964.50
   67.60        2968.50           2406      118192.00    524484.50
   67.63        2968.75           2409      112521.00    498884.30
   67.66        2969.00           2413      104799.00    464097.40
   67.69        2969.25           2417       97736.00    432351.80
   67.72        2969.50           2420       92504.00    408880.30
   67.75        2969.75           2424       84588.00    373439.60
   67.78        2970.00           2427       78894.00    348000.00
   67.81        2970.25           2431       71283.00    314064.70
   67.84        2970.50           2434       66093.00    290969.00
   67.87        2970.75           2438       58281.00    256273.90
   67.90        2971.00           2441       52053.00    228672.50
   67.93        2971.25           2445       42877.00    188100.60
   67.96        2971.50           2449       34966.00    153211.90
   67.99        2971.75           2452       29397.00    128701.50
   68.02        2972.00           2456       21857.00     95581.25
   68.06        2972.25           2459       16304.00     71236.85
   68.09        2972.50           2463        9120.00     39801.87
   68.12        2972.75           2466        4394.00     19158.95
   68.15        2973.00           2470        1222.00      5320.06
   68.18        2973.25           2473         719.00      3126.75
   68.21        2973.50           2477         594.00      2581.74
   68.24        2973.75           2481         587.00      2551.22
   68.27        2974.00           2484         541.00      2350.67
   68.30        2974.25           2488         544.00      2363.75
   68.33        2974.50           2491         519.00      2254.75
   68.36        2974.75           2495         523.00      2272.19
   68.39        2975.00           2498         532.00      2311.43
   68.42        2975.25           2502         495.00      2150.11
   68.45        2975.50           2505         546.00      2372.47
   68.48        2975.75           2509         493.00      2141.39
   68.51        2976.00           2512         463.00      2010.60
   68.54        2976.25           2516         475.00      2062.92
   68.57        2976.50           2520         461.00      2001.88
   68.61        2976.75           2523         443.00      1923.40
   68.64        2977.00           2527         462.00      2006.24
   68.67        2977.25           2530         444.00      1927.76
   68.70        2977.50           2534         462.00      2006.24
   68.73        2977.75           2537         434.00      1884.17
   68.76        2978.00           2541         430.00      1866.73
   68.79        2978.25           2544         418.00      1814.41
   68.82        2978.50           2548         423.00      1836.21
   68.85        2978.75           2552         414.00      1796.97
   68.88        2979.00           2555         415.00      1801.33
   68.92        2979.25           2559         407.00      1766.45
   68.95        2979.50           2562         406.00      1762.09
   68.98        2979.75           2566         411.00      1783.89
   69.01        2980.00           2569         420.00      1823.13
   69.04        2980.25           2573         408.00      1770.81
   69.07        2980.50           2577         391.00      1696.70
   69.10        2980.75           2580         396.00      1718.50
   69.13        2981.00           2584         422.00      1831.85
   69.16        2981.25           2587         408.00      1770.81
   69.19        2981.50           2591         399.00      1731.58
   69.22        2981.75           2594         391.00      1696.70
   69.25        2982.00           2598         421.00      1827.49
   69.29        2982.25           2601         383.00      1661.82
   69.32        2982.50           2605         413.00      1792.61
   69.35        2982.75           2609         388.00      1683.62
   69.38        2983.00           2612         389.00      1687.98
   69.41        2983.25           2616         384.00      1666.18
   69.44        2983.50           2619         397.00      1722.86
   69.47        2983.75           2623         374.00      1622.58
   69.50        2984.00           2626         387.00      1679.26
HS scan finished at 01:09:43
end
************************************************************
  HS Scan of 
************************************************************
Integration time is 0.2294 seconds per sample
dh180517Reading 51.44 .94 3.11pr1000
************************************************************
Dead Time -------------------------  3.4E-08 
Number of Cycles Used -------------  4 
Starting Wavelength (Angstroms) ---  2950 
Final Wavelength (Angstoms) -------  2984 
Wavelength Increment (Angstroms) --  .25 
Filter Wheel #1 Position ---------- (1) Ground quartz diffuser (ND=2.32)
Filter Wheel #2 Position ---------- (1) Neutral Density 0.494



************************************************************
HS scan start time = 20:37:20
Dark Count =  1.1 


Time (GMT)  Wavelength (Ang)  Step Number  Raw Counts  Counts/Second

 1238.23        2950.00           2144         398.00      1730.27
 1238.43        2950.25           2147         398.00      1730.27
 1238.46        2950.50           2151         392.00      1704.11
 1238.49        2950.75           2155         382.00      1660.51
 1238.52        2951.00           2158         407.00      1769.50
 1238.55        2951.25           2162         396.00      1721.55
 1238.58        2951.50           2165         404.00      1756.43
 1238.61        2951.75           2169         421.00      1830.54
 1238.64        2952.00           2172         399.00      1734.63
 1238.67        2952.25           2176         417.00      1813.10
 1238.70        2952.50           2179         403.00      1752.07
 1238.73        2952.75           2183         415.00      1804.38
 1238.76        2953.00           2186         425.00      1847.98
 1238.80        2953.25           2190         414.00      1800.02
 1238.83        2953.50           2193         431.00      1874.14
 1238.86        2953.75           2197         438.00      1904.66
 1238.89        2954.00           2200         438.00      1904.66
 1238.92        2954.25           2204         401.00      1743.35
 1238.95        2954.50           2208         428.00      1861.06
 1238.98        2954.75           2211         420.00      1826.18
 1239.01        2955.00           2215         424.00      1843.62
 1239.04        2955.25           2218         443.00      1926.46
 1239.07        2955.50           2222         431.00      1874.14
 1239.10        2955.75           2225         447.00      1943.89
 1239.13        2956.00           2229         441.00      1917.74
 1239.16        2956.25           2232         463.00      2013.65
 1239.19        2956.50           2236         444.00      1930.82
 1239.22        2956.75           2239         446.00      1939.54
 1239.25        2957.00           2243         455.00      1978.77
 1239.28        2957.25           2246         472.00      2052.89
 1239.32        2957.50           2250         461.00      2004.93
 1239.35        2957.75           2254         468.00      2035.45
 1239.38        2958.00           2257         486.00      2113.93
 1239.41        2958.25           2261         471.00      2048.53
 1239.44        2958.50           2264         494.00      2148.81
 1239.47        2958.75           2268         522.00      2270.88
 1239.50        2959.00           2271         489.00      2127.01
 1239.53        2959.25           2275         488.00      2122.65
 1239.56        2959.50           2278         503.00      2188.04
 1239.59        2959.75           2282         532.00      2314.48
 1239.62        2960.00           2285         519.00      2257.80
 1239.65        2960.25           2289         543.00      2362.44
 1239.68        2960.50           2293         559.00      2432.20
 1239.71        2960.75           2296         563.00      2449.64
 1239.74        2961.00           2300         628.00      2733.04
 1239.77        2961.25           2303         931.00      4054.18
 1239.80        2961.50           2307        2866.00     12493.97
 1239.83        2961.75           2310        6371.00     27793.91
 1239.87        2962.00           2314       12744.00     55654.03
 1239.90        2962.25           2317       17742.00     77540.26
 1239.93        2962.50           2321       24951.00    109166.00
 1239.96        2962.75           2324       30361.00    132944.40
 1239.99        2963.00           2328       37593.00    164791.30
 1240.02        2963.25           2331       43671.00    191610.00
 1240.05        2963.50           2335       51568.00    226528.30
 1240.08        2963.75           2339       58419.00    256889.20
 1240.11        2964.00           2342       64008.00    281704.00
 1240.14        2964.25           2346       71319.00    314228.10
 1240.17        2964.50           2349       76960.00    339372.50
 1240.20        2964.75           2353       84387.00    372543.90
 1240.23        2965.00           2356       89984.00    397591.80
 1240.26        2965.25           2360       96692.00    427668.40
 1240.29        2965.50           2363      101868.00    450918.40
 1240.32        2965.75           2367      108390.00    480267.30
 1240.35        2966.00           2370      114210.00    506507.20
 1240.39        2966.25           2374      120850.00    536501.90
 1240.42        2966.50           2378      125885.00    559287.60
 1240.45        2966.75           2381      127108.00    564827.70
 1240.48        2967.00           2385      127923.00    568520.70
 1240.51        2967.25           2388      127896.00    568398.30
 1240.54        2967.50           2392      127977.00    568765.50
 1240.57        2967.75           2395      127425.00    566264.00
 1240.60        2968.00           2399      126041.00    559994.20
 1240.63        2968.25           2402      122345.00    543263.80
 1240.66        2968.50           2406      116018.00    514668.40
 1240.69        2968.75           2409      110222.00    488521.90
 1240.72        2969.00           2413      103249.00    457128.00
 1240.75        2969.25           2417       96213.00    425518.70
 1240.78        2969.50           2420       90904.00    401713.20
 1240.81        2969.75           2424       83064.00    366629.50
 1240.84        2970.00           2427       76580.00    337677.30
 1240.87        2970.25           2431       68501.00    301683.30
 1240.91        2970.50           2434       62536.00    275164.30
 1240.94        2970.75           2438       55404.00    243520.20
 1240.97        2971.00           2441       50047.00    219796.50
 1241.00        2971.25           2445       42577.00    186779.10
 1241.03        2971.50           2449       34840.00    152660.00
 1241.06        2971.75           2452       28825.00    126189.30
 1241.09        2972.00           2456       21709.00     94934.97
 1241.12        2972.25           2459       16608.00     72571.61
 1241.15        2972.50           2463        9615.00     41968.74
 1241.18        2972.75           2466        5228.00     22802.76
 1241.21        2973.00           2470        1693.00      7377.18
 1241.24        2973.25           2473         845.00      3679.19
 1241.27        2973.50           2477         612.00      2663.28
 1241.30        2973.75           2481         570.00      2480.16
 1241.33        2974.00           2484         576.00      2506.32
 1241.36        2974.25           2488         566.00      2462.72
 1241.39        2974.50           2491         539.00      2345.00
 1241.43        2974.75           2495         520.00      2262.16
 1241.46        2975.00           2498         520.00      2262.16
 1241.49        2975.25           2502         498.00      2166.25
 1241.52        2975.50           2505         522.00      2270.88
 1241.55        2975.75           2509         495.00      2153.17
 1241.58        2976.00           2512         487.00      2118.29
 1241.61        2976.25           2516         475.00      2065.97
 1241.64        2976.50           2520         533.00      2318.84
 1241.67        2976.75           2523         461.00      2004.93
 1241.70        2977.00           2527         470.00      2044.17
 1241.73        2977.25           2530         465.00      2022.37
 1241.76        2977.50           2534         495.00      2153.17
 1241.79        2977.75           2537         459.00      1996.21
 1241.82        2978.00           2541         460.00      2000.57
 1241.85        2978.25           2544         457.00      1987.49
 1241.88        2978.50           2548         451.00      1961.33
 1241.91        2978.75           2552         434.00      1887.22
 1241.95        2979.00           2555         453.00      1970.05
 1241.98        2979.25           2559         452.00      1965.69
 1242.01        2979.50           2562         451.00      1961.33
 1242.04        2979.75           2566         438.00      1904.66
 1242.07        2980.00           2569         443.00      1926.46
 1242.10        2980.25           2573         422.00      1834.90
 1242.13        2980.50           2577         439.00      1909.02
 1242.16        2980.75           2580         405.00      1760.79
 1242.19        2981.00           2584         414.00      1800.02
 1242.22        2981.25           2587         431.00      1874.14
 1242.25        2981.50           2591         403.00      1752.07
 1242.28        2981.75           2594         399.00      1734.63
 1242.31        2982.00           2598         408.00      1773.86
 1242.34        2982.25           2601         420.00      1826.18
 1242.37        2982.50           2605         402.00      1747.71
 1242.40        2982.75           2609         408.00      1773.86
 1242.43        2983.00           2612         381.00      1656.15
 1242.46        2983.25           2616         424.00      1843.62
 1242.50        2983.50           2619         383.00      1664.87
 1242.53        2983.75           2623         419.00      1821.82
 1242.56        2984.00           2626         380.00      1651.79
HS scan finished at 20:42:47
end
