************************************************************
  HS Scan of (1) Internal mercury lamp
************************************************************
Integration time is 0.2294 seconds per sample
dh150518Reading 51.44 .94 3.33pr1000
************************************************************
Dead Time -------------------------  3.4E-08 
Number of Cycles Used -------------  4 
Starting Wavelength (Angstroms) ---  2950 
Final Wavelength (Angstoms) -------  2984 
Wavelength Increment (Angstroms) --  .25 
Filter Wheel #1 Position ---------- (1) Ground quartz diffuser (ND=2.32)
Filter Wheel #2 Position ---------- (1) Neutral Density 0.494



************************************************************
HS scan start time = 01:13:17
Dark Count =  1.3 


Time (GMT)  Wavelength (Ang)  Step Number  Raw Counts  Counts/Second

   74.18        2950.00           2144          83.00       356.15
   74.37        2950.25           2147          76.00       325.64
   74.40        2950.50           2151          77.00       329.99
   74.43        2950.75           2155          85.00       364.87
   74.46        2951.00           2158          83.00       356.15
   74.49        2951.25           2162          89.00       382.31
   74.52        2951.50           2165          88.00       377.95
   74.55        2951.75           2169          89.00       382.31
   74.58        2952.00           2172          79.00       338.71
   74.61        2952.25           2176          80.00       343.07
   74.65        2952.50           2179          88.00       377.95
   74.68        2952.75           2183          90.00       386.67
   74.71        2953.00           2186          84.00       360.51
   74.74        2953.25           2190          87.00       373.59
   74.77        2953.50           2193          94.00       404.10
   74.80        2953.75           2197          92.00       395.38
   74.83        2954.00           2200          92.00       395.38
   74.86        2954.25           2204          90.00       386.67
   74.89        2954.50           2208          89.00       382.31
   74.92        2954.75           2211          89.00       382.31
   74.95        2955.00           2215          88.00       377.95
   74.98        2955.25           2218         117.00       504.37
   75.01        2955.50           2222          93.00       399.74
   75.04        2955.75           2225          95.00       408.46
   75.07        2956.00           2229          84.00       360.51
   75.10        2956.25           2232          96.00       412.82
   75.13        2956.50           2236          89.00       382.31
   75.17        2956.75           2239          88.00       377.95
   75.20        2957.00           2243          93.00       399.74
   75.23        2957.25           2246          89.00       382.31
   75.26        2957.50           2250          97.00       417.18
   75.29        2957.75           2254         107.00       460.77
   75.32        2958.00           2257         103.00       443.34
   75.35        2958.25           2261         117.00       504.37
   75.38        2958.50           2264         109.00       469.49
   75.41        2958.75           2268         122.00       526.16
   75.44        2959.00           2271         108.00       465.13
   75.47        2959.25           2275         127.00       547.96
   75.50        2959.50           2278         115.00       495.65
   75.53        2959.75           2282         113.00       486.93
   75.56        2960.00           2285         129.00       556.68
   75.59        2960.25           2289         149.00       643.87
   75.62        2960.50           2293         139.00       600.27
   75.65        2960.75           2296         147.00       635.15
   75.69        2961.00           2300         164.00       709.26
   75.72        2961.25           2303         316.00      1371.90
   75.75        2961.50           2307        1241.00      5405.09
   75.78        2961.75           2310        2337.00     10185.31
   75.81        2962.00           2314        3784.00     16498.79
   75.84        2962.25           2317        4976.00     21701.71
   75.87        2962.50           2321        6712.00     29282.41
   75.90        2962.75           2324        8074.00     35232.68
   75.93        2963.00           2328       10138.00     44254.42
   75.96        2963.25           2331       11639.00     50818.78
   75.99        2963.50           2335       13502.00     58970.35
   76.02        2963.75           2339       15215.00     66469.58
   76.05        2964.00           2342       16771.00     73284.81
   76.08        2964.25           2346       18719.00     81821.46
   76.11        2964.50           2349       20086.00     87814.98
   76.14        2964.75           2353       21966.00     96061.71
   76.17        2965.00           2356       23413.00    102412.20
   76.21        2965.25           2360       25307.00    110728.60
   76.24        2965.50           2363       26301.00    115095.10
   76.27        2965.75           2367       28174.00    123326.40
   76.30        2966.00           2370       29317.00    128351.90
   76.33        2966.25           2374       30962.00    135587.40
   76.36        2966.50           2378       31886.00    139653.30
   76.39        2966.75           2381       31798.00    139266.00
   76.42        2967.00           2385       32051.00    140379.40
   76.45        2967.25           2388       32177.00    140934.00
   76.48        2967.50           2392       32002.00    140163.80
   76.51        2967.75           2395       31602.00    138403.50
   76.54        2968.00           2399       30640.00    134170.80
   76.57        2968.25           2402       29345.00    128475.00
   76.60        2968.50           2406       27822.00    121779.10
   76.63        2968.75           2409       26325.00    115200.60
   76.66        2969.00           2413       24605.00    107645.70
   76.69        2969.25           2417       22905.00    100182.40
   76.73        2969.50           2420       21631.00     94591.87
   76.76        2969.75           2424       19830.00     86692.38
   76.79        2970.00           2427       18290.00     79941.05
   76.82        2970.25           2431       16317.00     71295.99
   76.85        2970.50           2434       15030.00     65659.50
   76.88        2970.75           2438       13035.00     56926.56
   76.91        2971.00           2441       11799.00     51518.68
   76.94        2971.25           2445       10027.00     43769.10
   76.97        2971.50           2449        8262.00     36054.20
   77.00        2971.75           2452        6857.00     29915.77
   77.03        2972.00           2456        5020.00     21893.80
   77.06        2972.25           2459        3736.00     16289.32
   77.09        2972.50           2463        1982.00      8636.80
   77.12        2972.75           2466         986.00      4293.13
   77.15        2973.00           2470         328.00      1424.22
   77.18        2973.25           2473         168.00       726.70
   77.21        2973.50           2477         142.00       613.35
   77.25        2973.75           2481         122.00       526.16
   77.28        2974.00           2484         166.00       717.98
   77.31        2974.25           2488         148.00       639.51
   77.34        2974.50           2491         146.00       630.79
   77.37        2974.75           2495         133.00       574.12
   77.40        2975.00           2498         111.00       478.21
   77.43        2975.25           2502         133.00       574.12
   77.46        2975.50           2505         108.00       465.13
   77.49        2975.75           2509         135.00       582.84
   77.52        2976.00           2512         108.00       465.13
   77.55        2976.25           2516         109.00       469.49
   77.58        2976.50           2520         117.00       504.37
   77.61        2976.75           2523         101.00       434.62
   77.64        2977.00           2527         102.00       438.98
   77.67        2977.25           2530         113.00       486.93
   77.70        2977.50           2534          90.00       386.67
   77.73        2977.75           2537         113.00       486.93
   77.77        2978.00           2541         103.00       443.34
   77.80        2978.25           2544          95.00       408.46
   77.83        2978.50           2548          91.00       391.03
   77.86        2978.75           2552         116.00       500.01
   77.89        2979.00           2555          92.00       395.38
   77.92        2979.25           2559         100.00       430.26
   77.95        2979.50           2562          91.00       391.03
   77.98        2979.75           2566          92.00       395.38
   78.01        2980.00           2569          85.00       364.87
   78.04        2980.25           2573          97.00       417.18
   78.07        2980.50           2577          88.00       377.95
   78.10        2980.75           2580          85.00       364.87
   78.13        2981.00           2584          89.00       382.31
   78.16        2981.25           2587          93.00       399.74
   78.19        2981.50           2591          90.00       386.67
   78.22        2981.75           2594          85.00       364.87
   78.25        2982.00           2598          87.00       373.59
   78.28        2982.25           2601         105.00       452.06
   78.32        2982.50           2605          80.00       343.07
   78.35        2982.75           2609          85.00       364.87
   78.38        2983.00           2612          87.00       373.59
   78.41        2983.25           2616          86.00       369.23
   78.44        2983.50           2619          86.00       369.23
   78.47        2983.75           2623          85.00       364.87
   78.50        2984.00           2626          85.00       364.87
HS scan finished at 01:18:43
end
************************************************************
  HS Scan of (1) Internal mercury lamp
************************************************************
Integration time is 0.2294 seconds per sample
dh150518Reading 51.44 .94 3.8pr1000
************************************************************
Dead Time -------------------------  3.4E-08 
Number of Cycles Used -------------  4 
Starting Wavelength (Angstroms) ---  2950 
Final Wavelength (Angstoms) -------  2984 
Wavelength Increment (Angstroms) --  .25 
Filter Wheel #1 Position ---------- (1) Ground quartz diffuser (ND=2.32)
Filter Wheel #2 Position ---------- (1) Neutral Density 0.494



************************************************************
HS scan start time = 20:37:23
Dark Count =  5.8 


Time (GMT)  Wavelength (Ang)  Step Number  Raw Counts  Counts/Second

 1238.28        2950.00           2144          60.00       236.27
 1238.47        2950.25           2147          56.00       218.83
 1238.50        2950.50           2151          54.00       210.11
 1238.53        2950.75           2155          59.00       231.91
 1238.56        2951.00           2158          55.00       214.47
 1238.59        2951.25           2162          50.00       192.68
 1238.62        2951.50           2165          59.00       231.91
 1238.66        2951.75           2169          54.00       210.11
 1238.69        2952.00           2172          62.00       244.99
 1238.72        2952.25           2176          54.00       210.11
 1238.75        2952.50           2179          58.00       227.55
 1238.78        2952.75           2183          58.00       227.55
 1238.81        2953.00           2186          56.00       218.83
 1238.84        2953.25           2190          57.00       223.19
 1238.87        2953.50           2193          54.00       210.11
 1238.90        2953.75           2197          58.00       227.55
 1238.93        2954.00           2200          50.00       192.68
 1238.96        2954.25           2204          54.00       210.11
 1238.99        2954.50           2208          65.00       258.07
 1239.02        2954.75           2211          56.00       218.83
 1239.05        2955.00           2215          62.00       244.99
 1239.08        2955.25           2218          60.00       236.27
 1239.11        2955.50           2222          65.00       258.07
 1239.14        2955.75           2225          61.00       240.63
 1239.18        2956.00           2229          69.00       275.50
 1239.21        2956.25           2232          62.00       244.99
 1239.24        2956.50           2236          59.00       231.91
 1239.27        2956.75           2239          61.00       240.63
 1239.30        2957.00           2243          64.00       253.71
 1239.33        2957.25           2246          65.00       258.07
 1239.36        2957.50           2250          70.00       279.86
 1239.39        2957.75           2254          69.00       275.50
 1239.42        2958.00           2257          63.00       249.35
 1239.45        2958.25           2261          76.00       306.02
 1239.48        2958.50           2264          67.00       266.79
 1239.51        2958.75           2268          69.00       275.50
 1239.54        2959.00           2271          79.00       319.10
 1239.57        2959.25           2275          71.00       284.22
 1239.60        2959.50           2278          78.00       314.74
 1239.63        2959.75           2282          79.00       319.10
 1239.66        2960.00           2285          74.00       297.30
 1239.70        2960.25           2289          72.00       288.58
 1239.73        2960.50           2293          80.00       323.46
 1239.76        2960.75           2296          86.00       349.61
 1239.79        2961.00           2300         102.00       419.36
 1239.82        2961.25           2303         205.00       868.38
 1239.85        2961.50           2307         684.00      2956.71
 1239.88        2961.75           2310        1340.00      5817.19
 1239.91        2962.00           2314        2506.00     10902.91
 1239.94        2962.25           2317        3336.00     14524.17
 1239.97        2962.50           2321        4395.00     19145.85
 1240.00        2962.75           2324        5254.00     22895.76
 1240.03        2963.00           2328        6301.00     27467.67
 1240.06        2963.25           2331        7155.00     31197.86
 1240.09        2963.50           2335        8299.00     36196.22
 1240.12        2963.75           2339        9533.00     41589.72
 1240.15        2964.00           2342       10482.00     45738.90
 1240.18        2964.25           2346       11698.00     51057.17
 1240.21        2964.50           2349       12526.00     54679.60
 1240.25        2964.75           2353       13661.00     59646.57
 1240.28        2965.00           2356       14689.00     64146.73
 1240.31        2965.25           2360       15729.00     68700.83
 1240.34        2965.50           2363       16470.00     71946.49
 1240.37        2965.75           2367       17891.00     78172.62
 1240.40        2966.00           2370       18522.00     80938.21
 1240.43        2966.25           2374       19514.00     85287.06
 1240.46        2966.50           2378       19850.00     86760.35
 1240.49        2966.75           2381       19998.00     87409.34
 1240.52        2967.00           2385       20036.00     87575.98
 1240.55        2967.25           2388       19943.00     87168.16
 1240.58        2967.50           2392       20266.00     88584.62
 1240.61        2967.75           2395       19884.00     86909.44
 1240.64        2968.00           2399       19126.00     83585.95
 1240.67        2968.25           2402       18243.00     79715.33
 1240.70        2968.50           2406       17380.00     75933.36
 1240.74        2968.75           2409       16548.00     72288.18
 1240.77        2969.00           2413       15520.00     67785.52
 1240.80        2969.25           2417       14362.00     62715.10
 1240.83        2969.50           2420       13350.00     58285.40
 1240.86        2969.75           2424       12157.00     53065.15
 1240.89        2970.00           2427       11214.00     48940.14
 1240.92        2970.25           2431       10031.00     43766.91
 1240.95        2970.50           2434        9069.00     39561.46
 1240.98        2970.75           2438        7842.00     34199.29
 1241.01        2971.00           2441        7023.00     30621.23
 1241.04        2971.25           2445        5806.00     25305.99
 1241.07        2971.50           2449        4703.00     20490.30
 1241.10        2971.75           2452        3794.00     16522.79
 1241.13        2972.00           2456        2730.00     11880.13
 1241.16        2972.25           2459        1967.00      8551.74
 1241.19        2972.50           2463        1058.00      4587.46
 1241.22        2972.75           2466         500.00      2154.47
 1241.26        2973.00           2470         148.00       619.89
 1241.29        2973.25           2473         102.00       419.36
 1241.32        2973.50           2477          90.00       367.05
 1241.35        2973.75           2481          85.00       345.25
 1241.38        2974.00           2484          87.00       353.97
 1241.41        2974.25           2488          78.00       314.74
 1241.44        2974.50           2491          74.00       297.30
 1241.47        2974.75           2495          75.00       301.66
 1241.50        2975.00           2498          84.00       340.89
 1241.53        2975.25           2502          70.00       279.86
 1241.56        2975.50           2505          83.00       336.53
 1241.59        2975.75           2509          77.00       310.38
 1241.62        2976.00           2512          77.00       310.38
 1241.65        2976.25           2516          77.00       310.38
 1241.68        2976.50           2520          66.00       262.43
 1241.72        2976.75           2523          72.00       288.58
 1241.75        2977.00           2527          77.00       310.38
 1241.78        2977.25           2530          65.00       258.07
 1241.81        2977.50           2534          68.00       271.14
 1241.84        2977.75           2537          69.00       275.50
 1241.87        2978.00           2541          62.00       244.99
 1241.90        2978.25           2544          68.00       271.14
 1241.93        2978.50           2548          69.00       275.50
 1241.97        2978.75           2552          61.00       240.63
 1242.00        2979.00           2555          65.00       258.07
 1242.03        2979.25           2559          64.00       253.71
 1242.06        2979.50           2562          55.00       214.47
 1242.09        2979.75           2566          63.00       249.35
 1242.12        2980.00           2569          61.00       240.63
 1242.15        2980.25           2573          62.00       244.99
 1242.18        2980.50           2577          56.00       218.83
 1242.21        2980.75           2580          63.00       249.35
 1242.24        2981.00           2584          63.00       249.35
 1242.27        2981.25           2587          56.00       218.83
 1242.30        2981.50           2591          54.00       210.11
 1242.34        2981.75           2594          57.00       223.19
 1242.37        2982.00           2598          54.00       210.11
 1242.40        2982.25           2601          62.00       244.99
 1242.43        2982.50           2605          54.00       210.11
 1242.46        2982.75           2609          55.00       214.47
 1242.49        2983.00           2612          54.00       210.11
 1242.52        2983.25           2616          52.00       201.40
 1242.55        2983.50           2619          58.00       227.55
 1242.58        2983.75           2623          51.00       197.04
 1242.63        2984.00           2626          52.00       201.40
HS scan finished at 20:42:51
end
