************************************************************
  HS Scan of 
************************************************************
Integration time is 0.2294 seconds per sample
dh160517Reading 51.44 .94 3.6pr1000
************************************************************
Dead Time -------------------------  3.4E-08 
Number of Cycles Used -------------  4 
Starting Wavelength (Angstroms) ---  2950 
Final Wavelength (Angstoms) -------  2984 
Wavelength Increment (Angstroms) --  .25 
Filter Wheel #1 Position ---------- (1) Ground quartz diffuser (ND=2.32)
Filter Wheel #2 Position ---------- (1) Neutral Density 0.494



************************************************************
HS scan start time = 02:32:00
Dark Count =  3.3 


Time (GMT)  Wavelength (Ang)  Step Number  Raw Counts  Counts/Second

  152.90        2950.00           2144         421.00      1820.95
  153.10        2950.25           2147         410.00      1772.99
  153.13        2950.50           2151         428.00      1851.47
  153.16        2950.75           2155         422.00      1825.31
  153.19        2951.00           2158         414.00      1790.43
  153.22        2951.25           2162         412.00      1781.71
  153.25        2951.50           2165         428.00      1851.47
  153.28        2951.75           2169         433.00      1873.27
  153.31        2952.00           2172         424.00      1834.03
  153.34        2952.25           2176         431.00      1864.55
  153.37        2952.50           2179         456.00      1973.54
  153.40        2952.75           2183         460.00      1990.98
  153.43        2953.00           2186         428.00      1851.47
  153.46        2953.25           2190         449.00      1943.02
  153.49        2953.50           2193         442.00      1912.50
  153.52        2953.75           2197         456.00      1973.54
  153.55        2954.00           2200         454.00      1964.82
  153.58        2954.25           2204         462.00      1999.70
  153.62        2954.50           2208         486.00      2104.34
  153.65        2954.75           2211         473.00      2047.66
  153.68        2955.00           2215         450.00      1947.38
  153.71        2955.25           2218         478.00      2069.46
  153.74        2955.50           2222         480.00      2078.18
  153.77        2955.75           2225         493.00      2134.85
  153.80        2956.00           2229         488.00      2113.06
  153.83        2956.25           2232         518.00      2243.85
  153.86        2956.50           2236         533.00      2309.25
  153.89        2956.75           2239         498.00      2156.65
  153.92        2957.00           2243         511.00      2213.33
  153.95        2957.25           2246         567.00      2457.49
  153.98        2957.50           2250         531.00      2300.53
  154.01        2957.75           2254         536.00      2322.33
  154.04        2958.00           2257         527.00      2283.09
  154.07        2958.25           2261         550.00      2383.37
  154.10        2958.50           2264         540.00      2339.77
  154.14        2958.75           2268         540.00      2339.77
  154.17        2959.00           2271         541.00      2344.13
  154.20        2959.25           2275         572.00      2479.29
  154.23        2959.50           2278         567.00      2457.49
  154.26        2959.75           2282         594.00      2575.20
  154.29        2960.00           2285         586.00      2540.32
  154.32        2960.25           2289         638.00      2767.04
  154.35        2960.50           2293         648.00      2810.64
  154.38        2960.75           2296         673.00      2919.64
  154.41        2961.00           2300         917.00      3983.54
  154.44        2961.25           2303        1972.00      8584.46
  154.47        2961.50           2307        6700.00     29221.26
  154.50        2961.75           2310       12183.00     53189.83
  154.53        2962.00           2314       21257.00     92942.32
  154.56        2962.25           2317       28675.00    125520.20
  154.59        2962.50           2321       38052.00    166805.10
  154.62        2962.75           2324       45238.00    198522.50
  154.66        2963.00           2328       53841.00    236584.60
  154.69        2963.25           2331       60724.00    267108.40
  154.72        2963.50           2335       71241.00    313871.00
  154.75        2963.75           2339       82360.00    363473.40
  154.78        2964.00           2342       89247.00    394281.30
  154.81        2964.25           2346       98838.00    437293.60
  154.84        2964.50           2349      105836.00    468757.50
  154.87        2964.75           2353      114592.00    508221.30
  154.90        2965.00           2356      121276.00    538418.50
  154.93        2965.25           2360      130851.00    581786.10
  154.96        2965.50           2363      138551.00    616755.40
  154.99        2965.75           2367      147189.00    656084.80
  155.02        2966.00           2370      153299.00    683968.40
  155.05        2966.25           2374      160477.00    716794.50
  155.08        2966.50           2378      163963.00    732763.30
  155.11        2966.75           2381      164352.00    734546.40
  155.14        2967.00           2385      164992.00    737480.40
  155.18        2967.25           2388      164999.00    737512.40
  155.21        2967.50           2392      165036.00    737682.10
  155.24        2967.75           2395      163282.00    729642.40
  155.27        2968.00           2399      158713.00    708720.60
  155.30        2968.25           2402      152561.00    680597.60
  155.33        2968.50           2406      144698.00    644732.20
  155.36        2968.75           2409      137817.00    613418.40
  155.39        2969.00           2413      128510.00    571171.20
  155.42        2969.25           2417      119017.00    528205.70
  155.45        2969.50           2420      112967.00    500889.20
  155.48        2969.75           2424      103392.00    457761.30
  155.51        2970.00           2427       96367.00    426200.00
  155.54        2970.25           2431       86625.00    382544.50
  155.57        2970.50           2434       80063.00    353212.50
  155.60        2970.75           2438       68654.00    302354.30
  155.63        2971.00           2441       60462.00    265945.30
  155.66        2971.25           2445       50482.00    221711.70
  155.69        2971.50           2449       40680.00    178396.60
  155.73        2971.75           2452       34023.00    149052.10
  155.76        2972.00           2456       25287.00    110632.00
  155.79        2972.25           2459       18080.00     79011.88
  155.82        2972.50           2463        9379.00     40927.45
  155.85        2972.75           2466        4361.00     19008.36
  155.88        2973.00           2470        1314.00      5714.71
  155.91        2973.25           2473         783.00      3399.26
  155.94        2973.50           2477         689.00      2989.41
  155.97        2973.75           2481         691.00      2998.13
  156.00        2974.00           2484         640.00      2775.76
  156.03        2974.25           2488         636.00      2758.32
  156.06        2974.50           2491         607.00      2631.88
  156.09        2974.75           2495         614.00      2662.40
  156.12        2975.00           2498         589.00      2553.40
  156.15        2975.25           2502         570.00      2470.57
  156.18        2975.50           2505         574.00      2488.01
  156.21        2975.75           2509         567.00      2457.49
  156.25        2976.00           2512         557.00      2413.89
  156.28        2976.25           2516         565.00      2448.77
  156.31        2976.50           2520         570.00      2470.57
  156.34        2976.75           2523         534.00      2313.61
  156.37        2977.00           2527         537.00      2326.69
  156.40        2977.25           2530         553.00      2396.45
  156.43        2977.50           2534         519.00      2248.21
  156.46        2977.75           2537         491.00      2126.13
  156.49        2978.00           2541         541.00      2344.13
  156.52        2978.25           2544         529.00      2291.81
  156.55        2978.50           2548         539.00      2335.41
  156.58        2978.75           2552         485.00      2099.98
  156.61        2979.00           2555         486.00      2104.34
  156.64        2979.25           2559         495.00      2143.57
  156.68        2979.50           2562         480.00      2078.18
  156.71        2979.75           2566         505.00      2187.17
  156.74        2980.00           2569         494.00      2139.21
  156.77        2980.25           2573         454.00      1964.82
  156.80        2980.50           2577         511.00      2213.33
  156.83        2980.75           2580         468.00      2025.86
  156.86        2981.00           2584         477.00      2065.10
  156.89        2981.25           2587         457.00      1977.90
  156.92        2981.50           2591         446.00      1929.94
  156.96        2981.75           2594         473.00      2047.66
  156.99        2982.00           2598         450.00      1947.38
  157.02        2982.25           2601         461.00      1995.34
  157.05        2982.50           2605         463.00      2004.06
  157.08        2982.75           2609         428.00      1851.47
  157.11        2983.00           2612         460.00      1990.98
  157.14        2983.25           2616         430.00      1860.19
  157.17        2983.50           2619         449.00      1943.02
  157.20        2983.75           2623         428.00      1851.47
  157.23        2984.00           2626         444.00      1921.22
HS scan finished at 02:37:27
end
************************************************************
  HS Scan of 
************************************************************
Integration time is 0.2294 seconds per sample
dh160517Reading 51.44 .94 3.56pr1000
************************************************************
Dead Time -------------------------  3.4E-08 
Number of Cycles Used -------------  4 
Starting Wavelength (Angstroms) ---  2950 
Final Wavelength (Angstoms) -------  2984 
Wavelength Increment (Angstroms) --  .25 
Filter Wheel #1 Position ---------- (1) Ground quartz diffuser (ND=2.32)
Filter Wheel #2 Position ---------- (1) Neutral Density 0.494



************************************************************
HS scan start time = 20:37:24
Dark Count =  3.3 


Time (GMT)  Wavelength (Ang)  Step Number  Raw Counts  Counts/Second

 1238.30        2950.00           2144         371.00      1602.96
 1238.49        2950.25           2147         373.00      1611.68
 1238.52        2950.50           2151         381.00      1646.56
 1238.55        2950.75           2155         371.00      1602.96
 1238.58        2951.00           2158         394.00      1703.24
 1238.62        2951.25           2162         373.00      1611.68
 1238.65        2951.50           2165         384.00      1659.64
 1238.68        2951.75           2169         395.00      1707.60
 1238.71        2952.00           2172         404.00      1746.83
 1238.74        2952.25           2176         392.00      1694.52
 1238.77        2952.50           2179         418.00      1807.87
 1238.80        2952.75           2183         397.00      1716.32
 1238.83        2953.00           2186         419.00      1812.23
 1238.86        2953.25           2190         396.00      1711.96
 1238.89        2953.50           2193         409.00      1768.63
 1238.92        2953.75           2197         423.00      1829.67
 1238.95        2954.00           2200         414.00      1790.43
 1238.98        2954.25           2204         405.00      1751.19
 1239.01        2954.50           2208         423.00      1829.67
 1239.04        2954.75           2211         439.00      1899.43
 1239.07        2955.00           2215         419.00      1812.23
 1239.11        2955.25           2218         433.00      1873.27
 1239.14        2955.50           2222         447.00      1934.30
 1239.17        2955.75           2225         429.00      1855.83
 1239.20        2956.00           2229         435.00      1881.99
 1239.23        2956.25           2232         440.00      1903.79
 1239.26        2956.50           2236         433.00      1873.27
 1239.29        2956.75           2239         427.00      1847.11
 1239.32        2957.00           2243         462.00      1999.70
 1239.35        2957.25           2246         454.00      1964.82
 1239.38        2957.50           2250         456.00      1973.54
 1239.41        2957.75           2254         478.00      2069.46
 1239.44        2958.00           2257         468.00      2025.86
 1239.47        2958.25           2261         487.00      2108.70
 1239.50        2958.50           2264         475.00      2056.38
 1239.53        2958.75           2268         466.00      2017.14
 1239.56        2959.00           2271         479.00      2073.82
 1239.59        2959.25           2275         523.00      2265.65
 1239.62        2959.50           2278         476.00      2060.74
 1239.66        2959.75           2282         530.00      2296.17
 1239.69        2960.00           2285         511.00      2213.33
 1239.72        2960.25           2289         551.00      2387.73
 1239.75        2960.50           2293         549.00      2379.01
 1239.78        2960.75           2296         587.00      2544.68
 1239.81        2961.00           2300         613.00      2658.04
 1239.84        2961.25           2303         809.00      3512.63
 1239.87        2961.50           2307        2626.00     11437.32
 1239.90        2961.75           2310        6201.00     27041.85
 1239.93        2962.00           2314       11828.00     51636.79
 1239.96        2962.25           2317       16904.00     73858.74
 1239.99        2962.50           2321       25438.00    111295.20
 1240.02        2962.75           2324       31595.00    138363.90
 1240.05        2963.00           2328       39902.00    174964.10
 1240.08        2963.25           2331       45938.00    201615.80
 1240.11        2963.50           2335       53982.00    237209.30
 1240.14        2963.75           2339       61809.00    271925.80
 1240.18        2964.00           2342       67585.00    297598.10
 1240.21        2964.25           2346       76559.00    337573.80
 1240.24        2964.50           2349       82754.00    365234.10
 1240.27        2964.75           2353       91125.00    402693.50
 1240.30        2965.00           2356       97280.00    430297.90
 1240.33        2965.25           2360      105703.00    468158.80
 1240.36        2965.50           2363      111433.00    493971.20
 1240.39        2965.75           2367      118912.00    527731.10
 1240.42        2966.00           2370      124013.00    550801.90
 1240.45        2966.25           2374      131459.00    584544.30
 1240.48        2966.50           2378      137128.00    610286.60
 1240.51        2966.75           2381      137837.00    613509.20
 1240.54        2967.00           2385      139014.00    618860.80
 1240.57        2967.25           2388      138424.00    616178.00
 1240.60        2967.50           2392      138999.00    618792.60
 1240.63        2967.75           2395      138244.00    615359.60
 1240.66        2968.00           2399      134882.00    600082.30
 1240.70        2968.25           2402      130017.00    578003.60
 1240.73        2968.50           2406      123061.00    546493.40
 1240.76        2968.75           2409      117419.00    520985.60
 1240.79        2969.00           2413      110576.00    490107.70
 1240.82        2969.25           2417      102989.00    455948.80
 1240.85        2969.50           2420       96904.00    428610.10
 1240.88        2969.75           2424       89379.00    394872.40
 1240.91        2970.00           2427       82853.00    365676.60
 1240.94        2970.25           2431       74134.00    326760.60
 1240.97        2970.50           2434       67811.00    298603.50
 1241.00        2970.75           2438       59205.00    260366.70
 1241.03        2971.00           2441       52980.00    232770.90
 1241.06        2971.25           2445       45131.00    198049.70
 1241.09        2971.50           2449       37064.00    162449.70
 1241.12        2971.75           2452       30777.00    134764.70
 1241.15        2972.00           2456       22773.00     99594.31
 1241.18        2972.25           2459       17289.00     75545.58
 1241.21        2972.50           2463        9907.00     43235.70
 1241.25        2972.75           2466        5314.00     23168.64
 1241.28        2973.00           2470        1724.00      7502.79
 1241.31        2973.25           2473         834.00      3621.63
 1241.34        2973.50           2477         619.00      2684.20
 1241.37        2973.75           2481         577.00      2501.08
 1241.40        2974.00           2484         575.00      2492.36
 1241.43        2974.25           2488         573.00      2483.64
 1241.46        2974.50           2491         536.00      2322.33
 1241.49        2974.75           2495         541.00      2344.13
 1241.52        2975.00           2498         533.00      2309.25
 1241.55        2975.25           2502         533.00      2309.25
 1241.58        2975.50           2505         505.00      2187.17
 1241.61        2975.75           2509         500.00      2165.37
 1241.64        2976.00           2512         481.00      2082.54
 1241.67        2976.25           2516         466.00      2017.14
 1241.70        2976.50           2520         473.00      2047.66
 1241.74        2976.75           2523         481.00      2082.54
 1241.77        2977.00           2527         475.00      2056.38
 1241.80        2977.25           2530         468.00      2025.86
 1241.83        2977.50           2534         449.00      1943.02
 1241.86        2977.75           2537         465.00      2012.78
 1241.89        2978.00           2541         450.00      1947.38
 1241.92        2978.25           2544         432.00      1868.91
 1241.95        2978.50           2548         463.00      2004.06
 1241.98        2978.75           2552         436.00      1886.35
 1242.01        2979.00           2555         411.00      1777.35
 1242.04        2979.25           2559         434.00      1877.63
 1242.07        2979.50           2562         419.00      1812.23
 1242.10        2979.75           2566         431.00      1864.55
 1242.13        2980.00           2569         433.00      1873.27
 1242.16        2980.25           2573         443.00      1916.86
 1242.19        2980.50           2577         422.00      1825.31
 1242.22        2980.75           2580         421.00      1820.95
 1242.26        2981.00           2584         397.00      1716.32
 1242.29        2981.25           2587         410.00      1772.99
 1242.32        2981.50           2591         430.00      1860.19
 1242.35        2981.75           2594         401.00      1733.76
 1242.38        2982.00           2598         419.00      1812.23
 1242.41        2982.25           2601         393.00      1698.88
 1242.44        2982.50           2605         391.00      1690.16
 1242.47        2982.75           2609         396.00      1711.96
 1242.50        2983.00           2612         412.00      1781.71
 1242.53        2983.25           2616         387.00      1672.72
 1242.56        2983.50           2619         404.00      1746.83
 1242.59        2983.75           2623         391.00      1690.16
 1242.62        2984.00           2626         381.00      1646.56
HS scan finished at 20:42:51
end
