************************************************************
  HS Scan of (1) Internal mercury lamp
************************************************************
Integration time is 0.2294 seconds per sample
dh170518Reading 51.44 .94 2.98pr1000
************************************************************
Dead Time -------------------------  3.4E-08 
Number of Cycles Used -------------  4 
Starting Wavelength (Angstroms) ---  2950 
Final Wavelength (Angstoms) -------  2984 
Wavelength Increment (Angstroms) --  .25 
Filter Wheel #1 Position ---------- (1) Ground quartz diffuser (ND=2.32)
Filter Wheel #2 Position ---------- (1) Neutral Density 0.494



************************************************************
HS scan start time = 01:26:31
Dark Count =  .6 


Time (GMT)  Wavelength (Ang)  Step Number  Raw Counts  Counts/Second

   87.41        2950.00           2144          95.00       411.51
   87.60        2950.25           2147          95.00       411.51
   87.63        2950.50           2151          83.00       359.20
   87.66        2950.75           2155          82.00       354.84
   87.69        2951.00           2158          85.00       367.92
   87.73        2951.25           2162         112.00       485.62
   87.76        2951.50           2165          87.00       376.64
   87.79        2951.75           2169          80.00       346.12
   87.82        2952.00           2172          98.00       424.59
   87.85        2952.25           2176          89.00       385.36
   87.88        2952.50           2179          93.00       402.80
   87.91        2952.75           2183          90.00       389.72
   87.94        2953.00           2186         108.00       468.19
   87.97        2953.25           2190         100.00       433.31
   88.00        2953.50           2193          88.00       381.00
   88.03        2953.75           2197          94.00       407.15
   88.06        2954.00           2200          87.00       376.64
   88.09        2954.25           2204          86.00       372.28
   88.12        2954.50           2208          89.00       385.36
   88.15        2954.75           2211          87.00       376.64
   88.18        2955.00           2215          99.00       428.95
   88.21        2955.25           2218         111.00       481.26
   88.25        2955.50           2222         114.00       494.34
   88.28        2955.75           2225          99.00       428.95
   88.31        2956.00           2229         105.00       455.11
   88.34        2956.25           2232          98.00       424.59
   88.37        2956.50           2236         121.00       524.86
   88.40        2956.75           2239         107.00       463.83
   88.43        2957.00           2243         102.00       442.03
   88.46        2957.25           2246         104.00       450.75
   88.49        2957.50           2250         107.00       463.83
   88.52        2957.75           2254         124.00       537.93
   88.55        2958.00           2257          99.00       428.95
   88.58        2958.25           2261         102.00       442.03
   88.61        2958.50           2264         117.00       507.42
   88.64        2958.75           2268         143.00       620.76
   88.67        2959.00           2271         108.00       468.19
   88.70        2959.25           2275         124.00       537.93
   88.73        2959.50           2278         112.00       485.62
   88.77        2959.75           2282         140.00       607.68
   88.80        2960.00           2285         120.00       520.50
   88.83        2960.25           2289         132.00       572.81
   88.86        2960.50           2293         139.00       603.33
   88.89        2960.75           2296         125.00       542.29
   88.92        2961.00           2300         169.00       734.11
   88.95        2961.25           2303         371.00      1614.74
   88.98        2961.50           2307        1210.00      5272.96
   89.01        2961.75           2310        2159.00      9411.90
   89.04        2962.00           2314        3812.00     16624.04
   89.07        2962.25           2317        5245.00     22879.17
   89.10        2962.50           2321        7067.00     30836.15
   89.13        2962.75           2324        8419.00     36743.35
   89.16        2963.00           2328       10272.00     44843.39
   89.19        2963.25           2331       11510.00     50257.56
   89.22        2963.50           2335       13441.00     58706.44
   89.25        2963.75           2339       15449.00     67497.35
   89.29        2964.00           2342       16804.00     73432.46
   89.32        2964.25           2346       18963.00     82894.16
   89.35        2964.50           2349       20467.00     89488.96
   89.38        2964.75           2353       22208.00     97126.68
   89.41        2965.00           2356       23620.00    103324.00
   89.44        2965.25           2360       25290.00    110657.10
   89.47        2965.50           2363       26624.00    116517.40
   89.50        2965.75           2367       28221.00    123536.10
   89.53        2966.00           2370       29677.00    129938.10
   89.56        2966.25           2374       31342.00    137262.50
   89.59        2966.50           2378       31821.00    139370.30
   89.62        2966.75           2381       32051.00    140382.50
   89.65        2967.00           2385       32019.00    140241.70
   89.68        2967.25           2388       32096.00    140580.50
   89.71        2967.50           2392       32148.00    140809.40
   89.74        2967.75           2395       31847.00    139484.70
   89.77        2968.00           2399       30607.00    134028.70
   89.81        2968.25           2402       29204.00    127858.00
   89.84        2968.50           2406       28013.00    122621.80
   89.87        2968.75           2409       26939.00    117901.50
   89.90        2969.00           2413       24937.00    109106.70
   89.93        2969.25           2417       23103.00    101054.60
   89.96        2969.50           2420       21600.00     94458.94
   89.99        2969.75           2424       19519.00     85331.78
   90.02        2970.00           2427       17958.00     78489.05
   90.05        2970.25           2431       16174.00     70672.68
   90.08        2970.50           2434       14793.00     64624.85
   90.11        2970.75           2438       13160.00     57476.65
   90.14        2971.00           2441       11835.00     51679.23
   90.17        2971.25           2445        9940.00     43391.79
   90.20        2971.50           2449        7877.00     34374.94
   90.23        2971.75           2452        6460.00     28184.80
   90.26        2972.00           2456        4711.00     20547.92
   90.29        2972.25           2459        3521.00     15354.13
   90.33        2972.50           2463        1953.00      8513.36
   90.36        2972.75           2466         938.00      4086.88
   90.39        2973.00           2470         293.00      1274.68
   90.42        2973.25           2473         163.00       707.95
   90.45        2973.50           2477         147.00       638.20
   90.48        2973.75           2481         140.00       607.68
   90.51        2974.00           2484         168.00       729.75
   90.54        2974.25           2488         129.00       559.73
   90.57        2974.50           2491         149.00       646.92
   90.60        2974.75           2495         111.00       481.26
   90.63        2975.00           2498         120.00       520.50
   90.66        2975.25           2502         132.00       572.81
   90.69        2975.50           2505         117.00       507.42
   90.72        2975.75           2509         154.00       668.72
   90.75        2976.00           2512         111.00       481.26
   90.78        2976.25           2516         133.00       577.17
   90.81        2976.50           2520         106.00       459.47
   90.85        2976.75           2523         101.00       437.67
   90.88        2977.00           2527         117.00       507.42
   90.91        2977.25           2530         106.00       459.47
   90.94        2977.50           2534         135.00       585.89
   90.97        2977.75           2537         102.00       442.03
   91.00        2978.00           2541         101.00       437.67
   91.03        2978.25           2544          93.00       402.80
   91.06        2978.50           2548          94.00       407.15
   91.09        2978.75           2552         103.00       446.39
   91.12        2979.00           2555          94.00       407.15
   91.15        2979.25           2559         101.00       437.67
   91.18        2979.50           2562         119.00       516.14
   91.21        2979.75           2566         118.00       511.78
   91.24        2980.00           2569          95.00       411.51
   91.27        2980.25           2573          91.00       394.08
   91.30        2980.50           2577          95.00       411.51
   91.33        2980.75           2580          94.00       407.15
   91.37        2981.00           2584          95.00       411.51
   91.40        2981.25           2587         102.00       442.03
   91.43        2981.50           2591          82.00       354.84
   91.46        2981.75           2594          85.00       367.92
   91.49        2982.00           2598          88.00       381.00
   91.52        2982.25           2601          94.00       407.15
   91.55        2982.50           2605          81.00       350.48
   91.58        2982.75           2609          83.00       359.20
   91.61        2983.00           2612          96.00       415.87
   91.64        2983.25           2616          90.00       389.72
   91.67        2983.50           2619          90.00       389.72
   91.70        2983.75           2623          90.00       389.72
   91.73        2984.00           2626          91.00       394.08
HS scan finished at 01:31:57
end
************************************************************
  HS Scan of (1) Internal mercury lamp
************************************************************
Integration time is 0.2294 seconds per sample
dh170518Reading 51.44 .94 3.41pr1000
************************************************************
Dead Time -------------------------  3.4E-08 
Number of Cycles Used -------------  4 
Starting Wavelength (Angstroms) ---  2950 
Final Wavelength (Angstoms) -------  2984 
Wavelength Increment (Angstroms) --  .25 
Filter Wheel #1 Position ---------- (1) Ground quartz diffuser (ND=2.32)
Filter Wheel #2 Position ---------- (1) Neutral Density 0.494



************************************************************
HS scan start time = 20:39:52
Dark Count =  2.4 


Time (GMT)  Wavelength (Ang)  Step Number  Raw Counts  Counts/Second

 1240.77        2950.00           2144          61.00       255.45
 1240.97        2950.25           2147          56.00       233.65
 1241.00        2950.50           2151          64.00       268.53
 1241.03        2950.75           2155          55.00       229.30
 1241.06        2951.00           2158          66.00       277.25
 1241.09        2951.25           2162          63.00       264.17
 1241.12        2951.50           2165          62.00       259.81
 1241.15        2951.75           2169          64.00       268.53
 1241.18        2952.00           2172          69.00       290.33
 1241.21        2952.25           2176          62.00       259.81
 1241.24        2952.50           2179          64.00       268.53
 1241.27        2952.75           2183          69.00       290.33
 1241.30        2953.00           2186          56.00       233.65
 1241.33        2953.25           2190          61.00       255.45
 1241.36        2953.50           2193          59.00       246.73
 1241.39        2953.75           2197          61.00       255.45
 1241.42        2954.00           2200          63.00       264.17
 1241.45        2954.25           2204          66.00       277.25
 1241.49        2954.50           2208          62.00       259.81
 1241.52        2954.75           2211          62.00       259.81
 1241.55        2955.00           2215          66.00       277.25
 1241.58        2955.25           2218          67.00       281.61
 1241.61        2955.50           2222          71.00       299.04
 1241.64        2955.75           2225          77.00       325.20
 1241.67        2956.00           2229          67.00       281.61
 1241.70        2956.25           2232          76.00       320.84
 1241.73        2956.50           2236          69.00       290.33
 1241.76        2956.75           2239          70.00       294.68
 1241.79        2957.00           2243          69.00       290.33
 1241.82        2957.25           2246          63.00       264.17
 1241.85        2957.50           2250          76.00       320.84
 1241.88        2957.75           2254          80.00       338.28
 1241.91        2958.00           2257          79.00       333.92
 1241.94        2958.25           2261          75.00       316.48
 1241.97        2958.50           2264          82.00       347.00
 1242.01        2958.75           2268          75.00       316.48
 1242.04        2959.00           2271          73.00       307.76
 1242.07        2959.25           2275          82.00       347.00
 1242.10        2959.50           2278          85.00       360.07
 1242.13        2959.75           2282          87.00       368.79
 1242.16        2960.00           2285          85.00       360.07
 1242.19        2960.25           2289          84.00       355.71
 1242.22        2960.50           2293          90.00       381.87
 1242.25        2960.75           2296          95.00       403.67
 1242.28        2961.00           2300         149.00       639.07
 1242.31        2961.25           2303         302.00      1306.07
 1242.34        2961.50           2307        1009.00      4388.62
 1242.37        2961.75           2310        1776.00      7733.51
 1242.40        2962.00           2314        2850.00     12418.50
 1242.43        2962.25           2317        3858.00     16816.94
 1242.46        2962.50           2321        5034.00     21950.12
 1242.49        2962.75           2324        5901.00     25735.68
 1242.53        2963.00           2328        7129.00     31099.13
 1242.56        2963.25           2331        8222.00     35874.60
 1242.59        2963.50           2335        9727.00     42452.69
 1242.62        2963.75           2339       11131.00     48591.99
 1242.65        2964.00           2342       12017.00     52467.54
 1242.68        2964.25           2346       13390.00     58475.34
 1242.71        2964.50           2349       14137.00     61745.01
 1242.74        2964.75           2353       15561.00     67979.96
 1242.77        2965.00           2356       16712.00     73021.53
 1242.80        2965.25           2360       17953.00     78459.24
 1242.83        2965.50           2363       18853.00     82404.06
 1242.86        2965.75           2367       20057.00     87682.99
 1242.89        2966.00           2370       20935.00     91533.77
 1242.92        2966.25           2374       21794.00     95302.19
 1242.95        2966.50           2378       22630.00     98970.66
 1242.98        2966.75           2381       22866.00    100006.40
 1243.01        2967.00           2385       22827.00     99835.27
 1243.05        2967.25           2388       22982.00    100515.60
 1243.08        2967.50           2392       22857.00     99966.92
 1243.11        2967.75           2395       22785.00     99650.92
 1243.14        2968.00           2399       22173.00     96965.18
 1243.17        2968.25           2402       21460.00     93836.83
 1243.20        2968.50           2406       20065.00     87718.07
 1243.23        2968.75           2409       19084.00     83416.71
 1243.26        2969.00           2413       17628.00     77034.98
 1243.29        2969.25           2417       16272.00     71094.05
 1243.32        2969.50           2420       15272.00     66714.36
 1243.35        2969.75           2424       13876.00     60602.51
 1243.38        2970.00           2427       12888.00     56278.47
 1243.41        2970.25           2431       11494.00     50179.70
 1243.44        2970.50           2434       10391.00     45355.85
 1243.47        2970.75           2438        9115.00     39777.39
 1243.50        2971.00           2441        8055.00     35144.85
 1243.53        2971.25           2445        6781.00     29579.00
 1243.57        2971.50           2449        5531.00     24120.03
 1243.60        2971.75           2452        4606.00     20081.71
 1243.63        2972.00           2456        3232.00     14085.21
 1243.66        2972.25           2459        2195.00      9561.09
 1243.69        2972.50           2463        1049.00      4563.04
 1243.72        2972.75           2466         514.00      2230.33
 1243.75        2973.00           2470         180.00       774.21
 1243.78        2973.25           2473         150.00       643.43
 1243.81        2973.50           2477          96.00       408.03
 1243.84        2973.75           2481          94.00       399.31
 1243.87        2974.00           2484          84.00       355.71
 1243.90        2974.25           2488         107.00       455.98
 1243.93        2974.50           2491          84.00       355.71
 1243.96        2974.75           2495          78.00       329.56
 1243.99        2975.00           2498          93.00       394.95
 1244.02        2975.25           2502          78.00       329.56
 1244.05        2975.50           2505          90.00       381.87
 1244.09        2975.75           2509          80.00       338.28
 1244.12        2976.00           2512          74.00       312.12
 1244.15        2976.25           2516          74.00       312.12
 1244.18        2976.50           2520          76.00       320.84
 1244.21        2976.75           2523          82.00       347.00
 1244.24        2977.00           2527          78.00       329.56
 1244.27        2977.25           2530          72.00       303.40
 1244.30        2977.50           2534          73.00       307.76
 1244.33        2977.75           2537          75.00       316.48
 1244.36        2978.00           2541          75.00       316.48
 1244.39        2978.25           2544          69.00       290.33
 1244.42        2978.50           2548          69.00       290.33
 1244.45        2978.75           2552          64.00       268.53
 1244.48        2979.00           2555          66.00       277.25
 1244.51        2979.25           2559          60.00       251.09
 1244.54        2979.50           2562          71.00       299.04
 1244.57        2979.75           2566          70.00       294.68
 1244.61        2980.00           2569          66.00       277.25
 1244.64        2980.25           2573          68.00       285.97
 1244.67        2980.50           2577          63.00       264.17
 1244.70        2980.75           2580          66.00       277.25
 1244.73        2981.00           2584          66.00       277.25
 1244.76        2981.25           2587          61.00       255.45
 1244.79        2981.50           2591          57.00       238.01
 1244.82        2981.75           2594          65.00       272.89
 1244.85        2982.00           2598          66.00       277.25
 1244.88        2982.25           2601          65.00       272.89
 1244.91        2982.50           2605          65.00       272.89
 1244.94        2982.75           2609          68.00       285.97
 1244.97        2983.00           2612          61.00       255.45
 1245.00        2983.25           2616          61.00       255.45
 1245.03        2983.50           2619          62.00       259.81
 1245.06        2983.75           2623          56.00       233.65
 1245.09        2984.00           2626          60.00       251.09
HS scan finished at 20:45:19
end
