************************************************************
  HS Scan of (1) Internal mercury lamp
************************************************************
Integration time is 0.2294 seconds per sample
dh160519Reading 51.44 .94 3.17pr1000
************************************************************
Dead Time -------------------------  3.4E-08 
Number of Cycles Used -------------  4 
Starting Wavelength (Angstroms) ---  2950 
Final Wavelength (Angstoms) -------  2984 
Wavelength Increment (Angstroms) --  .25 
Filter Wheel #1 Position ---------- (1) Ground quartz diffuser (ND=2.32)
Filter Wheel #2 Position ---------- (1) Neutral Density 0.494



************************************************************
HS scan start time = 02:33:17
Dark Count =  .8 


Time (GMT)  Wavelength (Ang)  Step Number  Raw Counts  Counts/Second

  154.18        2950.00           2144        1350.00      5882.61
  154.37        2950.25           2147        1363.00      5939.30
  154.41        2950.50           2151        1364.00      5943.66
  154.44        2950.75           2155        1390.00      6057.05
  154.47        2951.00           2158        1379.00      6009.07
  154.50        2951.25           2162        1384.00      6030.88
  154.53        2951.50           2165        1400.00      6100.66
  154.56        2951.75           2169        1414.00      6161.71
  154.59        2952.00           2172        1395.00      6078.85
  154.62        2952.25           2176        1401.00      6105.02
  154.65        2952.50           2179        1401.00      6105.02
  154.68        2952.75           2183        1426.00      6214.04
  154.71        2953.00           2186        1443.00      6288.18
  154.74        2953.25           2190        1425.00      6209.68
  154.77        2953.50           2193        1440.00      6275.10
  154.80        2953.75           2197        1451.00      6323.07
  154.83        2954.00           2200        1463.00      6375.40
  154.86        2954.25           2204        1492.00      6501.87
  154.89        2954.50           2208        1528.00      6658.87
  154.93        2954.75           2211        1475.00      6427.73
  154.96        2955.00           2215        1492.00      6501.87
  154.99        2955.25           2218        1479.00      6445.18
  155.02        2955.50           2222        1521.00      6628.35
  155.05        2955.75           2225        1500.00      6536.76
  155.08        2956.00           2229        1524.00      6641.43
  155.11        2956.25           2232        1560.00      6798.43
  155.14        2956.50           2236        1556.00      6780.99
  155.17        2956.75           2239        1574.00      6859.49
  155.20        2957.00           2243        1623.00      7073.19
  155.23        2957.25           2246        1624.00      7077.55
  155.26        2957.50           2250        1657.00      7221.48
  155.29        2957.75           2254        1649.00      7186.59
  155.32        2958.00           2257        1646.00      7173.50
  155.35        2958.25           2261        1686.00      7347.96
  155.38        2958.50           2264        1715.00      7474.44
  155.41        2958.75           2268        1764.00      7688.15
  155.45        2959.00           2271        1739.00      7579.11
  155.48        2959.25           2275        1774.00      7731.76
  155.51        2959.50           2278        1799.00      7840.80
  155.54        2959.75           2282        1837.00      8006.54
  155.57        2960.00           2285        1923.00      8381.64
  155.60        2960.25           2289        1937.00      8442.70
  155.63        2960.50           2293        2015.00      8782.92
  155.66        2960.75           2296        2032.00      8857.07
  155.69        2961.00           2300        2976.00     12975.21
  155.72        2961.25           2303        7362.00     32124.00
  155.75        2961.50           2307       23267.00    101773.50
  155.78        2961.75           2310       38671.00    169545.60
  155.81        2962.00           2314       62588.00    275396.70
  155.84        2962.25           2317       83112.00    366845.30
  155.87        2962.50           2321      111114.00    492544.20
  155.90        2962.75           2324      132589.00    589683.20
  155.93        2963.00           2328      158788.00    709075.30
  155.97        2963.25           2331      180223.00    807492.20
  156.00        2963.50           2335      208452.00    938130.90
  156.03        2963.75           2339      237995.00   1076126.00
  156.06        2964.00           2342      259853.00   1179080.00
  156.09        2964.25           2346      288194.00   1313675.00
  156.12        2964.50           2349      308457.00   1410686.00
  156.15        2964.75           2353      335238.00   1539917.00
  156.18        2965.00           2356      355834.00   1640102.00
  156.21        2965.25           2360      381494.00   1765911.00
  156.24        2965.50           2363      399261.00   1853677.00
  156.27        2965.75           2367      422266.00   1968128.00
  156.30        2966.00           2370      440107.00   2057527.00
  156.33        2966.25           2374      458077.00   2148146.00
  156.36        2966.50           2378      464794.00   2182168.00
  156.39        2966.75           2381      465718.00   2186855.00
  156.42        2967.00           2385      466768.00   2192183.00
  156.45        2967.25           2388      465626.00   2186388.00
  156.48        2967.50           2392      465476.00   2185628.00
  156.52        2967.75           2395      458169.00   2148612.00
  156.55        2968.00           2399      439484.00   2054396.00
  156.58        2968.25           2402      424821.00   1980896.00
  156.61        2968.50           2406      401721.00   1865872.00
  156.64        2968.75           2409      381285.00   1764882.00
  156.67        2969.00           2413      354694.00   1634538.00
  156.70        2969.25           2417      329287.00   1511099.00
  156.73        2969.50           2420      309312.00   1414794.00
  156.76        2969.75           2424      284324.00   1295222.00
  156.79        2970.00           2427      262541.00   1191792.00
  156.82        2970.25           2431      235450.00   1064186.00
  156.85        2970.50           2434      215213.00    969595.40
  156.88        2970.75           2438      186306.00    835543.80
  156.91        2971.00           2441      166382.00    743866.20
  156.94        2971.25           2445      139108.00    619299.60
  156.97        2971.50           2449      107770.00    477476.20
  157.00        2971.75           2452       86010.00    379804.20
  157.04        2972.00           2456       60276.00    265130.80
  157.07        2972.25           2459       43083.00    189014.70
  157.10        2972.50           2463       20085.00     87812.79
  157.13        2972.75           2466        8661.00     37800.08
  157.16        2973.00           2470        3130.00     13647.13
  157.19        2973.25           2473        2350.00     10244.20
  157.22        2973.50           2477        2103.00      9166.76
  157.25        2973.75           2481        2051.00      8939.94
  157.28        2974.00           2484        2032.00      8857.07
  157.31        2974.25           2488        2035.00      8870.15
  157.34        2974.50           2491        1972.00      8595.36
  157.37        2974.75           2495        1908.00      8316.21
  157.40        2975.00           2498        1883.00      8207.17
  157.43        2975.25           2502        1826.00      7958.56
  157.46        2975.50           2505        1848.00      8054.52
  157.49        2975.75           2509        1767.00      7701.23
  157.52        2976.00           2512        1759.00      7666.34
  157.56        2976.25           2516        1748.00      7618.36
  157.59        2976.50           2520        1766.00      7696.87
  157.62        2976.75           2523        1716.00      7478.80
  157.65        2977.00           2527        1687.00      7352.32
  157.68        2977.25           2530        1662.00      7243.28
  157.71        2977.50           2534        1646.00      7173.50
  157.74        2977.75           2537        1677.00      7308.70
  157.77        2978.00           2541        1625.00      7081.91
  157.80        2978.25           2544        1624.00      7077.55
  157.83        2978.50           2548        1628.00      7095.00
  157.86        2978.75           2552        1582.00      6894.38
  157.89        2979.00           2555        1588.00      6920.55
  157.92        2979.25           2559        1536.00      6693.76
  157.95        2979.50           2562        1584.00      6903.10
  157.98        2979.75           2566        1552.00      6763.54
  158.01        2980.00           2569        1514.00      6597.82
  158.04        2980.25           2573        1550.00      6754.82
  158.08        2980.50           2577        1517.00      6610.90
  158.11        2980.75           2580        1552.00      6763.54
  158.14        2981.00           2584        1492.00      6501.87
  158.17        2981.25           2587        1492.00      6501.87
  158.20        2981.50           2591        1477.00      6436.46
  158.23        2981.75           2594        1486.00      6475.71
  158.26        2982.00           2598        1461.00      6366.68
  158.29        2982.25           2601        1470.00      6405.93
  158.32        2982.50           2605        1471.00      6410.29
  158.35        2982.75           2609        1485.00      6471.35
  158.38        2983.00           2612        1497.00      6523.68
  158.41        2983.25           2616        1449.00      6314.35
  158.44        2983.50           2619        1447.00      6305.62
  158.47        2983.75           2623        1445.00      6296.90
  158.50        2984.00           2626        1441.00      6279.46
HS scan finished at 02:38:44
end
************************************************************
  HS Scan of (1) Internal mercury lamp
************************************************************
Integration time is 0.2294 seconds per sample
dh160519Reading 51.44 .94 3.31pr1000
************************************************************
Dead Time -------------------------  3.4E-08 
Number of Cycles Used -------------  4 
Starting Wavelength (Angstroms) ---  2950 
Final Wavelength (Angstoms) -------  2984 
Wavelength Increment (Angstroms) --  .25 
Filter Wheel #1 Position ---------- (1) Ground quartz diffuser (ND=2.32)
Filter Wheel #2 Position ---------- (1) Neutral Density 0.494



************************************************************
HS scan start time = 20:38:46
Dark Count =  1.4 


Time (GMT)  Wavelength (Ang)  Step Number  Raw Counts  Counts/Second

 1239.67        2950.00           2144        1201.00      5230.22
 1239.86        2950.25           2147        1252.00      5452.62
 1239.89        2950.50           2151        1191.00      5186.62
 1239.92        2950.75           2155        1231.00      5361.05
 1239.95        2951.00           2158        1243.00      5413.38
 1239.98        2951.25           2162        1223.00      5326.16
 1240.01        2951.50           2165        1218.00      5304.36
 1240.04        2951.75           2169        1300.00      5661.94
 1240.07        2952.00           2172        1257.00      5474.43
 1240.11        2952.25           2176        1264.00      5504.95
 1240.14        2952.50           2179        1267.00      5518.04
 1240.17        2952.75           2183        1240.00      5400.29
 1240.20        2953.00           2186        1253.00      5456.99
 1240.23        2953.25           2190        1296.00      5644.50
 1240.26        2953.50           2193        1277.00      5561.64
 1240.29        2953.75           2197        1285.00      5596.53
 1240.32        2954.00           2200        1296.00      5644.50
 1240.35        2954.25           2204        1308.00      5696.83
 1240.38        2954.50           2208        1294.00      5635.78
 1240.41        2954.75           2211        1308.00      5696.83
 1240.44        2955.00           2215        1317.00      5736.08
 1240.47        2955.25           2218        1329.00      5788.41
 1240.50        2955.50           2222        1319.00      5744.80
 1240.53        2955.75           2225        1366.00      5949.76
 1240.56        2956.00           2229        1356.00      5906.16
 1240.59        2956.25           2232        1364.00      5941.04
 1240.63        2956.50           2236        1388.00      6045.71
 1240.66        2956.75           2239        1399.00      6093.68
 1240.69        2957.00           2243        1429.00      6224.51
 1240.72        2957.25           2246        1388.00      6045.71
 1240.75        2957.50           2250        1426.00      6211.43
 1240.78        2957.75           2254        1439.00      6268.12
 1240.81        2958.00           2257        1459.00      6355.34
 1240.85        2958.25           2261        1457.00      6346.62
 1240.88        2958.50           2264        1462.00      6368.42
 1240.91        2958.75           2268        1487.00      6477.45
 1240.94        2959.00           2271        1515.00      6599.56
 1240.97        2959.25           2275        1524.00      6638.81
 1241.00        2959.50           2278        1520.00      6621.37
 1241.03        2959.75           2282        1522.00      6630.09
 1241.06        2960.00           2285        1584.00      6900.49
 1241.09        2960.25           2289        1612.00      7022.60
 1241.12        2960.50           2293        1669.00      7271.20
 1241.15        2960.75           2296        1670.00      7275.56
 1241.18        2961.00           2300        1821.00      7934.14
 1241.21        2961.25           2303        2337.00     10184.87
 1241.24        2961.50           2307        6693.00     29198.98
 1241.27        2961.75           2310       15829.00     69158.06
 1241.30        2962.00           2314       33017.00    144631.00
 1241.34        2962.25           2317       46631.00    204687.20
 1241.37        2962.50           2321       67271.00    296209.70
 1241.40        2962.75           2324       84617.00    373571.00
 1241.43        2963.00           2328      107548.00    476473.70
 1241.46        2963.25           2331      124998.00    555269.60
 1241.49        2963.50           2335      149500.00    666633.60
 1241.52        2963.75           2339      168830.00    755096.30
 1241.55        2964.00           2342      184113.00    825421.80
 1241.58        2964.25           2346      207813.00    935157.80
 1241.61        2964.50           2349      226111.00   1020454.00
 1241.64        2964.75           2353      247224.00   1119503.00
 1241.67        2965.00           2356      263841.00   1197941.00
 1241.70        2965.25           2360      283519.00   1291383.00
 1241.73        2965.50           2363      296604.00   1353857.00
 1241.76        2965.75           2367      316640.00   1450046.00
 1241.79        2966.00           2370      333331.00   1530673.00
 1241.82        2966.25           2374      353709.00   1629730.00
 1241.86        2966.50           2378      367319.00   1696272.00
 1241.89        2966.75           2381      370999.00   1714318.00
 1241.92        2967.00           2385      373035.00   1724311.00
 1241.95        2967.25           2388      373731.00   1727729.00
 1241.98        2967.50           2392      373506.00   1726625.00
 1242.01        2967.75           2395      372932.00   1723806.00
 1242.04        2968.00           2399      369993.00   1709382.00
 1242.07        2968.25           2402      360905.00   1664874.00
 1242.10        2968.50           2406      343245.00   1578779.00
 1242.13        2968.75           2409      327844.00   1504118.00
 1242.16        2969.00           2413      308544.00   1411101.00
 1242.19        2969.25           2417      289611.00   1320435.00
 1242.22        2969.50           2420      274477.00   1248372.00
 1242.25        2969.75           2424      252665.00   1145140.00
 1242.28        2970.00           2427      236316.00   1068245.00
 1242.31        2970.25           2431      213070.00    959612.00
 1242.34        2970.50           2434      196289.00    881695.40
 1242.38        2970.75           2438      173336.00    775795.50
 1242.41        2971.00           2441      156831.00    700120.20
 1242.44        2971.25           2445      134048.00    596303.50
 1242.47        2971.50           2449      109069.00    483324.90
 1242.50        2971.75           2452       90265.00    398849.20
 1242.53        2972.00           2456       67482.00    297148.30
 1242.56        2972.25           2459       51971.00    228311.20
 1242.59        2972.50           2463       31633.00    138539.40
 1242.63        2972.75           2466       17797.00     77779.96
 1242.66        2973.00           2470        6322.00     27578.60
 1242.69        2973.25           2473        3099.00     13509.26
 1242.72        2973.50           2477        1882.00      8200.19
 1242.75        2973.75           2481        1777.00      7742.23
 1242.78        2974.00           2484        1702.00      7415.12
 1242.81        2974.25           2488        1617.00      7044.41
 1242.84        2974.50           2491        1637.00      7131.63
 1242.87        2974.75           2495        1590.00      6926.65
 1242.90        2975.00           2498        1582.00      6891.76
 1242.93        2975.25           2502        1561.00      6800.18
 1242.96        2975.50           2505        1549.00      6747.84
 1242.99        2975.75           2509        1508.00      6569.04
 1243.02        2976.00           2512        1503.00      6547.23
 1243.05        2976.25           2516        1503.00      6547.23
 1243.09        2976.50           2520        1477.00      6433.84
 1243.12        2976.75           2523        1435.00      6250.67
 1243.15        2977.00           2527        1445.00      6294.28
 1243.18        2977.25           2530        1424.00      6202.70
 1243.21        2977.50           2534        1375.00      5989.01
 1243.24        2977.75           2537        1406.00      6124.20
 1243.27        2978.00           2541        1360.00      5923.60
 1243.30        2978.25           2544        1351.00      5884.35
 1243.33        2978.50           2548        1321.00      5753.52
 1243.36        2978.75           2552        1327.00      5779.69
 1243.39        2979.00           2555        1280.00      5574.73
 1243.42        2979.25           2559        1281.00      5579.09
 1243.45        2979.50           2562        1290.00      5618.34
 1243.48        2979.75           2566        1308.00      5696.83
 1243.51        2980.00           2569        1282.00      5583.45
 1243.54        2980.25           2573        1294.00      5635.78
 1243.57        2980.50           2577        1249.00      5439.54
 1243.61        2980.75           2580        1242.00      5409.02
 1243.64        2981.00           2584        1222.00      5321.80
 1243.67        2981.25           2587        1248.00      5435.18
 1243.70        2981.50           2591        1219.00      5308.72
 1243.73        2981.75           2594        1245.00      5422.10
 1243.76        2982.00           2598        1226.00      5339.24
 1243.79        2982.25           2601        1230.00      5356.69
 1243.82        2982.50           2605        1221.00      5317.44
 1243.85        2982.75           2609        1166.00      5077.60
 1243.88        2983.00           2612        1204.00      5243.31
 1243.91        2983.25           2616        1192.00      5190.98
 1243.94        2983.50           2619        1172.00      5103.76
 1243.97        2983.75           2623        1171.00      5099.40
 1244.00        2984.00           2626        1175.00      5116.84
HS scan finished at 20:44:14
end
