************************************************************
  HS Scan of 
************************************************************
Integration time is 0.2294 seconds per sample
dh170517Reading 51.44 .94 3.49pr1000
************************************************************
Dead Time -------------------------  3.4E-08 
Number of Cycles Used -------------  4 
Starting Wavelength (Angstroms) ---  2950 
Final Wavelength (Angstoms) -------  2984 
Wavelength Increment (Angstroms) --  .25 
Filter Wheel #1 Position ---------- (1) Ground quartz diffuser (ND=2.32)
Filter Wheel #2 Position ---------- (1) Neutral Density 0.494



************************************************************
HS scan start time = 01:26:19
Dark Count =  2.1 


Time (GMT)  Wavelength (Ang)  Step Number  Raw Counts  Counts/Second

   87.22        2950.00           2144         350.00      1516.64
   87.41        2950.25           2147         345.00      1494.84
   87.44        2950.50           2151         343.00      1486.13
   87.48        2950.75           2155         375.00      1625.63
   87.51        2951.00           2158         365.00      1582.04
   87.54        2951.25           2162         372.00      1612.56
   87.57        2951.50           2165         364.00      1577.68
   87.60        2951.75           2169         344.00      1490.49
   87.63        2952.00           2172         361.00      1564.60
   87.66        2952.25           2176         336.00      1455.61
   87.69        2952.50           2179         395.00      1712.83
   87.72        2952.75           2183         380.00      1647.43
   87.75        2953.00           2186         369.00      1599.48
   87.78        2953.25           2190         380.00      1647.43
   87.81        2953.50           2193         367.00      1590.76
   87.84        2953.75           2197         388.00      1682.31
   87.87        2954.00           2200         370.00      1603.84
   87.90        2954.25           2204         358.00      1551.52
   87.93        2954.50           2208         390.00      1691.03
   87.96        2954.75           2211         385.00      1669.23
   88.00        2955.00           2215         412.00      1786.94
   88.03        2955.25           2218         387.00      1677.95
   88.06        2955.50           2222         409.00      1773.86
   88.09        2955.75           2225         376.00      1629.99
   88.12        2956.00           2229         427.00      1852.34
   88.15        2956.25           2232         407.00      1765.15
   88.18        2956.50           2236         399.00      1730.27
   88.21        2956.75           2239         410.00      1778.22
   88.24        2957.00           2243         419.00      1817.46
   88.27        2957.25           2246         435.00      1887.22
   88.30        2957.50           2250         421.00      1826.18
   88.33        2957.75           2254         431.00      1869.78
   88.36        2958.00           2257         434.00      1882.86
   88.39        2958.25           2261         453.00      1965.69
   88.42        2958.50           2264         445.00      1930.82
   88.45        2958.75           2268         439.00      1904.66
   88.48        2959.00           2271         441.00      1913.38
   88.52        2959.25           2275         461.00      2000.57
   88.55        2959.50           2278         485.00      2105.21
   88.58        2959.75           2282         484.00      2100.85
   88.61        2960.00           2285         473.00      2052.89
   88.64        2960.25           2289         519.00      2253.44
   88.67        2960.50           2293         516.00      2240.36
   88.70        2960.75           2296         520.00      2257.80
   88.73        2961.00           2300         557.00      2419.12
   88.76        2961.25           2303         794.00      3452.45
   88.79        2961.50           2307        2809.00     12240.93
   88.82        2961.75           2310        6467.00     28208.82
   88.85        2962.00           2314       13012.00     56822.40
   88.88        2962.25           2317       18577.00     81195.52
   88.91        2962.50           2321       25362.00    110966.70
   88.94        2962.75           2324       31657.00    138642.00
   88.97        2963.00           2328       40630.00    178181.20
   89.00        2963.25           2331       47024.00    206421.40
   89.04        2963.50           2335       55134.00    242319.10
   89.07        2963.75           2339       62660.00    275710.70
   89.10        2964.00           2342       68913.00    303512.20
   89.13        2964.25           2346       77324.00    340992.00
   89.16        2964.50           2349       83104.00    366803.80
   89.19        2964.75           2353       89756.00    396566.20
   89.22        2965.00           2356       95065.00    420363.30
   89.25        2965.25           2360      102785.00    455036.80
   89.28        2965.50           2363      108725.00    481771.90
   89.31        2965.75           2367      116597.00    517278.30
   89.34        2966.00           2370      121402.00    538993.70
   89.37        2966.25           2374      127085.00    564718.90
   89.40        2966.50           2378      131039.00    582644.30
   89.43        2966.75           2381      131437.00    584450.00
   89.46        2967.00           2385      131836.00    586260.30
   89.49        2967.25           2388      132485.00    589205.30
   89.52        2967.50           2392      131948.00    586768.40
   89.56        2967.75           2395      131302.00    583837.50
   89.59        2968.00           2399      127436.00    566309.40
   89.62        2968.25           2402      123213.00    547186.60
   89.65        2968.50           2406      116189.00    515436.00
   89.68        2968.75           2409      110335.00    489026.80
   89.71        2969.00           2413      102858.00    455365.10
   89.74        2969.25           2417       95325.00    421529.70
   89.77        2969.50           2420       90247.00    398765.40
   89.80        2969.75           2424       82162.00    362594.00
   89.83        2970.00           2427       76555.00    337561.30
   89.86        2970.25           2431       69270.00    305101.10
   89.89        2970.50           2434       63234.00    278260.50
   89.92        2970.75           2438       54726.00    240511.10
   89.95        2971.00           2441       48062.00    211011.10
   89.98        2971.25           2445       40137.00    176006.10
   90.01        2971.50           2449       33207.00    145464.40
   90.04        2971.75           2452       28275.00    123766.90
   90.08        2972.00           2456       20710.00     90548.18
   90.11        2972.25           2459       14924.00     65191.86
   90.14        2972.50           2463        8098.00     35334.06
   90.17        2972.75           2466        4082.00     17795.86
   90.20        2973.00           2470        1294.00      5632.73
   90.23        2973.25           2473         698.00      3033.88
   90.26        2973.50           2477         551.00      2392.96
   90.29        2973.75           2481         562.00      2440.92
   90.32        2974.00           2484         558.00      2423.48
   90.35        2974.25           2488         514.00      2231.64
   90.38        2974.50           2491         565.00      2454.00
   90.41        2974.75           2495         506.00      2196.76
   90.44        2975.00           2498         472.00      2048.53
   90.47        2975.25           2502         485.00      2105.21
   90.50        2975.50           2505         482.00      2092.13
   90.53        2975.75           2509         483.00      2096.49
   90.56        2976.00           2512         497.00      2157.53
   90.59        2976.25           2516         445.00      1930.82
   90.63        2976.50           2520         463.00      2009.29
   90.66        2976.75           2523         427.00      1852.34
   90.69        2977.00           2527         440.00      1909.02
   90.72        2977.25           2530         419.00      1817.46
   90.75        2977.50           2534         441.00      1913.38
   90.78        2977.75           2537         433.00      1878.50
   90.81        2978.00           2541         415.00      1800.02
   90.84        2978.25           2544         418.00      1813.10
   90.87        2978.50           2548         432.00      1874.14
   90.90        2978.75           2552         396.00      1717.19
   90.93        2979.00           2555         386.00      1673.59
   90.96        2979.25           2559         424.00      1839.26
   90.99        2979.50           2562         386.00      1673.59
   91.02        2979.75           2566         410.00      1778.22
   91.05        2980.00           2569         386.00      1673.59
   91.08        2980.25           2573         406.00      1760.79
   91.11        2980.50           2577         417.00      1808.74
   91.15        2980.75           2580         408.00      1769.50
   91.18        2981.00           2584         399.00      1730.27
   91.21        2981.25           2587         402.00      1743.35
   91.24        2981.50           2591         376.00      1629.99
   91.27        2981.75           2594         378.00      1638.71
   91.30        2982.00           2598         375.00      1625.63
   91.33        2982.25           2601         384.00      1664.87
   91.36        2982.50           2605         398.00      1725.91
   91.39        2982.75           2609         387.00      1677.95
   91.42        2983.00           2612         359.00      1555.88
   91.45        2983.25           2616         360.00      1560.24
   91.48        2983.50           2619         362.00      1568.96
   91.51        2983.75           2623         363.00      1573.32
   91.54        2984.00           2626         365.00      1582.04
HS scan finished at 01:31:46
end
************************************************************
  HS Scan of 
************************************************************
Integration time is 0.2294 seconds per sample
dh170517Reading 51.44 .94 3.27pr1000
************************************************************
Dead Time -------------------------  3.4E-08 
Number of Cycles Used -------------  4 
Starting Wavelength (Angstroms) ---  2950 
Final Wavelength (Angstoms) -------  2984 
Wavelength Increment (Angstroms) --  .25 
Filter Wheel #1 Position ---------- (1) Ground quartz diffuser (ND=2.32)
Filter Wheel #2 Position ---------- (1) Neutral Density 0.494



************************************************************
HS scan start time = 20:37:23
Dark Count =  1.9 


Time (GMT)  Wavelength (Ang)  Step Number  Raw Counts  Counts/Second

 1238.29        2950.00           2144         433.00      1879.37
 1238.48        2950.25           2147         415.00      1800.90
 1238.51        2950.50           2151         435.00      1888.09
 1238.54        2950.75           2155         426.00      1848.85
 1238.57        2951.00           2158         417.00      1809.61
 1238.60        2951.25           2162         432.00      1875.01
 1238.63        2951.50           2165         423.00      1835.77
 1238.67        2951.75           2169         428.00      1857.57
 1238.70        2952.00           2172         436.00      1892.45
 1238.73        2952.25           2176         442.00      1918.61
 1238.76        2952.50           2179         444.00      1927.33
 1238.79        2952.75           2183         443.00      1922.97
 1238.82        2953.00           2186         437.00      1896.81
 1238.85        2953.25           2190         445.00      1931.69
 1238.88        2953.50           2193         450.00      1953.49
 1238.91        2953.75           2197         437.00      1896.81
 1238.94        2954.00           2200         436.00      1892.45
 1238.97        2954.25           2204         489.00      2123.52
 1239.00        2954.50           2208         460.00      1997.08
 1239.03        2954.75           2211         463.00      2010.16
 1239.06        2955.00           2215         458.00      1988.36
 1239.09        2955.25           2218         458.00      1988.36
 1239.12        2955.50           2222         462.00      2005.80
 1239.15        2955.75           2225         448.00      1944.77
 1239.19        2956.00           2229         483.00      2097.36
 1239.22        2956.25           2232         470.00      2040.68
 1239.25        2956.50           2236         486.00      2110.44
 1239.28        2956.75           2239         496.00      2154.04
 1239.31        2957.00           2243         500.00      2171.48
 1239.34        2957.25           2246         481.00      2088.64
 1239.37        2957.50           2250         488.00      2119.16
 1239.40        2957.75           2254         500.00      2171.48
 1239.43        2958.00           2257         512.00      2223.79
 1239.46        2958.25           2261         500.00      2171.48
 1239.49        2958.50           2264         542.00      2354.59
 1239.52        2958.75           2268         531.00      2306.63
 1239.55        2959.00           2271         508.00      2206.36
 1239.58        2959.25           2275         533.00      2315.35
 1239.61        2959.50           2278         556.00      2415.63
 1239.64        2959.75           2282         545.00      2367.67
 1239.67        2960.00           2285         582.00      2528.99
 1239.71        2960.25           2289         578.00      2511.55
 1239.74        2960.50           2293         587.00      2550.79
 1239.77        2960.75           2296         628.00      2729.55
 1239.80        2961.00           2300         665.00      2890.87
 1239.83        2961.25           2303         943.00      4103.01
 1239.86        2961.50           2307        3039.00     13245.28
 1239.89        2961.75           2310        6990.00     30494.11
 1239.92        2962.00           2314       13963.00     60985.53
 1239.95        2962.25           2317       19899.00     86992.32
 1239.98        2962.50           2321       28695.00    125614.20
 1240.01        2962.75           2324       34516.00    151229.40
 1240.04        2963.00           2328       41989.00    184179.90
 1240.07        2963.25           2331       48324.00    212170.70
 1240.10        2963.50           2335       56826.00    249820.50
 1240.13        2963.75           2339       65605.00    288798.80
 1240.16        2964.00           2342       72042.00    317444.90
 1240.19        2964.25           2346       80093.00    353352.70
 1240.23        2964.50           2349       86283.00    381020.60
 1240.26        2964.75           2353       94420.00    417470.90
 1240.29        2965.00           2356      100474.00    444649.50
 1240.32        2965.25           2360      108701.00    481664.70
 1240.35        2965.50           2363      114924.00    509726.00
 1240.38        2965.75           2367      122308.00    543092.80
 1240.41        2966.00           2370      128031.00    569006.50
 1240.44        2966.25           2374      134873.00    600047.80
 1240.47        2966.50           2378      139784.00    622369.10
 1240.50        2966.75           2381      141090.00    628311.00
 1240.53        2967.00           2385      140835.00    627150.60
 1240.56        2967.25           2388      141843.00    631738.00
 1240.59        2967.50           2392      141815.00    631610.50
 1240.62        2967.75           2395      141024.00    628010.60
 1240.65        2968.00           2399      137920.00    613892.90
 1240.68        2968.25           2402      133577.00    594162.90
 1240.72        2968.50           2406      127507.00    566632.00
 1240.75        2968.75           2409      121975.00    541586.30
 1240.78        2969.00           2413      113517.00    503376.70
 1240.81        2969.25           2417      105650.00    467926.60
 1240.84        2969.50           2420       99526.00    440390.30
 1240.87        2969.75           2424       91466.00    404227.80
 1240.90        2970.00           2427       85682.00    378332.00
 1240.93        2970.25           2431       78226.00    345018.00
 1240.96        2970.50           2434       71211.00    313743.60
 1240.99        2970.75           2438       62078.00    273126.60
 1241.02        2971.00           2441       55465.00    243787.00
 1241.05        2971.25           2445       47170.00    207067.80
 1241.08        2971.50           2449       39036.00    171150.40
 1241.11        2971.75           2452       33038.00    144721.30
 1241.14        2972.00           2456       25088.00    109764.20
 1241.17        2972.25           2459       19631.00     85817.16
 1241.20        2972.50           2463       11795.00     51498.55
 1241.23        2972.75           2466        6429.00     28043.73
 1241.27        2973.00           2470        1847.00      8045.36
 1241.30        2973.25           2473         866.00      3767.27
 1241.33        2973.50           2477         660.00      2869.07
 1241.36        2973.75           2481         644.00      2799.31
 1241.39        2974.00           2484         607.00      2637.99
 1241.42        2974.25           2488         613.00      2664.15
 1241.45        2974.50           2491         593.00      2576.95
 1241.48        2974.75           2495         597.00      2594.39
 1241.51        2975.00           2498         566.00      2459.23
 1241.54        2975.25           2502         565.00      2454.87
 1241.57        2975.50           2505         574.00      2494.11
 1241.61        2975.75           2509         546.00      2372.03
 1241.64        2976.00           2512         539.00      2341.51
 1241.67        2976.25           2516         563.00      2446.15
 1241.70        2976.50           2520         520.00      2258.67
 1241.73        2976.75           2523         508.00      2206.36
 1241.76        2977.00           2527         492.00      2136.60
 1241.79        2977.25           2530         501.00      2175.84
 1241.82        2977.50           2534         508.00      2206.36
 1241.85        2977.75           2537         519.00      2254.31
 1241.88        2978.00           2541         515.00      2236.87
 1241.91        2978.25           2544         490.00      2127.88
 1241.95        2978.50           2548         499.00      2167.12
 1241.98        2978.75           2552         487.00      2114.80
 1242.01        2979.00           2555         520.00      2258.67
 1242.04        2979.25           2559         478.00      2075.56
 1242.07        2979.50           2562         451.00      1957.85
 1242.10        2979.75           2566         480.00      2084.28
 1242.13        2980.00           2569         455.00      1975.29
 1242.16        2980.25           2573         445.00      1931.69
 1242.19        2980.50           2577         465.00      2018.88
 1242.22        2980.75           2580         451.00      1957.85
 1242.25        2981.00           2584         430.00      1866.29
 1242.28        2981.25           2587         449.00      1949.13
 1242.31        2981.50           2591         421.00      1827.05
 1242.34        2981.75           2594         433.00      1879.37
 1242.37        2982.00           2598         443.00      1922.97
 1242.40        2982.25           2601         431.00      1870.65
 1242.43        2982.50           2605         434.00      1883.73
 1242.46        2982.75           2609         445.00      1931.69
 1242.50        2983.00           2612         435.00      1888.09
 1242.53        2983.25           2616         410.00      1779.10
 1242.56        2983.50           2619         425.00      1844.49
 1242.59        2983.75           2623         427.00      1853.21
 1242.62        2984.00           2626         425.00      1844.49
HS scan finished at 20:42:50
end
