************************************************************
  HS Scan of 
************************************************************
Integration time is 0.2294 seconds per sample
dh150517Reading 51.44 .94 3.03pr1000
************************************************************
Dead Time -------------------------  3.4E-08 
Number of Cycles Used -------------  4 
Starting Wavelength (Angstroms) ---  2950 
Final Wavelength (Angstoms) -------  2984 
Wavelength Increment (Angstroms) --  .25 
Filter Wheel #1 Position ---------- (1) Ground quartz diffuser (ND=2.32)
Filter Wheel #2 Position ---------- (1) Neutral Density 0.494



************************************************************
HS scan start time = 01:12:19
Dark Count =  1 


Time (GMT)  Wavelength (Ang)  Step Number  Raw Counts  Counts/Second

   73.21        2950.00           2144         594.00      2585.23
   73.40        2950.25           2147         610.00      2654.99
   73.43        2950.50           2151         562.00      2445.71
   73.46        2950.75           2155         624.00      2716.03
   73.49        2951.00           2158         616.00      2681.15
   73.52        2951.25           2162         598.00      2602.67
   73.55        2951.50           2165         633.00      2755.27
   73.58        2951.75           2169         650.00      2829.39
   73.63        2952.00           2172         578.00      2515.47
   73.66        2952.25           2176         618.00      2689.87
   73.69        2952.50           2179         628.00      2733.47
   73.72        2952.75           2183         617.00      2685.51
   73.75        2953.00           2186         616.00      2681.15
   73.78        2953.25           2190         632.00      2750.91
   73.82        2953.50           2193         647.00      2816.31
   73.85        2953.75           2197         626.00      2724.75
   73.89        2954.00           2200         662.00      2881.71
   73.92        2954.25           2204         632.00      2750.91
   73.95        2954.50           2208         650.00      2829.39
   73.98        2954.75           2211         672.00      2925.31
   74.01        2955.00           2215         668.00      2907.87
   74.04        2955.25           2218         641.00      2790.15
   74.07        2955.50           2222         645.00      2807.59
   74.10        2955.75           2225         634.00      2759.63
   74.13        2956.00           2229         667.00      2903.51
   74.16        2956.25           2232         681.00      2964.55
   74.19        2956.50           2236         677.00      2947.11
   74.22        2956.75           2239         679.00      2955.83
   74.25        2957.00           2243         675.00      2938.39
   74.28        2957.25           2246         668.00      2907.87
   74.31        2957.50           2250         698.00      3038.68
   74.34        2957.75           2254         669.00      2912.23
   74.37        2958.00           2257         715.00      3112.80
   74.41        2958.25           2261         679.00      2955.83
   74.44        2958.50           2264         730.00      3178.20
   74.47        2958.75           2268         732.00      3186.92
   74.50        2959.00           2271         730.00      3178.20
   74.53        2959.25           2275         759.00      3304.64
   74.56        2959.50           2278         753.00      3278.48
   74.59        2959.75           2282         779.00      3391.85
   74.62        2960.00           2285         789.00      3435.45
   74.65        2960.25           2289         810.00      3527.01
   74.68        2960.50           2293         853.00      3714.51
   74.71        2960.75           2296         834.00      3631.66
   74.74        2961.00           2300         936.00      4076.42
   74.77        2961.25           2303        1301.00      5668.05
   74.80        2961.50           2307        3934.00     17154.73
   74.83        2961.75           2310        9594.00     41877.37
   74.86        2962.00           2314       19459.00     85066.96
   74.89        2962.25           2317       27518.00    120444.30
   74.93        2962.50           2321       37997.00    166572.80
   74.96        2962.75           2324       45795.00    200994.00
   74.99        2963.00           2328       56753.00    249500.80
   75.02        2963.25           2331       65562.00    288611.60
   75.05        2963.50           2335       76219.00    336067.50
   75.08        2963.75           2339       87991.00    388668.20
   75.11        2964.00           2342       96599.00    427251.50
   75.14        2964.25           2346      109022.00    483114.90
   75.17        2964.50           2349      117990.00    523575.40
   75.20        2964.75           2353      128616.00    571662.10
   75.23        2965.00           2356      135795.00    604239.90
   75.26        2965.25           2360      146129.00    651263.30
   75.29        2965.50           2363      153626.00    685472.80
   75.32        2965.75           2367      165025.00    737642.20
   75.35        2966.00           2370      173031.00    774395.40
   75.38        2966.25           2374      182926.00    819949.40
   75.41        2966.50           2378      188670.00    846459.10
   75.45        2966.75           2381      190204.00    853547.00
   75.48        2967.00           2385      190781.00    856213.90
   75.51        2967.25           2388      190575.00    855261.80
   75.54        2967.50           2392      190168.00    853380.60
   75.57        2967.75           2395      189725.00    851333.40
   75.60        2968.00           2399      183685.00    823449.60
   75.63        2968.25           2402      177996.00    797235.00
   75.66        2968.50           2406      167802.00    750380.00
   75.69        2968.75           2409      160660.00    717642.80
   75.72        2969.00           2413      150267.00    670135.40
   75.75        2969.25           2417      139191.00    619676.10
   75.78        2969.50           2420      130992.00    582436.10
   75.81        2969.75           2424      119525.00    530512.10
   75.84        2970.00           2427      110026.00    487639.00
   75.87        2970.25           2431       99193.00    438898.40
   75.90        2970.50           2434       91063.00    402426.00
   75.93        2970.75           2438       80050.00    353164.70
   75.97        2971.00           2441       70732.00    311614.50
   76.00        2971.25           2445       59249.00    260572.10
   76.03        2971.50           2449       48523.00    213054.80
   76.06        2971.75           2452       40197.00    176275.70
   76.09        2972.00           2456       29631.00    129734.00
   76.12        2972.25           2459       21614.00     94518.60
   76.15        2972.50           2463       11530.00     50343.30
   76.18        2972.75           2466        5137.00     22405.91
   76.21        2973.00           2470        1537.00      6697.25
   76.24        2973.25           2473        1012.00      4407.81
   76.27        2973.50           2477         925.00      4028.45
   76.30        2973.75           2481         835.00      3636.02
   76.33        2974.00           2484         836.00      3640.38
   76.36        2974.25           2488         808.00      3518.29
   76.39        2974.50           2491         779.00      3391.85
   76.42        2974.75           2495         781.00      3400.57
   76.45        2975.00           2498         771.00      3356.97
   76.49        2975.25           2502         746.00      3247.96
   76.52        2975.50           2505         734.00      3195.64
   76.55        2975.75           2509         718.00      3125.88
   76.58        2976.00           2512         702.00      3056.12
   76.61        2976.25           2516         708.00      3082.28
   76.64        2976.50           2520         723.00      3147.68
   76.67        2976.75           2523         686.00      2986.35
   76.70        2977.00           2527         678.00      2951.47
   76.73        2977.25           2530         664.00      2890.43
   76.76        2977.50           2534         674.00      2934.03
   76.79        2977.75           2537         675.00      2938.39
   76.82        2978.00           2541         670.00      2916.59
   76.85        2978.25           2544         675.00      2938.39
   76.88        2978.50           2548         646.00      2811.95
   76.91        2978.75           2552         653.00      2842.47
   76.94        2979.00           2555         668.00      2907.87
   76.97        2979.25           2559         634.00      2759.63
   77.01        2979.50           2562         601.00      2615.75
   77.04        2979.75           2566         621.00      2702.95
   77.07        2980.00           2569         607.00      2641.91
   77.10        2980.25           2573         596.00      2593.95
   77.13        2980.50           2577         615.00      2676.79
   77.16        2980.75           2580         599.00      2607.03
   77.19        2981.00           2584         596.00      2593.95
   77.22        2981.25           2587         576.00      2506.75
   77.25        2981.50           2591         617.00      2685.51
   77.28        2981.75           2594         577.00      2511.11
   77.31        2982.00           2598         581.00      2528.55
   77.34        2982.25           2601         579.00      2519.83
   77.37        2982.50           2605         596.00      2593.95
   77.40        2982.75           2609         585.00      2545.99
   77.43        2983.00           2612         581.00      2528.55
   77.46        2983.25           2616         550.00      2393.39
   77.49        2983.50           2619         591.00      2572.15
   77.53        2983.75           2623         573.00      2493.67
   77.56        2984.00           2626         572.00      2489.31
HS scan finished at 01:17:47
end
************************************************************
  HS Scan of 
************************************************************
Integration time is 0.2294 seconds per sample
dh150517Reading 51.44 .94 3.45pr1000
************************************************************
Dead Time -------------------------  3.4E-08 
Number of Cycles Used -------------  4 
Starting Wavelength (Angstroms) ---  2950 
Final Wavelength (Angstoms) -------  2984 
Wavelength Increment (Angstroms) --  .25 
Filter Wheel #1 Position ---------- (1) Ground quartz diffuser (ND=2.32)
Filter Wheel #2 Position ---------- (1) Neutral Density 0.494



************************************************************
HS scan start time = 20:37:20
Dark Count =  2.5 


Time (GMT)  Wavelength (Ang)  Step Number  Raw Counts  Counts/Second

 1238.23        2950.00           2144         456.00      1977.03
 1238.43        2950.25           2147         460.00      1994.47
 1238.46        2950.50           2151         471.00      2042.43
 1238.49        2950.75           2155         465.00      2016.27
 1238.52        2951.00           2158         468.00      2029.35
 1238.55        2951.25           2162         483.00      2094.74
 1238.58        2951.50           2165         466.00      2020.63
 1238.61        2951.75           2169         465.00      2016.27
 1238.64        2952.00           2172         476.00      2064.23
 1238.67        2952.25           2176         465.00      2016.27
 1238.70        2952.50           2179         491.00      2129.62
 1238.73        2952.75           2183         492.00      2133.98
 1238.76        2953.00           2186         486.00      2107.82
 1238.79        2953.25           2190         492.00      2133.98
 1238.82        2953.50           2193         507.00      2199.38
 1238.85        2953.75           2197         517.00      2242.98
 1238.88        2954.00           2200         505.00      2190.66
 1238.92        2954.25           2204         511.00      2216.82
 1238.95        2954.50           2208         543.00      2356.34
 1238.98        2954.75           2211         523.00      2269.14
 1239.01        2955.00           2215         513.00      2225.54
 1239.04        2955.25           2218         511.00      2216.82
 1239.07        2955.50           2222         503.00      2181.94
 1239.10        2955.75           2225         526.00      2282.22
 1239.13        2956.00           2229         518.00      2247.34
 1239.16        2956.25           2232         515.00      2234.26
 1239.19        2956.50           2236         522.00      2264.78
 1239.22        2956.75           2239         526.00      2282.22
 1239.25        2957.00           2243         525.00      2277.86
 1239.28        2957.25           2246         526.00      2282.22
 1239.31        2957.50           2250         552.00      2395.57
 1239.34        2957.75           2254         539.00      2338.90
 1239.37        2958.00           2257         571.00      2478.41
 1239.40        2958.25           2261         566.00      2456.61
 1239.44        2958.50           2264         563.00      2443.53
 1239.47        2958.75           2268         581.00      2522.01
 1239.50        2959.00           2271         581.00      2522.01
 1239.53        2959.25           2275         597.00      2591.77
 1239.56        2959.50           2278         611.00      2652.81
 1239.59        2959.75           2282         587.00      2548.17
 1239.62        2960.00           2285         627.00      2722.57
 1239.65        2960.25           2289         642.00      2787.97
 1239.68        2960.50           2293         643.00      2792.33
 1239.71        2960.75           2296         660.00      2866.45
 1239.74        2961.00           2300         745.00      3237.06
 1239.77        2961.25           2303        1003.00      4362.02
 1239.80        2961.50           2307        3427.00     14935.66
 1239.83        2961.75           2310        8419.00     36735.05
 1239.86        2962.00           2314       17321.00     75689.30
 1239.89        2962.25           2317       24132.00    105563.50
 1239.92        2962.50           2321       32674.00    143116.20
 1239.96        2962.75           2324       39141.00    171610.90
 1239.99        2963.00           2328       48233.00    211765.50
 1240.02        2963.25           2331       56244.00    247237.40
 1240.05        2963.50           2335       66398.00    292322.10
 1240.08        2963.75           2339       76263.00    336257.10
 1240.11        2964.00           2342       83469.00    368433.50
 1240.14        2964.25           2346       93226.00    412113.90
 1240.17        2964.50           2349       99939.00    442242.90
 1240.20        2964.75           2353      108433.00    480454.70
 1240.23        2965.00           2356      115559.00    512589.70
 1240.26        2965.25           2360      125704.00    558461.60
 1240.29        2965.50           2363      133340.00    593084.30
 1240.32        2965.75           2367      141997.00    632436.10
 1240.35        2966.00           2370      148850.00    663663.30
 1240.38        2966.25           2374      156696.00    699497.80
 1240.41        2966.50           2378      161217.00    720186.50
 1240.44        2966.75           2381      163195.00    729247.30
 1240.48        2967.00           2385      163916.00    732551.60
 1240.51        2967.25           2388      163722.00    731662.50
 1240.54        2967.50           2392      164158.00    733660.80
 1240.57        2967.75           2395      163492.00    730608.30
 1240.60        2968.00           2399      159733.00    713392.30
 1240.63        2968.25           2402      154648.00    690135.60
 1240.66        2968.50           2406      146528.00    653075.10
 1240.69        2968.75           2409      139535.00    621233.90
 1240.72        2969.00           2413      130631.00    580791.90
 1240.75        2969.25           2417      121653.00    540127.10
 1240.78        2969.50           2420      115430.00    512007.40
 1240.81        2969.75           2424      105971.00    469368.70
 1240.84        2970.00           2427       99394.00    439794.60
 1240.87        2970.25           2431       89688.00    396259.80
 1240.90        2970.50           2434       82802.00    365452.20
 1240.93        2970.75           2438       72579.00    319834.50
 1240.96        2971.00           2441       64803.00    285231.00
 1241.00        2971.25           2445       55131.00    242304.00
 1241.03        2971.50           2449       46356.00    203466.80
 1241.06        2971.75           2452       39583.00    173560.40
 1241.09        2972.00           2456       30390.00    133065.80
 1241.12        2972.25           2459       23286.00    101849.50
 1241.15        2972.50           2463       13891.00     60667.74
 1241.18        2972.75           2466        8021.00     34995.85
 1241.21        2973.00           2470        2649.00     11541.15
 1241.24        2973.25           2473        1141.00      4963.78
 1241.27        2973.50           2477         765.00      3324.26
 1241.30        2973.75           2481         731.00      3176.02
 1241.33        2974.00           2484         722.00      3136.78
 1241.36        2974.25           2488         706.00      3067.02
 1241.39        2974.50           2491         666.00      2892.61
 1241.42        2974.75           2495         642.00      2787.97
 1241.45        2975.00           2498         637.00      2766.17
 1241.48        2975.25           2502         609.00      2644.09
 1241.52        2975.50           2505         604.00      2622.29
 1241.55        2975.75           2509         602.00      2613.57
 1241.58        2976.00           2512         604.00      2622.29
 1241.61        2976.25           2516         576.00      2500.21
 1241.64        2976.50           2520         563.00      2443.53
 1241.67        2976.75           2523         602.00      2613.57
 1241.70        2977.00           2527         565.00      2452.25
 1241.73        2977.25           2530         570.00      2474.05
 1241.76        2977.50           2534         569.00      2469.69
 1241.79        2977.75           2537         548.00      2378.13
 1241.82        2978.00           2541         561.00      2434.81
 1241.85        2978.25           2544         536.00      2325.82
 1241.88        2978.50           2548         520.00      2256.06
 1241.91        2978.75           2552         516.00      2238.62
 1241.94        2979.00           2555         524.00      2273.50
 1241.97        2979.25           2559         523.00      2269.14
 1242.00        2979.50           2562         535.00      2321.46
 1242.04        2979.75           2566         506.00      2195.02
 1242.07        2980.00           2569         500.00      2168.86
 1242.10        2980.25           2573         474.00      2055.51
 1242.13        2980.50           2577         494.00      2142.70
 1242.16        2980.75           2580         492.00      2133.98
 1242.19        2981.00           2584         488.00      2116.54
 1242.22        2981.25           2587         469.00      2033.71
 1242.25        2981.50           2591         483.00      2094.74
 1242.28        2981.75           2594         479.00      2077.30
 1242.31        2982.00           2598         489.00      2120.90
 1242.34        2982.25           2601         471.00      2042.43
 1242.37        2982.50           2605         480.00      2081.66
 1242.40        2982.75           2609         471.00      2042.43
 1242.43        2983.00           2612         504.00      2186.30
 1242.46        2983.25           2616         462.00      2003.19
 1242.49        2983.50           2619         449.00      1946.51
 1242.52        2983.75           2623         494.00      2142.70
 1242.55        2984.00           2626         471.00      2042.43
HS scan finished at 20:42:47
end
