************************************************************
  HS Scan of (1) Internal mercury lamp
************************************************************
Integration time is 0.2294 seconds per sample
dh100518Reading 51.44 .94 3.25pr1000
************************************************************
Dead Time -------------------------  3.4E-08 
Number of Cycles Used -------------  4 
Starting Wavelength (Angstroms) ---  2950 
Final Wavelength (Angstoms) -------  2984 
Wavelength Increment (Angstroms) --  .25 
Filter Wheel #1 Position ---------- (1) Ground quartz diffuser (ND=2.32)
Filter Wheel #2 Position ---------- (1) Neutral Density 0.494



************************************************************
HS scan start time = 01:26:23
Dark Count =  1.4 


Time (GMT)  Wavelength (Ang)  Step Number  Raw Counts  Counts/Second

   87.28        2950.00           2144          77.00       329.56
   87.48        2950.25           2147          86.00       368.79
   87.51        2950.50           2151          85.00       364.43
   87.54        2950.75           2155          80.00       342.64
   87.57        2951.00           2158          93.00       399.31
   87.60        2951.25           2162          75.00       320.84
   87.63        2951.50           2165          88.00       377.51
   87.66        2951.75           2169          91.00       390.59
   87.69        2952.00           2172          89.00       381.87
   87.72        2952.25           2176          82.00       351.36
   87.75        2952.50           2179          94.00       403.67
   87.78        2952.75           2183          97.00       416.75
   87.81        2953.00           2186         111.00       477.78
   87.85        2953.25           2190          82.00       351.36
   87.88        2953.50           2193          86.00       368.79
   87.91        2953.75           2197          83.00       355.71
   87.94        2954.00           2200          92.00       394.95
   87.97        2954.25           2204         114.00       490.85
   88.00        2954.50           2208          88.00       377.51
   88.03        2954.75           2211          89.00       381.87
   88.06        2955.00           2215         100.00       429.82
   88.09        2955.25           2218          98.00       421.10
   88.12        2955.50           2222         109.00       469.06
   88.15        2955.75           2225          91.00       390.59
   88.18        2956.00           2229         103.00       442.90
   88.21        2956.25           2232          92.00       394.95
   88.24        2956.50           2236         103.00       442.90
   88.27        2956.75           2239          92.00       394.95
   88.30        2957.00           2243         107.00       460.34
   88.33        2957.25           2246          94.00       403.67
   88.37        2957.50           2250         102.00       438.54
   88.40        2957.75           2254         107.00       460.34
   88.43        2958.00           2257         101.00       434.18
   88.46        2958.25           2261         106.00       455.98
   88.49        2958.50           2264         131.00       564.96
   88.52        2958.75           2268         132.00       569.32
   88.55        2959.00           2271         139.00       599.84
   88.58        2959.25           2275         107.00       460.34
   88.61        2959.50           2278         117.00       503.93
   88.64        2959.75           2282         118.00       508.29
   88.67        2960.00           2285         113.00       486.49
   88.70        2960.25           2289         114.00       490.85
   88.73        2960.50           2293         138.00       595.48
   88.76        2960.75           2296         164.00       708.82
   88.79        2961.00           2300         157.00       678.31
   88.82        2961.25           2303         309.00      1340.95
   88.85        2961.50           2307        1136.00      4946.78
   88.88        2961.75           2310        2222.00      9683.22
   88.92        2962.00           2314        3872.00     16882.40
   88.95        2962.25           2317        5238.00     22845.11
   88.98        2962.50           2321        6747.00     29434.85
   89.01        2962.75           2324        8051.00     35131.74
   89.04        2963.00           2328        9616.00     41971.80
   89.07        2963.25           2331       11141.00     48640.09
   89.10        2963.50           2335       12904.00     56352.86
   89.13        2963.75           2339       14918.00     65168.65
   89.16        2964.00           2342       16172.00     70660.40
   89.19        2964.25           2346       18089.00     79059.66
   89.22        2964.50           2349       19566.00     85534.34
   89.25        2964.75           2353       21233.00     92845.38
   89.28        2965.00           2356       22577.00     98742.46
   89.31        2965.25           2360       24076.00    105322.40
   89.34        2965.50           2363       25339.00    110868.80
   89.37        2965.75           2367       27441.00    120104.10
   89.40        2966.00           2370       28711.00    125686.80
   89.44        2966.25           2374       30083.00    131720.30
   89.47        2966.50           2378       31143.00    136383.40
   89.50        2966.75           2381       31191.00    136594.60
   89.53        2967.00           2385       31271.00    136946.60
   89.56        2967.25           2388       31097.00    136181.00
   89.59        2967.50           2392       31135.00    136348.10
   89.62        2967.75           2395       30929.00    135441.80
   89.65        2968.00           2399       29967.00    131210.00
   89.68        2968.25           2402       28549.00    124974.60
   89.71        2968.50           2406       26787.00    117230.10
   89.74        2968.75           2409       25535.00    111729.70
   89.77        2969.00           2413       23692.00    103636.60
   89.80        2969.25           2417       22020.00     96298.21
   89.83        2969.50           2420       20713.00     90564.40
   89.86        2969.75           2424       18615.00     81365.15
   89.89        2970.00           2427       17331.00     75737.94
   89.92        2970.25           2431       15565.00     68001.85
   89.96        2970.50           2434       14321.00     62554.87
   89.99        2970.75           2438       12383.00     54073.17
   90.02        2971.00           2441       10801.00     47153.13
   90.05        2971.25           2445        8983.00     39204.79
   90.08        2971.50           2449        7109.00     31016.13
   90.11        2971.75           2452        5806.00     25325.20
   90.15        2972.00           2456        4168.00     18174.26
   90.18        2972.25           2459        2813.00     12261.43
   90.21        2972.50           2463        1305.00      5683.75
   90.24        2972.75           2466         550.00      2391.65
   90.27        2973.00           2470         188.00       813.45
   90.30        2973.25           2473         162.00       700.10
   90.33        2973.50           2477         169.00       730.62
   90.36        2973.75           2481         126.00       543.17
   90.39        2974.00           2484         108.00       464.70
   90.42        2974.25           2488         158.00       682.67
   90.45        2974.50           2491         116.00       499.57
   90.48        2974.75           2495         139.00       599.84
   90.51        2975.00           2498         104.00       447.26
   90.54        2975.25           2502         112.00       482.14
   90.57        2975.50           2505         132.00       569.32
   90.60        2975.75           2509         131.00       564.96
   90.63        2976.00           2512         154.00       665.23
   90.67        2976.25           2516         111.00       477.78
   90.70        2976.50           2520         121.00       521.37
   90.73        2976.75           2523         103.00       442.90
   90.76        2977.00           2527         101.00       434.18
   90.79        2977.25           2530          97.00       416.75
   90.82        2977.50           2534          95.00       408.03
   90.85        2977.75           2537         136.00       586.76
   90.88        2978.00           2541          90.00       386.23
   90.91        2978.25           2544          94.00       403.67
   90.94        2978.50           2548          93.00       399.31
   90.97        2978.75           2552          98.00       421.10
   91.00        2979.00           2555         104.00       447.26
   91.03        2979.25           2559          87.00       373.15
   91.06        2979.50           2562         103.00       442.90
   91.09        2979.75           2566          99.00       425.46
   91.12        2980.00           2569          84.00       360.07
   91.15        2980.25           2573         107.00       460.34
   91.18        2980.50           2577          91.00       390.59
   91.22        2980.75           2580          91.00       390.59
   91.25        2981.00           2584         109.00       469.06
   91.28        2981.25           2587          87.00       373.15
   91.31        2981.50           2591          92.00       394.95
   91.34        2981.75           2594          90.00       386.23
   91.37        2982.00           2598          87.00       373.15
   91.40        2982.25           2601          79.00       338.28
   91.43        2982.50           2605          91.00       390.59
   91.46        2982.75           2609          89.00       381.87
   91.49        2983.00           2612          88.00       377.51
   91.52        2983.25           2616          85.00       364.43
   91.55        2983.50           2619          83.00       355.71
   91.58        2983.75           2623         101.00       434.18
   91.61        2984.00           2626          86.00       368.79
HS scan finished at 01:31:50
end
************************************************************
  HS Scan of (1) Internal mercury lamp
************************************************************
Integration time is 0.2294 seconds per sample
dh100518Reading 51.44 .94 3.35pr1000
************************************************************
Dead Time -------------------------  3.4E-08 
Number of Cycles Used -------------  4 
Starting Wavelength (Angstroms) ---  2950 
Final Wavelength (Angstoms) -------  2984 
Wavelength Increment (Angstroms) --  .25 
Filter Wheel #1 Position ---------- (1) Ground quartz diffuser (ND=2.32)
Filter Wheel #2 Position ---------- (1) Neutral Density 0.494



************************************************************
HS scan start time = 20:37:28
Dark Count =  2.1 


Time (GMT)  Wavelength (Ang)  Step Number  Raw Counts  Counts/Second

 1238.36        2950.00           2144          70.00       295.99
 1238.56        2950.25           2147          72.00       304.71
 1238.59        2950.50           2151          71.00       300.35
 1238.62        2950.75           2155          69.00       291.63
 1238.65        2951.00           2158          68.00       287.27
 1238.68        2951.25           2162          72.00       304.71
 1238.71        2951.50           2165          69.00       291.63
 1238.74        2951.75           2169          76.00       322.15
 1238.77        2952.00           2172          77.00       326.51
 1238.80        2952.25           2176          80.00       339.59
 1238.84        2952.50           2179          78.00       330.87
 1238.88        2952.75           2183          73.00       309.07
 1238.91        2953.00           2186          71.00       300.35
 1238.94        2953.25           2190          70.00       295.99
 1238.97        2953.50           2193          76.00       322.15
 1239.00        2953.75           2197          78.00       330.87
 1239.03        2954.00           2200          70.00       295.99
 1239.06        2954.25           2204          78.00       330.87
 1239.09        2954.50           2208          80.00       339.59
 1239.12        2954.75           2211          76.00       322.15
 1239.15        2955.00           2215          82.00       348.30
 1239.18        2955.25           2218          77.00       326.51
 1239.21        2955.50           2222          85.00       361.38
 1239.24        2955.75           2225          88.00       374.46
 1239.27        2956.00           2229          80.00       339.59
 1239.30        2956.25           2232          80.00       339.59
 1239.34        2956.50           2236          78.00       330.87
 1239.37        2956.75           2239         103.00       439.85
 1239.40        2957.00           2243          83.00       352.66
 1239.43        2957.25           2246          82.00       348.30
 1239.46        2957.50           2250          81.00       343.94
 1239.49        2957.75           2254          86.00       365.74
 1239.52        2958.00           2257          87.00       370.10
 1239.55        2958.25           2261          89.00       378.82
 1239.58        2958.50           2264         112.00       479.08
 1239.61        2958.75           2268          89.00       378.82
 1239.64        2959.00           2271         101.00       431.13
 1239.67        2959.25           2275          90.00       383.18
 1239.70        2959.50           2278         134.00       574.99
 1239.73        2959.75           2282         100.00       426.77
 1239.76        2960.00           2285          97.00       413.69
 1239.79        2960.25           2289         101.00       431.13
 1239.82        2960.50           2293         112.00       479.08
 1239.86        2960.75           2296         104.00       444.21
 1239.89        2961.00           2300         163.00       701.41
 1239.92        2961.25           2303         376.00      1629.99
 1239.95        2961.50           2307        1249.00      5436.49
 1239.98        2961.75           2310        2152.00      9374.83
 1240.01        2962.00           2314        3466.00     15107.58
 1240.04        2962.25           2317        4546.00     19821.11
 1240.07        2962.50           2321        6089.00     26557.97
 1240.10        2962.75           2324        7248.00     31620.29
 1240.13        2963.00           2328        8906.00     38865.19
 1240.16        2963.25           2331       10072.00     43962.35
 1240.19        2963.50           2335       11458.00     50023.55
 1240.22        2963.75           2339       13109.00     57246.89
 1240.25        2964.00           2342       14257.00     62271.64
 1240.28        2964.25           2346       15902.00     69474.73
 1240.31        2964.50           2349       17015.00     74350.31
 1240.34        2964.75           2353       18547.00     81064.01
 1240.38        2965.00           2356       19567.00     85535.66
 1240.41        2965.25           2360       21012.00     91872.84
 1240.44        2965.50           2363       22209.00     97124.47
 1240.47        2965.75           2367       23703.00    103681.80
 1240.50        2966.00           2370       24813.00    108555.60
 1240.53        2966.25           2374       25889.00    113281.60
 1240.56        2966.50           2378       26479.00    115873.70
 1240.59        2966.75           2381       26572.00    116282.30
 1240.62        2967.00           2385       26351.00    115311.30
 1240.65        2967.25           2388       26454.00    115763.80
 1240.68        2967.50           2392       26453.00    115759.40
 1240.71        2967.75           2395       26405.00    115548.50
 1240.74        2968.00           2399       25319.00    110777.80
 1240.77        2968.25           2402       24345.00    106500.50
 1240.80        2968.50           2406       22930.00    100288.60
 1240.83        2968.75           2409       21979.00     96115.25
 1240.86        2969.00           2413       20599.00     90061.32
 1240.90        2969.25           2417       19086.00     83426.81
 1240.93        2969.50           2420       17930.00     78359.76
 1240.96        2969.75           2424       16196.00     70762.47
 1240.99        2970.00           2427       15020.00     65612.21
 1241.02        2970.25           2431       13695.00     59811.57
 1241.05        2970.50           2434       12427.00     54262.62
 1241.08        2970.75           2438       10815.00     47211.30
 1241.11        2971.00           2441        9536.00     41619.01
 1241.14        2971.25           2445        7785.00     33966.41
 1241.17        2971.50           2449        6206.00     27068.93
 1241.20        2971.75           2452        4982.00     21724.41
 1241.23        2972.00           2456        3555.00     15495.96
 1241.26        2972.25           2459        2472.00     10770.73
 1241.29        2972.50           2463        1294.00      5632.73
 1241.32        2972.75           2466         585.00      2541.20
 1241.35        2973.00           2470         183.00       788.60
 1241.38        2973.25           2473         145.00       622.94
 1241.41        2973.50           2477         122.00       522.68
 1241.45        2973.75           2481         104.00       444.21
 1241.48        2974.00           2484         112.00       479.08
 1241.51        2974.25           2488          98.00       418.05
 1241.54        2974.50           2491         106.00       452.93
 1241.57        2974.75           2495          99.00       422.41
 1241.60        2975.00           2498          99.00       422.41
 1241.63        2975.25           2502          92.00       391.90
 1241.66        2975.50           2505          98.00       418.05
 1241.69        2975.75           2509          92.00       391.90
 1241.72        2976.00           2512          90.00       383.18
 1241.75        2976.25           2516          88.00       374.46
 1241.78        2976.50           2520          86.00       365.74
 1241.81        2976.75           2523          96.00       409.33
 1241.84        2977.00           2527          86.00       365.74
 1241.87        2977.25           2530          81.00       343.94
 1241.90        2977.50           2534          93.00       396.26
 1241.93        2977.75           2537          87.00       370.10
 1241.97        2978.00           2541          79.00       335.23
 1242.00        2978.25           2544          82.00       348.30
 1242.03        2978.50           2548          88.00       374.46
 1242.06        2978.75           2552          81.00       343.94
 1242.09        2979.00           2555          82.00       348.30
 1242.12        2979.25           2559          76.00       322.15
 1242.15        2979.50           2562          74.00       313.43
 1242.18        2979.75           2566          81.00       343.94
 1242.21        2980.00           2569          76.00       322.15
 1242.24        2980.25           2573          81.00       343.94
 1242.27        2980.50           2577          81.00       343.94
 1242.30        2980.75           2580          75.00       317.79
 1242.33        2981.00           2584          74.00       313.43
 1242.36        2981.25           2587          83.00       352.66
 1242.39        2981.50           2591          67.00       282.91
 1242.42        2981.75           2594          79.00       335.23
 1242.45        2982.00           2598          77.00       326.51
 1242.49        2982.25           2601          75.00       317.79
 1242.52        2982.50           2605          66.00       278.56
 1242.55        2982.75           2609          67.00       282.91
 1242.58        2983.00           2612          66.00       278.56
 1242.61        2983.25           2616          75.00       317.79
 1242.64        2983.50           2619          75.00       317.79
 1242.67        2983.75           2623          69.00       291.63
 1242.70        2984.00           2626          68.00       287.27
HS scan finished at 20:42:55
end
