************************************************************
  HS Scan of 
************************************************************
Integration time is 0.2294 seconds per sample
dh140517Reading 51.44 .94 3.27pr1000
************************************************************
Dead Time -------------------------  3.4E-08 
Number of Cycles Used -------------  4 
Starting Wavelength (Angstroms) ---  2950 
Final Wavelength (Angstoms) -------  2984 
Wavelength Increment (Angstroms) --  .25 
Filter Wheel #1 Position ---------- (1) Ground quartz diffuser (ND=2.32)
Filter Wheel #2 Position ---------- (1) Neutral Density 0.494



************************************************************
HS scan start time = 01:13:02
Dark Count =  1.4 


Time (GMT)  Wavelength (Ang)  Step Number  Raw Counts  Counts/Second

   73.93        2950.00           2144         527.00      2291.37
   74.13        2950.25           2147         509.00      2212.90
   74.16        2950.50           2151         508.00      2208.54
   74.19        2950.75           2155         514.00      2234.69
   74.22        2951.00           2158         503.00      2186.74
   74.25        2951.25           2162         520.00      2260.85
   74.28        2951.50           2165         520.00      2260.85
   74.31        2951.75           2169         508.00      2208.54
   74.34        2952.00           2172         522.00      2269.57
   74.37        2952.25           2176         514.00      2234.69
   74.40        2952.50           2179         528.00      2295.73
   74.43        2952.75           2183         543.00      2361.13
   74.46        2953.00           2186         522.00      2269.57
   74.49        2953.25           2190         540.00      2348.05
   74.52        2953.50           2193         545.00      2369.85
   74.56        2953.75           2197         555.00      2413.45
   74.59        2954.00           2200         535.00      2326.25
   74.62        2954.25           2204         549.00      2387.29
   74.65        2954.50           2208         570.00      2478.85
   74.68        2954.75           2211         567.00      2465.77
   74.71        2955.00           2215         563.00      2448.33
   74.74        2955.25           2218         554.00      2409.09
   74.77        2955.50           2222         583.00      2535.53
   74.80        2955.75           2225         549.00      2387.29
   74.83        2956.00           2229         578.00      2513.73
   74.86        2956.25           2232         582.00      2531.17
   74.89        2956.50           2236         566.00      2461.41
   74.92        2956.75           2239         622.00      2705.57
   74.95        2957.00           2243         605.00      2631.45
   74.98        2957.25           2246         607.00      2640.17
   75.01        2957.50           2250         601.00      2614.01
   75.04        2957.75           2254         639.00      2779.69
   75.08        2958.00           2257         632.00      2749.17
   75.11        2958.25           2261         638.00      2775.33
   75.14        2958.50           2264         632.00      2749.17
   75.17        2958.75           2268         654.00      2845.09
   75.20        2959.00           2271         645.00      2805.85
   75.23        2959.25           2275         681.00      2962.81
   75.26        2959.50           2278         682.00      2967.17
   75.29        2959.75           2282         694.00      3019.49
   75.32        2960.00           2285         723.00      3145.93
   75.35        2960.25           2289         727.00      3163.37
   75.38        2960.50           2293         713.00      3102.33
   75.41        2960.75           2296         749.00      3259.30
   75.44        2961.00           2300         805.00      3503.47
   75.47        2961.25           2303        1275.00      5552.92
   75.50        2961.50           2307        4308.00     18785.32
   75.53        2961.75           2310        8914.00     38903.21
   75.57        2962.00           2314       16713.00     73030.28
   75.60        2962.25           2317       24158.00    105682.50
   75.63        2962.50           2321       34500.00    151161.10
   75.66        2962.75           2324       42724.00    187426.90
   75.69        2963.00           2328       53340.00    234373.80
   75.72        2963.25           2331       61711.00    271499.00
   75.75        2963.50           2335       72185.00    318084.10
   75.78        2963.75           2339       82050.00    362096.70
   75.81        2964.00           2342       89766.00    396614.10
   75.84        2964.25           2346      100446.00    444525.90
   75.87        2964.50           2349      109104.00    483482.60
   75.90        2964.75           2353      120830.00    536410.20
   75.93        2965.00           2356      129577.00    576017.00
   75.96        2965.25           2360      140262.00    624545.80
   75.99        2965.50           2363      147578.00    657867.10
   76.02        2965.75           2367      156786.00    699914.40
   76.05        2966.00           2370      164210.00    733904.10
   76.08        2966.25           2374      173531.00    776692.00
   76.12        2966.50           2378      178739.00    800654.10
   76.15        2966.75           2381      179964.00    806296.20
   76.18        2967.00           2385      180277.00    807738.20
   76.21        2967.25           2388      180317.00    807922.50
   76.24        2967.50           2392      180297.00    807830.30
   76.27        2967.75           2395      178929.00    801529.10
   76.30        2968.00           2399      174247.00    779984.00
   76.33        2968.25           2402      167624.00    749561.40
   76.36        2968.50           2406      157517.00    703257.60
   76.39        2968.75           2409      150365.00    670580.80
   76.42        2969.00           2413      141190.00    628768.30
   76.45        2969.25           2417      131632.00    585337.80
   76.48        2969.50           2420      124569.00    553327.30
   76.51        2969.75           2424      113975.00    505445.50
   76.54        2970.00           2427      105450.00    467028.70
   76.57        2970.25           2431       93796.00    414674.70
   76.60        2970.50           2434       85758.00    378674.20
   76.64        2970.75           2438       74690.00    329247.60
   76.67        2971.00           2441       67136.00    295609.30
   76.70        2971.25           2445       57174.00    251365.80
   76.73        2971.50           2449       46186.00    202720.30
   76.76        2971.75           2452       37858.00    165958.20
   76.79        2972.00           2456       27552.00    120592.00
   76.82        2972.25           2459       20098.00     87867.16
   76.85        2972.50           2463       10643.00     46462.18
   76.88        2972.75           2466        5406.00     23578.62
   76.91        2973.00           2470        1848.00      8051.90
   76.94        2973.25           2473         991.00      4314.50
   76.97        2973.50           2477         783.00      3407.54
   77.00        2973.75           2481         764.00      3324.70
   77.03        2974.00           2484         737.00      3206.98
   77.06        2974.25           2488         718.00      3124.13
   77.09        2974.50           2491         737.00      3206.98
   77.12        2974.75           2495         706.00      3071.81
   77.15        2975.00           2498         687.00      2988.97
   77.19        2975.25           2502         666.00      2897.41
   77.22        2975.50           2505         663.00      2884.33
   77.25        2975.75           2509         659.00      2866.89
   77.28        2976.00           2512         681.00      2962.81
   77.31        2976.25           2516         626.00      2723.01
   77.34        2976.50           2520         650.00      2827.65
   77.37        2976.75           2523         622.00      2705.57
   77.40        2977.00           2527         630.00      2740.45
   77.43        2977.25           2530         631.00      2744.81
   77.46        2977.50           2534         640.00      2784.05
   77.49        2977.75           2537         589.00      2561.69
   77.52        2978.00           2541         581.00      2526.81
   77.55        2978.25           2544         607.00      2640.17
   77.58        2978.50           2548         580.00      2522.45
   77.61        2978.75           2552         594.00      2583.49
   77.64        2979.00           2555         578.00      2513.73
   77.67        2979.25           2559         573.00      2491.93
   77.71        2979.50           2562         571.00      2483.21
   77.74        2979.75           2566         571.00      2483.21
   77.77        2980.00           2569         531.00      2308.81
   77.80        2980.25           2573         556.00      2417.81
   77.83        2980.50           2577         564.00      2452.69
   77.86        2980.75           2580         548.00      2382.93
   77.89        2981.00           2584         555.00      2413.45
   77.92        2981.25           2587         538.00      2339.33
   77.95        2981.50           2591         551.00      2396.01
   77.98        2981.75           2594         528.00      2295.73
   78.01        2982.00           2598         524.00      2278.29
   78.04        2982.25           2601         527.00      2291.37
   78.07        2982.50           2605         524.00      2278.29
   78.10        2982.75           2609         540.00      2348.05
   78.13        2983.00           2612         543.00      2361.13
   78.16        2983.25           2616         543.00      2361.13
   78.19        2983.50           2619         525.00      2282.65
   78.23        2983.75           2623         518.00      2252.13
   78.26        2984.00           2626         501.00      2178.02
HS scan finished at 01:18:29
end
************************************************************
  HS Scan of 
************************************************************
Integration time is 0.2294 seconds per sample
dh140517Reading 51.44 .94 3.33pr1000
************************************************************
Dead Time -------------------------  3.4E-08 
Number of Cycles Used -------------  4 
Starting Wavelength (Angstroms) ---  2950 
Final Wavelength (Angstoms) -------  2984 
Wavelength Increment (Angstroms) --  .25 
Filter Wheel #1 Position ---------- (1) Ground quartz diffuser (ND=2.32)
Filter Wheel #2 Position ---------- (1) Neutral Density 0.494



************************************************************
HS scan start time = 20:37:27
Dark Count =  2.2 


Time (GMT)  Wavelength (Ang)  Step Number  Raw Counts  Counts/Second

 1238.35        2950.00           2144         373.00      1616.48
 1238.54        2950.25           2147         350.00      1516.21
 1238.57        2950.50           2151         347.00      1503.13
 1238.60        2950.75           2155         401.00      1738.55
 1238.63        2951.00           2158         352.00      1524.93
 1238.66        2951.25           2162         379.00      1642.64
 1238.69        2951.50           2165         364.00      1577.24
 1238.72        2951.75           2169         388.00      1681.87
 1238.76        2952.00           2172         360.00      1559.80
 1238.79        2952.25           2176         391.00      1694.95
 1238.82        2952.50           2179         390.00      1690.59
 1238.85        2952.75           2183         389.00      1686.23
 1238.88        2953.00           2186         403.00      1747.27
 1238.91        2953.25           2190         375.00      1625.20
 1238.94        2953.50           2193         390.00      1690.59
 1238.97        2953.75           2197         381.00      1651.36
 1239.00        2954.00           2200         392.00      1699.31
 1239.03        2954.25           2204         382.00      1655.72
 1239.06        2954.50           2208         386.00      1673.16
 1239.09        2954.75           2211         379.00      1642.64
 1239.12        2955.00           2215         421.00      1825.75
 1239.15        2955.25           2218         385.00      1668.80
 1239.18        2955.50           2222         401.00      1738.55
 1239.21        2955.75           2225         387.00      1677.51
 1239.24        2956.00           2229         418.00      1812.67
 1239.27        2956.25           2232         418.00      1812.67
 1239.31        2956.50           2236         404.00      1751.63
 1239.34        2956.75           2239         413.00      1790.87
 1239.37        2957.00           2243         407.00      1764.71
 1239.40        2957.25           2246         407.00      1764.71
 1239.43        2957.50           2250         408.00      1769.07
 1239.46        2957.75           2254         430.00      1864.98
 1239.49        2958.00           2257         442.00      1917.30
 1239.52        2958.25           2261         449.00      1947.82
 1239.55        2958.50           2264         446.00      1934.74
 1239.58        2958.75           2268         465.00      2017.58
 1239.62        2959.00           2271         441.00      1912.94
 1239.66        2959.25           2275         479.00      2078.61
 1239.69        2959.50           2278         469.00      2035.01
 1239.72        2959.75           2282         503.00      2183.25
 1239.75        2960.00           2285         479.00      2078.61
 1239.78        2960.25           2289         510.00      2213.77
 1239.81        2960.50           2293         509.00      2209.41
 1239.84        2960.75           2296         529.00      2296.60
 1239.87        2961.00           2300         606.00      2632.32
 1239.90        2961.25           2303         968.00      4210.72
 1239.93        2961.50           2307        3492.00     15220.60
 1239.96        2961.75           2310        7234.00     31558.69
 1239.99        2962.00           2314       13834.00     60419.55
 1240.02        2962.25           2317       18898.00     82602.20
 1240.05        2962.50           2321       25419.00    111216.60
 1240.09        2962.75           2324       30061.00    131620.00
 1240.12        2963.00           2328       37057.00    162423.70
 1240.15        2963.25           2331       42642.00    187061.30
 1240.18        2963.50           2335       50256.00    220716.40
 1240.21        2963.75           2339       57775.00    254027.70
 1240.24        2964.00           2342       63038.00    277389.40
 1240.27        2964.25           2346       69615.00    306636.30
 1240.30        2964.50           2349       75014.00    330688.50
 1240.33        2964.75           2353       82415.00    363724.00
 1240.36        2965.00           2356       87919.00    388340.50
 1240.39        2965.25           2360       94427.00    417501.00
 1240.42        2965.50           2363       98766.00    436975.20
 1240.45        2965.75           2367      105636.00    467862.20
 1240.48        2966.00           2370      110770.00    490987.10
 1240.51        2966.25           2374      117592.00    521772.00
 1240.54        2966.50           2378      121596.00    539870.70
 1240.57        2966.75           2381      123180.00    547036.90
 1240.61        2967.00           2385      123754.00    549634.60
 1240.64        2967.25           2388      123560.00    548756.50
 1240.67        2967.50           2392      123379.00    547937.40
 1240.70        2967.75           2395      123141.00    546860.40
 1240.73        2968.00           2399      121831.00    540933.70
 1240.76        2968.25           2402      117991.00    523574.50
 1240.79        2968.50           2406      111864.00    495919.50
 1240.82        2968.75           2409      106095.00    469928.20
 1240.85        2969.00           2413       98972.00    437900.40
 1240.88        2969.25           2417       91956.00    406422.30
 1240.91        2969.50           2420       87057.00    384482.50
 1240.94        2969.75           2424       79177.00    349261.60
 1240.97        2970.00           2427       73106.00    322184.00
 1241.00        2970.25           2431       65127.00    286672.50
 1241.03        2970.50           2434       59575.00    262013.40
 1241.06        2970.75           2438       52432.00    230348.90
 1241.09        2971.00           2441       46659.00    204807.50
 1241.13        2971.25           2445       40119.00    175926.30
 1241.16        2971.50           2449       33650.00    147414.40
 1241.19        2971.75           2452       27913.00    122175.20
 1241.22        2972.00           2456       20345.00     88946.88
 1241.25        2972.25           2459       15145.00     66159.12
 1241.28        2972.50           2463        8444.00     36845.61
 1241.31        2972.75           2466        4450.00     19401.63
 1241.34        2973.00           2470        1431.00      6229.74
 1241.37        2973.25           2473         776.00      3373.53
 1241.40        2973.50           2477         587.00      2549.48
 1241.43        2973.75           2481         553.00      2401.24
 1241.46        2974.00           2484         509.00      2209.41
 1241.49        2974.25           2488         514.00      2231.21
 1241.52        2974.50           2491         484.00      2100.41
 1241.55        2974.75           2495         493.00      2139.65
 1241.58        2975.00           2498         473.00      2052.45
 1241.61        2975.25           2502         471.00      2043.73
 1241.65        2975.50           2505         462.00      2004.50
 1241.68        2975.75           2509         472.00      2048.09
 1241.71        2976.00           2512         480.00      2082.97
 1241.74        2976.25           2516         443.00      1921.66
 1241.77        2976.50           2520         452.00      1960.90
 1241.80        2976.75           2523         461.00      2000.14
 1241.83        2977.00           2527         438.00      1899.86
 1241.86        2977.25           2530         427.00      1851.90
 1241.89        2977.50           2534         451.00      1956.54
 1241.92        2977.75           2537         418.00      1812.67
 1241.95        2978.00           2541         422.00      1830.11
 1241.98        2978.25           2544         427.00      1851.90
 1242.01        2978.50           2548         422.00      1830.11
 1242.04        2978.75           2552         415.00      1799.59
 1242.07        2979.00           2555         413.00      1790.87
 1242.10        2979.25           2559         422.00      1830.11
 1242.13        2979.50           2562         437.00      1895.50
 1242.17        2979.75           2566         417.00      1808.31
 1242.20        2980.00           2569         402.00      1742.91
 1242.23        2980.25           2573         383.00      1660.08
 1242.26        2980.50           2577         407.00      1764.71
 1242.29        2980.75           2580         388.00      1681.87
 1242.32        2981.00           2584         399.00      1729.83
 1242.35        2981.25           2587         376.00      1629.56
 1242.38        2981.50           2591         382.00      1655.72
 1242.41        2981.75           2594         373.00      1616.48
 1242.44        2982.00           2598         365.00      1581.60
 1242.47        2982.25           2601         357.00      1546.72
 1242.50        2982.50           2605         375.00      1625.20
 1242.53        2982.75           2609         378.00      1638.28
 1242.56        2983.00           2612         371.00      1607.76
 1242.59        2983.25           2616         385.00      1668.80
 1242.62        2983.50           2619         385.00      1668.80
 1242.65        2983.75           2623         386.00      1673.16
 1242.69        2984.00           2626         351.00      1520.57
HS scan finished at 20:42:55
end
