************************************************************
  HS Scan of (1) Internal mercury lamp
************************************************************
Integration time is 0.2294 seconds per sample
dh190518Reading 51.44 .94 3.15pr1000
************************************************************
Dead Time -------------------------  3.4E-08 
Number of Cycles Used -------------  4 
Starting Wavelength (Angstroms) ---  2950 
Final Wavelength (Angstoms) -------  2984 
Wavelength Increment (Angstroms) --  .25 
Filter Wheel #1 Position ---------- (1) Ground quartz diffuser (ND=2.32)
Filter Wheel #2 Position ---------- (1) Neutral Density 0.494



************************************************************
HS scan start time = 01:04:03
Dark Count =  .8 


Time (GMT)  Wavelength (Ang)  Step Number  Raw Counts  Counts/Second

   64.95        2950.00           2144          80.00       345.25
   65.15        2950.25           2147          83.00       358.33
   65.18        2950.50           2151          80.00       345.25
   65.21        2950.75           2155          82.00       353.97
   65.24        2951.00           2158          84.00       362.69
   65.27        2951.25           2162          91.00       393.20
   65.30        2951.50           2165          92.00       397.56
   65.33        2951.75           2169          90.00       388.85
   65.36        2952.00           2172          90.00       388.85
   65.39        2952.25           2176          83.00       358.33
   65.42        2952.50           2179          89.00       384.49
   65.45        2952.75           2183          98.00       423.72
   65.48        2953.00           2186          92.00       397.56
   65.51        2953.25           2190          91.00       393.20
   65.54        2953.50           2193          88.00       380.13
   65.57        2953.75           2197          92.00       397.56
   65.60        2954.00           2200          87.00       375.77
   65.63        2954.25           2204          91.00       393.20
   65.67        2954.50           2208          94.00       406.28
   65.70        2954.75           2211          96.00       415.00
   65.73        2955.00           2215          83.00       358.33
   65.76        2955.25           2218          89.00       384.49
   65.79        2955.50           2222          89.00       384.49
   65.82        2955.75           2225          92.00       397.56
   65.85        2956.00           2229         116.00       502.19
   65.88        2956.25           2232          96.00       415.00
   65.91        2956.50           2236          97.00       419.36
   65.94        2956.75           2239         100.00       432.44
   65.97        2957.00           2243         119.00       515.27
   66.00        2957.25           2246         102.00       441.16
   66.03        2957.50           2250         107.00       462.95
   66.06        2957.75           2254         139.00       602.45
   66.09        2958.00           2257         103.00       445.52
   66.12        2958.25           2261         118.00       510.91
   66.15        2958.50           2264         103.00       445.52
   66.19        2958.75           2268         116.00       502.19
   66.22        2959.00           2271         107.00       462.95
   66.25        2959.25           2275         131.00       567.58
   66.28        2959.50           2278         115.00       497.83
   66.31        2959.75           2282         145.00       628.61
   66.34        2960.00           2285         134.00       580.66
   66.37        2960.25           2289         130.00       563.22
   66.40        2960.50           2293         133.00       576.30
   66.43        2960.75           2296         118.00       510.91
   66.46        2961.00           2300         155.00       672.20
   66.49        2961.25           2303         297.00      1291.25
   66.52        2961.50           2307         988.00      4304.03
   66.55        2961.75           2310        1870.00      8150.47
   66.58        2962.00           2314        3244.00     14144.55
   66.61        2962.25           2317        4781.00     20852.62
   66.64        2962.50           2321        6574.00     28681.84
   66.67        2962.75           2324        7757.00     33849.75
   66.71        2963.00           2328        9492.00     41432.35
   66.74        2963.25           2331       10708.00     46749.05
   66.77        2963.50           2335       12793.00     55869.76
   66.80        2963.75           2339       14592.00     63743.93
   66.83        2964.00           2342       15895.00     69449.77
   66.86        2964.25           2346       17743.00     77545.94
   66.89        2964.50           2349       19243.00     84120.81
   66.92        2964.75           2353       21380.00     93492.88
   66.95        2965.00           2356       22692.00     99249.78
   66.98        2965.25           2360       24631.00    107762.00
   67.01        2965.50           2363       25935.00    113489.40
   67.04        2965.75           2367       27491.00    120326.50
   67.07        2966.00           2370       28996.00    126942.50
   67.10        2966.25           2374       30306.00    132703.80
   67.14        2966.50           2378       31151.00    136421.20
   67.17        2966.75           2381       31121.00    136289.20
   67.20        2967.00           2385       31340.00    137252.80
   67.23        2967.25           2388       31212.00    136689.60
   67.26        2967.50           2392       31017.00    135831.60
   67.29        2967.75           2395       30670.00    134305.00
   67.32        2968.00           2399       29648.00    129809.70
   67.35        2968.25           2402       28519.00    124845.30
   67.38        2968.50           2406       26881.00    117645.70
   67.42        2968.75           2409       25453.00    111372.10
   67.45        2969.00           2413       23654.00    103472.40
   67.48        2969.25           2417       22107.00     96682.59
   67.51        2969.50           2420       20729.00     90637.21
   67.54        2969.75           2424       19029.00     83182.61
   67.57        2970.00           2427       17403.00     76056.05
   67.60        2970.25           2431       15377.00     67181.18
   67.63        2970.50           2434       14137.00     61752.01
   67.66        2970.75           2438       12388.00     54097.67
   67.69        2971.00           2441       11018.00     48104.77
   67.72        2971.25           2445        9194.00     40129.70
   67.75        2971.50           2449        7346.00     32054.10
   67.78        2971.75           2452        5898.00     25729.56
   67.81        2972.00           2456        4231.00     18451.85
   67.84        2972.25           2459        2975.00     12970.85
   67.87        2972.50           2463        1464.00      6379.76
   67.90        2972.75           2466         666.00      2900.02
   67.94        2973.00           2470         234.00      1016.60
   67.97        2973.25           2473         157.00       680.92
   68.00        2973.50           2477         142.00       615.53
   68.03        2973.75           2481         133.00       576.30
   68.06        2974.00           2484         164.00       711.44
   68.09        2974.25           2488         127.00       550.14
   68.12        2974.50           2491         133.00       576.30
   68.15        2974.75           2495         112.00       484.75
   68.18        2975.00           2498         115.00       497.83
   68.21        2975.25           2502         127.00       550.14
   68.24        2975.50           2505         112.00       484.75
   68.27        2975.75           2509         123.00       532.70
   68.30        2976.00           2512         111.00       480.39
   68.33        2976.25           2516         147.00       637.33
   68.36        2976.50           2520         133.00       576.30
   68.39        2976.75           2523         106.00       458.59
   68.42        2977.00           2527         108.00       467.31
   68.45        2977.25           2530         103.00       445.52
   68.49        2977.50           2534         102.00       441.16
   68.52        2977.75           2537         124.00       537.06
   68.55        2978.00           2541          98.00       423.72
   68.58        2978.25           2544          95.00       410.64
   68.61        2978.50           2548          94.00       406.28
   68.64        2978.75           2552          99.00       428.08
   68.67        2979.00           2555          97.00       419.36
   68.70        2979.25           2559          83.00       358.33
   68.73        2979.50           2562          89.00       384.49
   68.76        2979.75           2566         102.00       441.16
   68.79        2980.00           2569          91.00       393.20
   68.82        2980.25           2573          91.00       393.20
   68.85        2980.50           2577          90.00       388.85
   68.88        2980.75           2580          82.00       353.97
   68.91        2981.00           2584          81.00       349.61
   68.94        2981.25           2587          84.00       362.69
   68.97        2981.50           2591          97.00       419.36
   69.01        2981.75           2594          84.00       362.69
   69.04        2982.00           2598          87.00       375.77
   69.07        2982.25           2601          94.00       406.28
   69.10        2982.50           2605          91.00       393.20
   69.13        2982.75           2609          80.00       345.25
   69.16        2983.00           2612          86.00       371.41
   69.19        2983.25           2616          87.00       375.77
   69.22        2983.50           2619          91.00       393.20
   69.25        2983.75           2623          80.00       345.25
   69.28        2984.00           2626          83.00       358.33
HS scan finished at 01:09:30
end
************************************************************
  HS Scan of (1) Internal mercury lamp
************************************************************
Integration time is 0.2294 seconds per sample
dh190518Reading 51.44 .94 3.78pr1000
************************************************************
Dead Time -------------------------  3.4E-08 
Number of Cycles Used -------------  4 
Starting Wavelength (Angstroms) ---  2950 
Final Wavelength (Angstoms) -------  2984 
Wavelength Increment (Angstroms) --  .25 
Filter Wheel #1 Position ---------- (1) Ground quartz diffuser (ND=2.32)
Filter Wheel #2 Position ---------- (1) Neutral Density 0.494



************************************************************
HS scan start time = 20:37:24
Dark Count =  5.9 


Time (GMT)  Wavelength (Ang)  Step Number  Raw Counts  Counts/Second

 1238.30        2950.00           2144          60.00       235.83
 1238.50        2950.25           2147          65.00       257.63
 1238.53        2950.50           2151          60.00       235.83
 1238.56        2950.75           2155          56.00       218.40
 1238.59        2951.00           2158          56.00       218.40
 1238.62        2951.25           2162          66.00       261.99
 1238.65        2951.50           2165          60.00       235.83
 1238.68        2951.75           2169          65.00       257.63
 1238.71        2952.00           2172          67.00       266.35
 1238.74        2952.25           2176          62.00       244.55
 1238.77        2952.50           2179          65.00       257.63
 1238.80        2952.75           2183          63.00       248.91
 1238.83        2953.00           2186          64.00       253.27
 1238.86        2953.25           2190          65.00       257.63
 1238.90        2953.50           2193          62.00       244.55
 1238.93        2953.75           2197          65.00       257.63
 1238.96        2954.00           2200          61.00       240.19
 1238.99        2954.25           2204          66.00       261.99
 1239.02        2954.50           2208          68.00       270.71
 1239.05        2954.75           2211          66.00       261.99
 1239.08        2955.00           2215          68.00       270.71
 1239.11        2955.25           2218          57.00       222.76
 1239.14        2955.50           2222          67.00       266.35
 1239.17        2955.75           2225          65.00       257.63
 1239.20        2956.00           2229          66.00       261.99
 1239.23        2956.25           2232          67.00       266.35
 1239.26        2956.50           2236          66.00       261.99
 1239.29        2956.75           2239          66.00       261.99
 1239.32        2957.00           2243          77.00       309.94
 1239.35        2957.25           2246          65.00       257.63
 1239.38        2957.50           2250          72.00       288.15
 1239.42        2957.75           2254          71.00       283.79
 1239.45        2958.00           2257          69.00       275.07
 1239.48        2958.25           2261          70.00       279.43
 1239.51        2958.50           2264          70.00       279.43
 1239.54        2958.75           2268          69.00       275.07
 1239.57        2959.00           2271          74.00       296.86
 1239.60        2959.25           2275          80.00       323.02
 1239.63        2959.50           2278          77.00       309.94
 1239.66        2959.75           2282          70.00       279.43
 1239.69        2960.00           2285          86.00       349.18
 1239.72        2960.25           2289          83.00       336.10
 1239.75        2960.50           2293          92.00       375.33
 1239.78        2960.75           2296          89.00       362.25
 1239.81        2961.00           2300         181.00       763.32
 1239.84        2961.25           2303         271.00      1155.67
 1239.87        2961.50           2307         932.00      4037.61
 1239.90        2961.75           2310        1721.00      7478.36
 1239.94        2962.00           2314        2912.00     12673.73
 1239.97        2962.25           2317        3767.00     16404.53
 1240.00        2962.50           2321        5100.00     22222.98
 1240.03        2962.75           2324        5925.00     25825.20
 1240.06        2963.00           2328        7213.00     31450.79
 1240.09        2963.25           2331        8094.00     35299.97
 1240.12        2963.50           2335        9471.00     41318.25
 1240.15        2963.75           2339       10843.00     47317.12
 1240.18        2964.00           2342       11757.00     51314.82
 1240.21        2964.25           2346       13096.00     57173.37
 1240.24        2964.50           2349       13671.00     59689.89
 1240.27        2964.75           2353       14873.00     64951.92
 1240.30        2965.00           2356       15946.00     69650.80
 1240.33        2965.25           2360       17201.00     75148.61
 1240.36        2965.50           2363       18088.00     79035.55
 1240.39        2965.75           2367       19375.00     84677.18
 1240.42        2966.00           2370       20163.00     88132.49
 1240.45        2966.25           2374       21072.00     92119.37
 1240.49        2966.50           2378       21497.00     93983.80
 1240.52        2966.75           2381       21502.00     94005.74
 1240.55        2967.00           2385       21500.00     93996.96
 1240.58        2967.25           2388       21616.00     94505.88
 1240.61        2967.50           2392       21580.00     94347.94
 1240.64        2967.75           2395       21221.00     92772.99
 1240.67        2968.00           2399       20581.00     89965.71
 1240.70        2968.25           2402       19719.00     86185.49
 1240.73        2968.50           2406       18500.00     80841.35
 1240.76        2968.75           2409       17451.00     76244.03
 1240.79        2969.00           2413       16361.00     71468.57
 1240.82        2969.25           2417       15276.00     66716.56
 1240.85        2969.50           2420       14396.00     62863.52
 1240.88        2969.75           2424       13107.00     57221.51
 1240.91        2970.00           2427       12341.00     53869.72
 1240.94        2970.25           2431       10995.00     47981.87
 1240.97        2970.50           2434       10044.00     43823.31
 1241.01        2970.75           2438        8747.00     38153.65
 1241.04        2971.00           2441        7639.00     33311.90
 1241.07        2971.25           2445        6319.00     27545.84
 1241.10        2971.50           2449        5126.00     22336.49
 1241.13        2971.75           2452        4230.00     18425.23
 1241.16        2972.00           2456        3011.00     13105.67
 1241.19        2972.25           2459        2200.00      9567.63
 1241.22        2972.50           2463        1226.00      5319.62
 1241.25        2972.75           2466         581.00      2507.19
 1241.28        2973.00           2470         147.00       615.10
 1241.31        2973.25           2473         104.00       427.64
 1241.34        2973.50           2477          97.00       397.13
 1241.37        2973.75           2481         114.00       471.24
 1241.40        2974.00           2484          93.00       379.69
 1241.43        2974.25           2488          99.00       405.85
 1241.46        2974.50           2491          81.00       327.38
 1241.50        2974.75           2495          85.00       344.82
 1241.53        2975.00           2498          74.00       296.86
 1241.56        2975.25           2502          83.00       336.10
 1241.59        2975.50           2505          77.00       309.94
 1241.62        2975.75           2509          83.00       336.10
 1241.65        2976.00           2512          70.00       279.43
 1241.68        2976.25           2516          74.00       296.86
 1241.71        2976.50           2520          66.00       261.99
 1241.74        2976.75           2523          80.00       323.02
 1241.77        2977.00           2527          69.00       275.07
 1241.80        2977.25           2530          78.00       314.30
 1241.83        2977.50           2534          79.00       318.66
 1241.86        2977.75           2537          71.00       283.79
 1241.89        2978.00           2541          66.00       261.99
 1241.92        2978.25           2544          67.00       266.35
 1241.95        2978.50           2548          64.00       253.27
 1241.98        2978.75           2552          69.00       275.07
 1242.01        2979.00           2555          64.00       253.27
 1242.05        2979.25           2559          58.00       227.12
 1242.08        2979.50           2562          58.00       227.12
 1242.11        2979.75           2566          68.00       270.71
 1242.14        2980.00           2569          64.00       253.27
 1242.17        2980.25           2573          61.00       240.19
 1242.20        2980.50           2577          61.00       240.19
 1242.23        2980.75           2580          72.00       288.15
 1242.26        2981.00           2584          58.00       227.12
 1242.29        2981.25           2587          59.00       231.48
 1242.32        2981.50           2591          70.00       279.43
 1242.35        2981.75           2594          52.00       200.96
 1242.38        2982.00           2598          57.00       222.76
 1242.41        2982.25           2601          68.00       270.71
 1242.44        2982.50           2605          63.00       248.91
 1242.47        2982.75           2609          67.00       266.35
 1242.50        2983.00           2612          60.00       235.83
 1242.54        2983.25           2616          63.00       248.91
 1242.57        2983.50           2619          59.00       231.48
 1242.60        2983.75           2623          55.00       214.04
 1242.63        2984.00           2626          57.00       222.76
HS scan finished at 20:42:51
end
