************************************************************
  HS Scan of (1) Internal mercury lamp
************************************************************
Integration time is 0.2294 seconds per sample
dh110518Reading 51.44 .94 3.01pr1000
************************************************************
Dead Time -------------------------  3.4E-08 
Number of Cycles Used -------------  4 
Starting Wavelength (Angstroms) ---  2950 
Final Wavelength (Angstoms) -------  2984 
Wavelength Increment (Angstroms) --  .25 
Filter Wheel #1 Position ---------- (1) Ground quartz diffuser (ND=2.32)
Filter Wheel #2 Position ---------- (1) Neutral Density 0.494



************************************************************
HS scan start time = 01:04:11
Dark Count =  .8 


Time (GMT)  Wavelength (Ang)  Step Number  Raw Counts  Counts/Second

   65.08        2950.00           2144          99.00       428.08
   65.27        2950.25           2147          93.00       401.92
   65.30        2950.50           2151         115.00       497.83
   65.33        2950.75           2155          91.00       393.20
   65.36        2951.00           2158          85.00       367.05
   65.40        2951.25           2162          80.00       345.25
   65.43        2951.50           2165          85.00       367.05
   65.46        2951.75           2169          86.00       371.41
   65.49        2952.00           2172          89.00       384.49
   65.52        2952.25           2176         102.00       441.16
   65.55        2952.50           2179          99.00       428.08
   65.58        2952.75           2183          88.00       380.13
   65.61        2953.00           2186         112.00       484.75
   65.64        2953.25           2190          97.00       419.36
   65.67        2953.50           2193          94.00       406.28
   65.70        2953.75           2197          93.00       401.92
   65.73        2954.00           2200          95.00       410.64
   65.76        2954.25           2204          96.00       415.00
   65.79        2954.50           2208          98.00       423.72
   65.82        2954.75           2211          97.00       419.36
   65.85        2955.00           2215          97.00       419.36
   65.88        2955.25           2218         118.00       510.91
   65.92        2955.50           2222          99.00       428.08
   65.95        2955.75           2225         103.00       445.52
   65.98        2956.00           2229         114.00       493.47
   66.01        2956.25           2232         111.00       480.39
   66.04        2956.50           2236          98.00       423.72
   66.07        2956.75           2239         110.00       476.03
   66.10        2957.00           2243         102.00       441.16
   66.13        2957.25           2246         103.00       445.52
   66.16        2957.50           2250         104.00       449.88
   66.19        2957.75           2254         107.00       462.95
   66.22        2958.00           2257         122.00       528.34
   66.25        2958.25           2261         146.00       632.97
   66.28        2958.50           2264         144.00       624.25
   66.31        2958.75           2268         134.00       580.66
   66.34        2959.00           2271         137.00       593.73
   66.37        2959.25           2275         129.00       558.86
   66.40        2959.50           2278         111.00       480.39
   66.44        2959.75           2282         138.00       598.09
   66.47        2960.00           2285         165.00       715.80
   66.50        2960.25           2289         120.00       519.63
   66.53        2960.50           2293         132.00       571.94
   66.56        2960.75           2296         164.00       711.44
   66.59        2961.00           2300         179.00       776.83
   66.62        2961.25           2303         436.00      1897.25
   66.65        2961.50           2307        1387.00      6043.96
   66.68        2961.75           2310        2409.00     10501.57
   66.71        2962.00           2314        4005.00     17465.47
   66.74        2962.25           2317        5494.00     23965.47
   66.77        2962.50           2321        7031.00     30678.02
   66.80        2962.75           2324        8400.00     36659.44
   66.83        2963.00           2328       10306.00     44991.18
   66.86        2963.25           2331       11865.00     51809.58
   66.89        2963.50           2335       13892.00     60679.55
   66.92        2963.75           2339       15922.00     69568.02
   66.96        2964.00           2342       17231.00     75302.41
   66.99        2964.25           2346       19054.00     83292.22
   67.02        2964.50           2349       20589.00     90023.16
   67.05        2964.75           2353       22673.00     99166.40
   67.08        2965.00           2356       23961.00    104820.20
   67.11        2965.25           2360       25766.00    112747.00
   67.14        2965.50           2363       26991.00    118129.10
   67.17        2965.75           2367       28596.00    125183.80
   67.20        2966.00           2370       30247.00    132444.20
   67.23        2966.25           2374       32053.00    140390.40
   67.26        2966.50           2378       32951.00    144343.10
   67.29        2966.75           2381       33241.00    145619.80
   67.32        2967.00           2385       33384.00    146249.40
   67.35        2967.25           2388       33212.00    145492.10
   67.38        2967.50           2392       33201.00    145443.70
   67.41        2967.75           2395       33162.00    145272.00
   67.44        2968.00           2399       32415.00    141983.70
   67.48        2968.25           2402       31260.00    136900.80
   67.51        2968.50           2406       29632.00    129739.30
   67.54        2968.75           2409       27809.00    121724.20
   67.57        2969.00           2413       25900.00    113335.60
   67.60        2969.25           2417       23929.00    104679.70
   67.63        2969.50           2420       22715.00     99350.72
   67.66        2969.75           2424       20557.00     89882.81
   67.69        2970.00           2427       19121.00     83585.95
   67.72        2970.25           2431       17072.00     74605.75
   67.75        2970.50           2434       15606.00     68184.05
   67.78        2970.75           2438       13718.00     59917.94
   67.81        2971.00           2441       12155.00     53078.27
   67.84        2971.25           2445       10170.00     44396.53
   67.87        2971.50           2449        8151.00     35571.33
   67.90        2971.75           2452        6681.00     29149.19
   67.93        2972.00           2456        4802.00     20944.29
   67.96        2972.25           2459        3369.00     14689.99
   67.99        2972.50           2463        1681.00      7326.15
   68.03        2972.75           2466         808.00      3519.17
   68.06        2973.00           2470         264.00      1147.39
   68.09        2973.25           2473         170.00       737.59
   68.12        2973.50           2477         150.00       650.41
   68.15        2973.75           2481         148.00       641.69
   68.18        2974.00           2484         141.00       611.17
   68.21        2974.25           2488         149.00       646.05
   68.24        2974.50           2491         136.00       589.38
   68.27        2974.75           2495         119.00       515.27
   68.30        2975.00           2498         164.00       711.44
   68.33        2975.25           2502         120.00       519.63
   68.36        2975.50           2505         139.00       602.45
   68.39        2975.75           2509         128.00       554.50
   68.42        2976.00           2512         131.00       567.58
   68.45        2976.25           2516         122.00       528.34
   68.48        2976.50           2520         147.00       637.33
   68.52        2976.75           2523         124.00       537.06
   68.55        2977.00           2527         114.00       493.47
   68.58        2977.25           2530         114.00       493.47
   68.61        2977.50           2534          96.00       415.00
   68.64        2977.75           2537         105.00       454.24
   68.67        2978.00           2541          94.00       406.28
   68.70        2978.25           2544          97.00       419.36
   68.73        2978.50           2548         118.00       510.91
   68.76        2978.75           2552         111.00       480.39
   68.79        2979.00           2555         100.00       432.44
   68.82        2979.25           2559         104.00       449.88
   68.85        2979.50           2562          90.00       388.85
   68.88        2979.75           2566          91.00       393.20
   68.91        2980.00           2569         102.00       441.16
   68.94        2980.25           2573          99.00       428.08
   68.97        2980.50           2577          89.00       384.49
   69.00        2980.75           2580          92.00       397.56
   69.04        2981.00           2584          97.00       419.36
   69.07        2981.25           2587          97.00       419.36
   69.10        2981.50           2591         105.00       454.24
   69.13        2981.75           2594          94.00       406.28
   69.16        2982.00           2598          99.00       428.08
   69.19        2982.25           2601          85.00       367.05
   69.22        2982.50           2605         120.00       519.63
   69.25        2982.75           2609          97.00       419.36
   69.28        2983.00           2612          93.00       401.92
   69.31        2983.25           2616          92.00       397.56
   69.34        2983.50           2619          91.00       393.20
   69.37        2983.75           2623          94.00       406.28
   69.40        2984.00           2626          83.00       358.33
HS scan finished at 01:09:37
end
************************************************************
  HS Scan of (1) Internal mercury lamp
************************************************************
Integration time is 0.2294 seconds per sample
dh110518Reading 51.44 .94 3.39pr1000
************************************************************
Dead Time -------------------------  3.4E-08 
Number of Cycles Used -------------  4 
Starting Wavelength (Angstroms) ---  2950 
Final Wavelength (Angstoms) -------  2984 
Wavelength Increment (Angstroms) --  .25 
Filter Wheel #1 Position ---------- (1) Ground quartz diffuser (ND=2.32)
Filter Wheel #2 Position ---------- (1) Neutral Density 0.494



************************************************************
HS scan start time = 20:37:24
Dark Count =  1.9 


Time (GMT)  Wavelength (Ang)  Step Number  Raw Counts  Counts/Second

 1238.30        2950.00           2144          90.00       384.05
 1238.50        2950.25           2147          92.00       392.77
 1238.53        2950.50           2151          85.00       362.25
 1238.56        2950.75           2155          91.00       388.41
 1238.59        2951.00           2158         100.00       427.64
 1238.62        2951.25           2162          90.00       384.05
 1238.65        2951.50           2165         103.00       440.72
 1238.68        2951.75           2169          91.00       388.41
 1238.71        2952.00           2172          97.00       414.57
 1238.74        2952.25           2176          91.00       388.41
 1238.77        2952.50           2179          81.00       344.82
 1238.80        2952.75           2183          89.00       379.69
 1238.83        2953.00           2186          89.00       379.69
 1238.86        2953.25           2190         111.00       475.60
 1238.89        2953.50           2193          93.00       397.13
 1238.92        2953.75           2197          93.00       397.13
 1238.96        2954.00           2200          88.00       375.33
 1238.99        2954.25           2204          88.00       375.33
 1239.02        2954.50           2208          99.00       423.28
 1239.05        2954.75           2211          94.00       401.49
 1239.08        2955.00           2215         120.00       514.83
 1239.11        2955.25           2218         100.00       427.64
 1239.15        2955.50           2222          95.00       405.85
 1239.18        2955.75           2225          89.00       379.69
 1239.21        2956.00           2229         107.00       458.16
 1239.24        2956.25           2232         102.00       436.36
 1239.27        2956.50           2236          95.00       405.85
 1239.30        2956.75           2239         101.00       432.00
 1239.33        2957.00           2243         108.00       462.52
 1239.36        2957.25           2246         105.00       449.44
 1239.39        2957.50           2250         116.00       497.39
 1239.42        2957.75           2254         132.00       567.14
 1239.45        2958.00           2257         108.00       462.52
 1239.48        2958.25           2261         106.00       453.80
 1239.51        2958.50           2264         139.00       597.66
 1239.54        2958.75           2268         111.00       475.60
 1239.57        2959.00           2271         113.00       484.31
 1239.60        2959.25           2275         147.00       632.53
 1239.63        2959.50           2278         161.00       693.56
 1239.67        2959.75           2282         139.00       597.66
 1239.70        2960.00           2285         130.00       558.42
 1239.73        2960.25           2289         123.00       527.91
 1239.76        2960.50           2293         133.00       571.50
 1239.79        2960.75           2296         136.00       584.58
 1239.82        2961.00           2300         182.00       785.11
 1239.85        2961.25           2303         430.00      1866.29
 1239.88        2961.50           2307        1559.00      6789.27
 1239.91        2961.75           2310        2770.00     12071.65
 1239.94        2962.00           2314        4431.00     19320.01
 1239.97        2962.25           2317        5694.00     24833.95
 1240.00        2962.50           2321        7317.00     31922.60
 1240.03        2962.75           2324        8857.00     38651.90
 1240.06        2963.00           2328       10932.00     47723.84
 1240.09        2963.25           2331       12430.00     54276.62
 1240.12        2963.50           2335       14323.00     62561.44
 1240.15        2963.75           2339       16121.00     70434.82
 1240.19        2964.00           2342       17595.00     76892.56
 1240.22        2964.25           2346       19282.00     84286.97
 1240.25        2964.50           2349       21077.00     92158.85
 1240.28        2964.75           2353       23034.00    100746.00
 1240.31        2965.00           2356       24303.00    106316.90
 1240.34        2965.25           2360       26358.00    115342.90
 1240.37        2965.50           2363       27760.00    121504.00
 1240.40        2965.75           2367       29388.00    128661.40
 1240.43        2966.00           2370       30691.00    134392.60
 1240.46        2966.25           2374       31937.00    139875.10
 1240.49        2966.50           2378       32547.00    142559.90
 1240.52        2966.75           2381       32844.00    143867.20
 1240.55        2967.00           2385       32959.00    144373.50
 1240.58        2967.25           2388       32924.00    144219.40
 1240.61        2967.50           2392       32813.00    143730.80
 1240.64        2967.75           2395       32325.00    141582.70
 1240.67        2968.00           2399       31072.00    136068.80
 1240.71        2968.25           2402       29849.00    130688.80
 1240.74        2968.50           2406       27858.00    121934.70
 1240.77        2968.75           2409       26701.00    116850.00
 1240.80        2969.00           2413       24854.00    108736.50
 1240.83        2969.25           2417       23314.00    101975.00
 1240.86        2969.50           2420       21868.00     95629.08
 1240.89        2969.75           2424       20056.00     87680.79
 1240.92        2970.00           2427       18430.00     80552.05
 1240.95        2970.25           2431       16430.00     71788.35
 1240.98        2970.50           2434       14899.00     65083.27
 1241.01        2970.75           2438       12960.00     56595.72
 1241.04        2971.00           2441       11535.00     50361.23
 1241.07        2971.25           2445        9705.00     42358.70
 1241.10        2971.50           2449        7874.00     34356.15
 1241.13        2971.75           2452        6585.00     28725.08
 1241.16        2972.00           2456        4804.00     20948.22
 1241.19        2972.25           2459        3399.00     14816.09
 1241.23        2972.50           2463        1708.00      7439.11
 1241.26        2972.75           2466         754.00      3278.92
 1241.29        2973.00           2470         286.00      1238.50
 1241.32        2973.25           2473         166.00       715.36
 1241.35        2973.50           2477         148.00       636.89
 1241.38        2973.75           2481         135.00       580.22
 1241.41        2974.00           2484         142.00       610.74
 1241.44        2974.25           2488         125.00       536.63
 1241.47        2974.50           2491         155.00       667.41
 1241.50        2974.75           2495         150.00       645.61
 1241.53        2975.00           2498         138.00       593.30
 1241.56        2975.25           2502         148.00       636.89
 1241.59        2975.50           2505         117.00       501.75
 1241.62        2975.75           2509         146.00       628.17
 1241.65        2976.00           2512         127.00       545.35
 1241.68        2976.25           2516         101.00       432.00
 1241.71        2976.50           2520         108.00       462.52
 1241.74        2976.75           2523         106.00       453.80
 1241.78        2977.00           2527         122.00       523.55
 1241.81        2977.25           2530         101.00       432.00
 1241.84        2977.50           2534         113.00       484.31
 1241.87        2977.75           2537          98.00       418.92
 1241.90        2978.00           2541          97.00       414.57
 1241.93        2978.25           2544          97.00       414.57
 1241.96        2978.50           2548         103.00       440.72
 1241.99        2978.75           2552         111.00       475.60
 1242.02        2979.00           2555          95.00       405.85
 1242.05        2979.25           2559          91.00       388.41
 1242.08        2979.50           2562          92.00       392.77
 1242.11        2979.75           2566          91.00       388.41
 1242.14        2980.00           2569          92.00       392.77
 1242.17        2980.25           2573          95.00       405.85
 1242.20        2980.50           2577          90.00       384.05
 1242.23        2980.75           2580          87.00       370.97
 1242.26        2981.00           2584          87.00       370.97
 1242.30        2981.25           2587          94.00       401.49
 1242.33        2981.50           2591          92.00       392.77
 1242.36        2981.75           2594         107.00       458.16
 1242.39        2982.00           2598          80.00       340.46
 1242.42        2982.25           2601          86.00       366.61
 1242.45        2982.50           2605          91.00       388.41
 1242.48        2982.75           2609          86.00       366.61
 1242.51        2983.00           2612          87.00       370.97
 1242.54        2983.25           2616         111.00       475.60
 1242.57        2983.50           2619          88.00       375.33
 1242.60        2983.75           2623          89.00       379.69
 1242.63        2984.00           2626          86.00       366.61
HS scan finished at 20:42:51
end
