************************************************************
  HS Scan of 
************************************************************
Integration time is 0.2294 seconds per sample
dh240517Reading 51.44 .94 3.37pr1000
************************************************************
Dead Time -------------------------  3.4E-08 
Number of Cycles Used -------------  4 
Starting Wavelength (Angstroms) ---  2950 
Final Wavelength (Angstoms) -------  2984 
Wavelength Increment (Angstroms) --  .25 
Filter Wheel #1 Position ---------- (1) Ground quartz diffuser (ND=2.32)
Filter Wheel #2 Position ---------- (1) Neutral Density 0.494



************************************************************
HS scan start time = 01:26:44
Dark Count =  1.6 


Time (GMT)  Wavelength (Ang)  Step Number  Raw Counts  Counts/Second

   87.63        2950.00           2144         417.00      1810.92
   87.83        2950.25           2147         412.00      1789.12
   87.86        2950.50           2151         416.00      1806.56
   87.89        2950.75           2155         418.00      1815.28
   87.92        2951.00           2158         409.00      1776.04
   87.95        2951.25           2162         416.00      1806.56
   87.98        2951.50           2165         420.00      1824.00
   88.01        2951.75           2169         387.00      1680.13
   88.04        2952.00           2172         425.00      1845.80
   88.07        2952.25           2176         434.00      1885.04
   88.10        2952.50           2179         410.00      1780.40
   88.13        2952.75           2183         434.00      1885.04
   88.16        2953.00           2186         470.00      2041.99
   88.19        2953.25           2190         408.00      1771.68
   88.22        2953.50           2193         428.00      1858.88
   88.26        2953.75           2197         419.00      1819.64
   88.29        2954.00           2200         447.00      1941.72
   88.32        2954.25           2204         431.00      1871.96
   88.35        2954.50           2208         445.00      1933.00
   88.38        2954.75           2211         445.00      1933.00
   88.41        2955.00           2215         449.00      1950.43
   88.44        2955.25           2218         441.00      1915.56
   88.47        2955.50           2222         458.00      1989.67
   88.50        2955.75           2225         455.00      1976.59
   88.53        2956.00           2229         466.00      2024.55
   88.56        2956.25           2232         457.00      1985.31
   88.59        2956.50           2236         469.00      2037.63
   88.62        2956.75           2239         471.00      2046.35
   88.65        2957.00           2243         488.00      2120.47
   88.68        2957.25           2246         477.00      2072.51
   88.71        2957.50           2250         497.00      2159.71
   88.75        2957.75           2254         519.00      2255.62
   88.78        2958.00           2257         497.00      2159.71
   88.81        2958.25           2261         530.00      2303.58
   88.84        2958.50           2264         550.00      2390.78
   88.87        2958.75           2268         518.00      2251.26
   88.90        2959.00           2271         534.00      2321.02
   88.93        2959.25           2275         531.00      2307.94
   88.96        2959.50           2278         538.00      2338.46
   88.99        2959.75           2282         547.00      2377.70
   89.02        2960.00           2285         538.00      2338.46
   89.05        2960.25           2289         572.00      2486.70
   89.08        2960.50           2293         602.00      2617.50
   89.11        2960.75           2296         616.00      2678.54
   89.14        2961.00           2300         733.00      3188.66
   89.17        2961.25           2303        1292.00      5626.19
   89.20        2961.50           2307        4662.00     20329.65
   89.23        2961.75           2310        9432.00     41166.56
   89.27        2962.00           2314       16584.00     72464.28
   89.30        2962.25           2317       22615.00     98908.34
   89.33        2962.50           2321       30601.00    133997.90
   89.36        2962.75           2324       36552.00    160200.60
   89.39        2963.00           2328       45247.00    198569.80
   89.42        2963.25           2331       52243.00    229514.70
   89.45        2963.50           2335       60759.00    267271.30
   89.48        2963.75           2339       68933.00    303603.50
   89.51        2964.00           2342       74825.00    329848.50
   89.54        2964.25           2346       83237.00    367400.50
   89.57        2964.50           2349       90095.00    398086.80
   89.60        2964.75           2353       98298.00    434876.20
   89.63        2965.00           2356      104318.00    461934.20
   89.66        2965.25           2360      112038.00    496706.80
   89.69        2965.50           2363      117307.00    520487.30
   89.72        2965.75           2367      124715.00    553987.40
   89.75        2966.00           2370      131009.00    582510.60
   89.78        2966.25           2374      138623.00    617090.50
   89.82        2966.50           2378      143219.00    638003.70
   89.85        2966.75           2381      143809.00    640690.50
   89.88        2967.00           2385      144244.00    642671.80
   89.91        2967.25           2388      144469.00    643696.80
   89.94        2967.50           2392      144277.00    642822.10
   89.97        2967.75           2395      144298.00    642917.80
   90.00        2968.00           2399      141300.00    629268.00
   90.03        2968.25           2402      136256.00    606331.60
   90.06        2968.50           2406      128053.00    569107.50
   90.09        2968.75           2409      121954.00    541492.70
   90.12        2969.00           2413      114492.00    507777.60
   90.15        2969.25           2417      106715.00    472722.00
   90.18        2969.50           2420      101234.00    448066.30
   90.21        2969.75           2424       91766.00    405573.50
   90.24        2970.00           2427       84149.00    371477.50
   90.27        2970.25           2431       75288.00    331912.90
   90.30        2970.50           2434       69056.00    304150.90
   90.34        2970.75           2438       60138.00    264514.70
   90.37        2971.00           2441       53591.00    235484.70
   90.40        2971.25           2445       45750.00    200792.40
   90.43        2971.50           2449       36754.00    161090.90
   90.46        2971.75           2452       30082.00    131715.00
   90.49        2972.00           2456       21966.00     96060.39
   90.52        2972.25           2459       15974.00     69792.28
   90.55        2972.50           2463        8844.00     38596.39
   90.58        2972.75           2466        4451.00     19408.62
   90.61        2973.00           2470        1465.00      6380.64
   90.64        2973.25           2473         822.00      3576.72
   90.67        2973.50           2477         627.00      2726.50
   90.70        2973.75           2481         605.00      2630.58
   90.73        2974.00           2484         601.00      2613.14
   90.76        2974.25           2488         565.00      2456.18
   90.79        2974.50           2491         569.00      2473.62
   90.82        2974.75           2495         563.00      2447.46
   90.86        2975.00           2498         558.00      2425.66
   90.89        2975.25           2502         554.00      2408.22
   90.92        2975.50           2505         538.00      2338.46
   90.95        2975.75           2509         538.00      2338.46
   90.98        2976.00           2512         527.00      2290.50
   91.01        2976.25           2516         515.00      2238.18
   91.04        2976.50           2520         531.00      2307.94
   91.07        2976.75           2523         498.00      2164.07
   91.10        2977.00           2527         488.00      2120.47
   91.13        2977.25           2530         528.00      2294.86
   91.16        2977.50           2534         483.00      2098.67
   91.19        2977.75           2537         517.00      2246.90
   91.22        2978.00           2541         537.00      2334.10
   91.25        2978.25           2544         476.00      2068.15
   91.28        2978.50           2548         465.00      2020.19
   91.31        2978.75           2552         452.00      1963.51
   91.34        2979.00           2555         473.00      2055.07
   91.38        2979.25           2559         482.00      2094.31
   91.41        2979.50           2562         448.00      1946.07
   91.44        2979.75           2566         421.00      1828.36
   91.47        2980.00           2569         435.00      1889.40
   91.50        2980.25           2573         474.00      2059.43
   91.53        2980.50           2577         435.00      1889.40
   91.56        2980.75           2580         420.00      1824.00
   91.59        2981.00           2584         436.00      1893.76
   91.62        2981.25           2587         449.00      1950.43
   91.65        2981.50           2591         432.00      1876.32
   91.68        2981.75           2594         436.00      1893.76
   91.71        2982.00           2598         416.00      1806.56
   91.74        2982.25           2601         419.00      1819.64
   91.77        2982.50           2605         416.00      1806.56
   91.80        2982.75           2609         410.00      1780.40
   91.83        2983.00           2612         426.00      1850.16
   91.86        2983.25           2616         424.00      1841.44
   91.90        2983.50           2619         400.00      1736.81
   91.93        2983.75           2623         401.00      1741.17
   91.96        2984.00           2626         408.00      1771.68
HS scan finished at 01:32:11
end
************************************************************
  HS Scan of 
************************************************************
Integration time is 0.2294 seconds per sample
dh240517Reading 51.44 .94 3.94pr1000
************************************************************
Dead Time -------------------------  3.4E-08 
Number of Cycles Used -------------  4 
Starting Wavelength (Angstroms) ---  2950 
Final Wavelength (Angstoms) -------  2984 
Wavelength Increment (Angstroms) --  .25 
Filter Wheel #1 Position ---------- (1) Ground quartz diffuser (ND=2.32)
Filter Wheel #2 Position ---------- (1) Neutral Density 0.494



************************************************************
HS scan start time = 21:07:26
Dark Count =  9.7 


Time (GMT)  Wavelength (Ang)  Step Number  Raw Counts  Counts/Second

 1268.33        2950.00           2144         284.00      1195.78
 1268.52        2950.25           2147         288.00      1213.21
 1268.55        2950.50           2151         280.00      1178.34
 1268.58        2950.75           2155         278.00      1169.62
 1268.61        2951.00           2158         271.00      1139.10
 1268.64        2951.25           2162         284.00      1195.78
 1268.67        2951.50           2165         301.00      1269.89
 1268.70        2951.75           2169         286.00      1204.50
 1268.73        2952.00           2172         299.00      1261.17
 1268.76        2952.25           2176         298.00      1256.81
 1268.79        2952.50           2179         288.00      1213.21
 1268.83        2952.75           2183         289.00      1217.57
 1268.86        2953.00           2186         295.00      1243.73
 1268.89        2953.25           2190         301.00      1269.89
 1268.92        2953.50           2193         303.00      1278.61
 1268.95        2953.75           2197         308.00      1300.41
 1268.98        2954.00           2200         289.00      1217.57
 1269.01        2954.25           2204         288.00      1213.21
 1269.04        2954.50           2208         314.00      1326.56
 1269.07        2954.75           2211         319.00      1348.36
 1269.10        2955.00           2215         284.00      1195.78
 1269.13        2955.25           2218         315.00      1330.92
 1269.16        2955.50           2222         316.00      1335.28
 1269.19        2955.75           2225         329.00      1391.96
 1269.22        2956.00           2229         341.00      1444.27
 1269.25        2956.25           2232         315.00      1330.92
 1269.28        2956.50           2236         306.00      1291.69
 1269.31        2956.75           2239         338.00      1431.19
 1269.35        2957.00           2243         333.00      1409.40
 1269.38        2957.25           2246         333.00      1409.40
 1269.41        2957.50           2250         330.00      1396.32
 1269.44        2957.75           2254         343.00      1452.99
 1269.47        2958.00           2257         352.00      1492.23
 1269.50        2958.25           2261         347.00      1470.43
 1269.53        2958.50           2264         342.00      1448.63
 1269.56        2958.75           2268         386.00      1640.46
 1269.59        2959.00           2271         366.00      1553.26
 1269.62        2959.25           2275         367.00      1557.62
 1269.65        2959.50           2278         389.00      1653.54
 1269.68        2959.75           2282         410.00      1745.09
 1269.71        2960.00           2285         369.00      1566.34
 1269.74        2960.25           2289         385.00      1636.10
 1269.77        2960.50           2293         418.00      1779.97
 1269.80        2960.75           2296         417.00      1775.61
 1269.83        2961.00           2300         499.00      2133.11
 1269.87        2961.25           2303         839.00      3615.53
 1269.90        2961.50           2307        3060.00     13302.88
 1269.93        2961.75           2310        6366.00     27734.51
 1269.96        2962.00           2314       11476.00     50069.03
 1269.99        2962.25           2317       15531.00     67816.61
 1270.02        2962.50           2321       21117.00     92300.11
 1270.05        2962.75           2324       25370.00    110968.50
 1270.09        2963.00           2328       31725.00    138907.80
 1270.12        2963.25           2331       36920.00    161786.80
 1270.15        2963.50           2335       43957.00    192835.20
 1270.18        2963.75           2339       50323.00    220979.70
 1270.21        2964.00           2342       54762.00    240636.90
 1270.24        2964.25           2346       60898.00    267852.40
 1270.27        2964.50           2349       65863.00    289911.20
 1270.30        2964.75           2353       71900.00    316777.50
 1270.33        2965.00           2356       76376.00    336729.00
 1270.36        2965.25           2360       81683.00    360419.80
 1270.39        2965.50           2363       86033.00    379867.20
 1270.42        2965.75           2367       91418.00    403977.70
 1270.45        2966.00           2370       95476.00    422173.00
 1270.48        2966.25           2374      100672.00    445504.20
 1270.51        2966.50           2378      104733.00    463764.90
 1270.54        2966.75           2381      106092.00    469880.90
 1270.57        2967.00           2385      105986.00    469403.80
 1270.61        2967.25           2388      106071.00    469786.40
 1270.64        2967.50           2392      105779.00    468472.10
 1270.67        2967.75           2395      106060.00    469736.80
 1270.70        2968.00           2399      104123.00    461020.50
 1270.73        2968.25           2402      101082.00    447346.70
 1270.76        2968.50           2406       95339.00    421558.40
 1270.79        2968.75           2409       91312.00    403502.70
 1270.82        2969.00           2413       85169.00    376002.50
 1270.85        2969.25           2417       78734.00    347250.50
 1270.88        2969.50           2420       74526.00    328479.50
 1270.91        2969.75           2424       68666.00    302379.20
 1270.94        2970.00           2427       64019.00    281714.70
 1270.97        2970.25           2431       57222.00    251541.90
 1271.00        2970.50           2434       52258.00    229545.20
 1271.03        2970.75           2438       45612.00    200146.80
 1271.06        2971.00           2441       40684.00    178386.00
 1271.09        2971.25           2445       34636.00    151723.60
 1271.13        2971.50           2449       28318.00    123922.50
 1271.16        2971.75           2452       23386.00    102256.80
 1271.19        2972.00           2456       17110.00     74733.25
 1271.22        2972.25           2459       12660.00     55248.85
 1271.25        2972.50           2463        7278.00     31718.15
 1271.28        2972.75           2466        4097.00     17828.15
 1271.31        2973.00           2470        1296.00      5608.31
 1271.34        2973.25           2473         617.00      2647.58
 1271.37        2973.50           2477         449.00      1915.12
 1271.40        2973.75           2481         418.00      1779.97
 1271.43        2974.00           2484         420.00      1788.69
 1271.46        2974.25           2488         418.00      1779.97
 1271.49        2974.50           2491         429.00      1827.93
 1271.52        2974.75           2495         422.00      1797.41
 1271.55        2975.00           2498         424.00      1806.13
 1271.58        2975.25           2502         390.00      1657.90
 1271.61        2975.50           2505         381.00      1618.66
 1271.65        2975.75           2509         403.00      1714.57
 1271.68        2976.00           2512         369.00      1566.34
 1271.71        2976.25           2516         360.00      1527.11
 1271.74        2976.50           2520         371.00      1575.06
 1271.77        2976.75           2523         360.00      1527.11
 1271.80        2977.00           2527         329.00      1391.96
 1271.83        2977.25           2530         346.00      1466.07
 1271.86        2977.50           2534         350.00      1483.51
 1271.89        2977.75           2537         324.00      1370.16
 1271.92        2978.00           2541         332.00      1405.04
 1271.95        2978.25           2544         319.00      1348.36
 1271.98        2978.50           2548         332.00      1405.04
 1272.01        2978.75           2552         330.00      1396.32
 1272.04        2979.00           2555         305.00      1287.33
 1272.07        2979.25           2559         306.00      1291.69
 1272.10        2979.50           2562         311.00      1313.49
 1272.13        2979.75           2566         330.00      1396.32
 1272.17        2980.00           2569         311.00      1313.49
 1272.20        2980.25           2573         289.00      1217.57
 1272.23        2980.50           2577         331.00      1400.68
 1272.26        2980.75           2580         313.00      1322.20
 1272.29        2981.00           2584         296.00      1248.09
 1272.32        2981.25           2587         294.00      1239.37
 1272.36        2981.50           2591         294.00      1239.37
 1272.39        2981.75           2594         281.00      1182.70
 1272.42        2982.00           2598         288.00      1213.21
 1272.45        2982.25           2601         292.00      1230.65
 1272.48        2982.50           2605         314.00      1326.56
 1272.51        2982.75           2609         299.00      1261.17
 1272.54        2983.00           2612         282.00      1187.06
 1272.57        2983.25           2616         284.00      1195.78
 1272.60        2983.50           2619         271.00      1139.10
 1272.63        2983.75           2623         306.00      1291.69
 1272.66        2984.00           2626         290.00      1221.93
HS scan finished at 21:12:53
end
