************************************************************
  HS Scan of (1) Internal mercury lamp
************************************************************
Integration time is 0.2294 seconds per sample
dh230519Reading 51.44 .94 3.27pr1000
************************************************************
Dead Time -------------------------  3.4E-08 
Number of Cycles Used -------------  4 
Starting Wavelength (Angstroms) ---  2950 
Final Wavelength (Angstoms) -------  2984 
Wavelength Increment (Angstroms) --  .25 
Filter Wheel #1 Position ---------- (1) Ground quartz diffuser (ND=2.32)
Filter Wheel #2 Position ---------- (1) Neutral Density 0.494



************************************************************
HS scan start time = 02:33:42
Dark Count =  1.6 


Time (GMT)  Wavelength (Ang)  Step Number  Raw Counts  Counts/Second

  154.60        2950.00           2144        1272.00      5538.97
  154.80        2950.25           2147        1290.00      5617.46
  154.83        2950.50           2151        1277.00      5560.77
  154.86        2950.75           2155        1292.00      5626.19
  154.89        2951.00           2158        1288.00      5608.74
  154.92        2951.25           2162        1296.00      5643.63
  154.95        2951.50           2165        1337.00      5822.43
  154.98        2951.75           2169        1302.00      5669.79
  155.01        2952.00           2172        1358.00      5914.01
  155.04        2952.25           2176        1328.00      5783.18
  155.07        2952.50           2179        1307.00      5691.60
  155.10        2952.75           2183        1335.00      5813.70
  155.13        2953.00           2186        1333.00      5804.98
  155.16        2953.25           2190        1371.00      5970.70
  155.19        2953.50           2193        1353.00      5892.20
  155.23        2953.75           2197        1363.00      5935.81
  155.26        2954.00           2200        1384.00      6027.39
  155.29        2954.25           2204        1365.00      5944.53
  155.32        2954.50           2208        1429.00      6223.64
  155.35        2954.75           2211        1410.00      6140.78
  155.38        2955.00           2215        1406.00      6123.33
  155.41        2955.25           2218        1401.00      6101.53
  155.44        2955.50           2222        1420.00      6184.39
  155.47        2955.75           2225        1463.00      6371.91
  155.50        2956.00           2229        1447.00      6302.14
  155.53        2956.25           2232        1453.00      6328.30
  155.56        2956.50           2236        1508.00      6568.16
  155.59        2956.75           2239        1517.00      6607.41
  155.62        2957.00           2243        1472.00      6411.16
  155.65        2957.25           2246        1523.00      6633.58
  155.68        2957.50           2250        1544.00      6725.16
  155.71        2957.75           2254        1530.00      6664.11
  155.75        2958.00           2257        1522.00      6629.22
  155.78        2958.25           2261        1559.00      6790.58
  155.81        2958.50           2264        1596.00      6951.95
  155.85        2958.75           2268        1631.00      7104.59
  155.88        2959.00           2271        1662.00      7239.79
  155.91        2959.25           2275        1657.00      7217.99
  155.94        2959.50           2278        1708.00      7440.42
  155.97        2959.75           2282        1727.00      7523.28
  156.00        2960.00           2285        1764.00      7684.66
  156.03        2960.25           2289        1825.00      7950.71
  156.06        2960.50           2293        1886.00      8216.77
  156.09        2960.75           2296        1924.00      8382.51
  156.13        2961.00           2300        2835.00     12356.54
  156.16        2961.25           2303        6616.00     28861.79
  156.19        2961.50           2307       19906.00     87024.34
  156.22        2961.75           2310       34491.00    151120.60
  156.25        2962.00           2314       57550.00    253032.40
  156.28        2962.25           2317       76189.00    335931.00
  156.31        2962.50           2321       99602.00    440733.00
  156.35        2962.75           2324      118751.00    527011.30
  156.38        2963.00           2328      146532.00    653097.50
  156.41        2963.25           2331      167902.00    750836.20
  156.44        2963.50           2335      194723.00    874444.70
  156.47        2963.75           2339      221168.00    997362.00
  156.51        2964.00           2342      241166.00   1091013.00
  156.54        2964.25           2346      265959.00   1207968.00
  156.57        2964.50           2349      285962.00   1303026.00
  156.60        2964.75           2353      311573.00   1425659.00
  156.63        2965.00           2356      328288.00   1506264.00
  156.66        2965.25           2360      352383.00   1623262.00
  156.69        2965.50           2363      370638.00   1712546.00
  156.72        2965.75           2367      394082.00   1828034.00
  156.75        2966.00           2370      411894.00   1916408.00
  156.78        2966.25           2374      431118.00   2012410.00
  156.81        2966.50           2378      439832.00   2056141.00
  156.84        2966.75           2381      441527.00   2064663.00
  156.87        2967.00           2385      441428.00   2064165.00
  156.90        2967.25           2388      438609.00   2049995.00
  156.93        2967.50           2392      441234.00   2063189.00
  156.96        2967.75           2395      438118.00   2047528.00
  156.99        2968.00           2399      425894.00   1986258.00
  157.03        2968.25           2402      410677.00   1910353.00
  157.06        2968.50           2406      388782.00   1801843.00
  157.09        2968.75           2409      370390.00   1711329.00
  157.12        2969.00           2413      343048.00   1577821.00
  157.15        2969.25           2417      317045.00   1451996.00
  157.18        2969.50           2420      301143.00   1375590.00
  157.21        2969.75           2424      276842.00   1259608.00
  157.24        2970.00           2427      255324.00   1157684.00
  157.27        2970.25           2431      225730.00   1018672.00
  157.30        2970.50           2434      203257.00    913997.00
  157.33        2970.75           2438      177250.00    793798.30
  157.36        2971.00           2441      158409.00    707337.40
  157.39        2971.25           2445      132805.00    590660.00
  157.42        2971.50           2449      104346.00    462060.20
  157.45        2971.75           2452       83152.00    367020.60
  157.48        2972.00           2456       57407.00    252398.20
  157.51        2972.25           2459       38816.00    170181.50
  157.55        2972.50           2463       17262.00     75434.73
  157.58        2972.75           2466        7438.00     32452.53
  157.61        2973.00           2470        2897.00     12627.04
  157.64        2973.25           2473        2224.00      9691.07
  157.67        2973.50           2477        2016.00      8783.79
  157.70        2973.75           2481        2000.00      8714.00
  157.73        2974.00           2484        1951.00      8500.28
  157.76        2974.25           2488        1850.00      8059.75
  157.79        2974.50           2491        1857.00      8090.28
  157.82        2974.75           2495        1819.00      7924.54
  157.85        2975.00           2498        1795.00      7819.86
  157.88        2975.25           2502        1802.00      7850.40
  157.91        2975.50           2505        1732.00      7545.09
  157.94        2975.75           2509        1707.00      7436.06
  157.97        2976.00           2512        1745.00      7601.79
  158.00        2976.25           2516        1648.00      7178.74
  158.03        2976.50           2520        1673.00      7287.77
  158.07        2976.75           2523        1634.00      7117.68
  158.10        2977.00           2527        1604.00      6986.84
  158.13        2977.25           2530        1601.00      6973.76
  158.16        2977.50           2534        1578.00      6873.45
  158.19        2977.75           2537        1555.00      6773.14
  158.22        2978.00           2541        1587.00      6912.70
  158.25        2978.25           2544        1572.00      6847.28
  158.28        2978.50           2548        1585.00      6903.97
  158.31        2978.75           2552        1560.00      6794.94
  158.34        2979.00           2555        1543.00      6720.80
  158.37        2979.25           2559        1512.00      6585.61
  158.40        2979.50           2562        1521.00      6624.86
  158.43        2979.75           2566        1478.00      6437.33
  158.46        2980.00           2569        1499.00      6528.91
  158.49        2980.25           2573        1470.00      6402.44
  158.52        2980.50           2577        1487.00      6476.58
  158.55        2980.75           2580        1464.00      6376.27
  158.59        2981.00           2584        1467.00      6389.36
  158.62        2981.25           2587        1391.00      6057.92
  158.65        2981.50           2591        1462.00      6367.55
  158.68        2981.75           2594        1443.00      6284.69
  158.71        2982.00           2598        1478.00      6437.33
  158.74        2982.25           2601        1401.00      6101.53
  158.77        2982.50           2605        1420.00      6184.39
  158.80        2982.75           2609        1391.00      6057.92
  158.83        2983.00           2612        1400.00      6097.17
  158.86        2983.25           2616        1386.00      6036.11
  158.89        2983.50           2619        1426.00      6210.55
  158.92        2983.75           2623        1397.00      6084.08
  158.95        2984.00           2626        1423.00      6197.47
HS scan finished at 02:39:11
end
************************************************************
  HS Scan of (1) Internal mercury lamp
************************************************************
Integration time is 0.2294 seconds per sample
dh230519Reading 51.44 .94 3.64pr1000
************************************************************
Dead Time -------------------------  3.4E-08 
Number of Cycles Used -------------  4 
Starting Wavelength (Angstroms) ---  2950 
Final Wavelength (Angstoms) -------  2984 
Wavelength Increment (Angstroms) --  .25 
Filter Wheel #1 Position ---------- (1) Ground quartz diffuser (ND=2.32)
Filter Wheel #2 Position ---------- (1) Neutral Density 0.494



************************************************************
HS scan start time = 21:08:42
Dark Count =  4.2 


Time (GMT)  Wavelength (Ang)  Step Number  Raw Counts  Counts/Second

 1269.59        2950.00           2144         779.00      3377.89
 1269.79        2950.25           2147         794.00      3443.30
 1269.82        2950.50           2151         811.00      3517.42
 1269.85        2950.75           2155         811.00      3517.42
 1269.88        2951.00           2158         804.00      3486.90
 1269.91        2951.25           2162         811.00      3517.42
 1269.94        2951.50           2165         790.00      3425.86
 1269.97        2951.75           2169         793.00      3438.94
 1270.00        2952.00           2172         847.00      3674.39
 1270.03        2952.25           2176         808.00      3504.34
 1270.06        2952.50           2179         803.00      3482.54
 1270.09        2952.75           2183         807.00      3499.98
 1270.12        2953.00           2186         798.00      3460.74
 1270.15        2953.25           2190         840.00      3643.87
 1270.18        2953.50           2193         837.00      3630.79
 1270.21        2953.75           2197         857.00      3717.99
 1270.24        2954.00           2200         843.00      3656.95
 1270.28        2954.25           2204         837.00      3630.79
 1270.31        2954.50           2208         832.00      3608.99
 1270.34        2954.75           2211         855.00      3709.27
 1270.37        2955.00           2215         842.00      3652.59
 1270.40        2955.25           2218         851.00      3691.83
 1270.43        2955.50           2222         863.00      3744.16
 1270.46        2955.75           2225         872.00      3783.40
 1270.49        2956.00           2229         897.00      3892.41
 1270.52        2956.25           2232         886.00      3844.44
 1270.55        2956.50           2236         926.00      4018.86
 1270.58        2956.75           2239         926.00      4018.86
 1270.61        2957.00           2243         917.00      3979.61
 1270.64        2957.25           2246         924.00      4010.14
 1270.67        2957.50           2250         910.00      3949.09
 1270.70        2957.75           2254         927.00      4023.22
 1270.73        2958.00           2257         942.00      4088.62
 1270.76        2958.25           2261         952.00      4132.23
 1270.80        2958.50           2264         955.00      4145.31
 1270.83        2958.75           2268         981.00      4258.68
 1270.86        2959.00           2271         959.00      4162.75
 1270.89        2959.25           2275        1031.00      4476.71
 1270.92        2959.50           2278        1026.00      4454.90
 1270.95        2959.75           2282        1042.00      4524.67
 1270.98        2960.00           2285        1044.00      4533.39
 1271.01        2960.25           2289        1039.00      4511.59
 1271.04        2960.50           2293        1092.00      4742.70
 1271.07        2960.75           2296        1118.00      4856.08
 1271.10        2961.00           2300        1166.00      5065.39
 1271.13        2961.25           2303        1376.00      5981.16
 1271.16        2961.50           2307        3103.00     13514.49
 1271.19        2961.75           2310        8612.00     37571.07
 1271.22        2962.00           2314       20965.00     91657.48
 1271.25        2962.25           2317       32236.00    141180.90
 1271.28        2962.50           2321       48062.00    211001.80
 1271.32        2962.75           2324       59364.00    261068.20
 1271.35        2963.00           2328       73611.00    324425.50
 1271.38        2963.25           2331       85095.00    375696.10
 1271.41        2963.50           2335      104192.00    461355.70
 1271.44        2963.75           2339      120242.00    533738.90
 1271.47        2964.00           2342      132995.00    591510.50
 1271.50        2964.25           2346      147884.00    659249.60
 1271.53        2964.50           2349      159707.00    713265.50
 1271.56        2964.75           2353      174935.00    783135.00
 1271.59        2965.00           2356      186453.00    836206.60
 1271.62        2965.25           2360      200772.00    902456.60
 1271.65        2965.50           2363      212101.00    955088.30
 1271.68        2965.75           2367      226548.00   1022485.00
 1271.71        2966.00           2370      238300.00   1077542.00
 1271.74        2966.25           2374      252629.00   1144957.00
 1271.77        2966.50           2378      261178.00   1185329.00
 1271.80        2966.75           2381      264087.00   1199092.00
 1271.84        2967.00           2385      265039.00   1203599.00
 1271.87        2967.25           2388      264698.00   1201985.00
 1271.90        2967.50           2392      264698.00   1201985.00
 1271.93        2967.75           2395      264383.00   1200493.00
 1271.96        2968.00           2399      259963.00   1179584.00
 1271.99        2968.25           2402      252426.00   1143999.00
 1272.02        2968.50           2406      240476.00   1087759.00
 1272.05        2968.75           2409      229891.00   1038125.00
 1272.08        2969.00           2413      213596.00    962048.10
 1272.11        2969.25           2417      198732.00    892999.60
 1272.14        2969.50           2420      187536.00    841206.90
 1272.17        2969.75           2424      172885.00    773709.60
 1272.20        2970.00           2427      161642.00    722125.10
 1272.23        2970.25           2431      144175.00    642345.60
 1272.26        2970.50           2434      133318.00    592976.70
 1272.29        2970.75           2438      117171.00    519861.30
 1272.32        2971.00           2441      105170.00    465756.10
 1272.36        2971.25           2445       88492.00    390896.70
 1272.39        2971.50           2449       72176.00    318031.50
 1272.42        2971.75           2452       60077.00    264232.50
 1272.45        2972.00           2456       45180.00    198262.30
 1272.48        2972.25           2459       35157.00    154042.70
 1272.51        2972.50           2463       20645.00     90253.87
 1272.54        2972.75           2466       10068.00     43935.68
 1272.57        2973.00           2470        3216.00     14007.54
 1272.60        2973.25           2473        1712.00      7446.52
 1272.63        2973.50           2477        1233.00      5357.56
 1272.66        2973.75           2481        1163.00      5052.31
 1272.69        2974.00           2484        1125.00      4886.60
 1272.72        2974.25           2488        1132.00      4917.13
 1272.75        2974.50           2491        1128.00      4899.68
 1272.78        2974.75           2495        1053.00      4572.64
 1272.81        2975.00           2498        1043.00      4529.03
 1272.84        2975.25           2502        1021.00      4433.10
 1272.87        2975.50           2505        1041.00      4520.31
 1272.91        2975.75           2509         978.00      4245.60
 1272.94        2976.00           2512         979.00      4249.96
 1272.97        2976.25           2516         983.00      4267.40
 1273.00        2976.50           2520         959.00      4162.75
 1273.03        2976.75           2523         975.00      4232.52
 1273.06        2977.00           2527         939.00      4075.54
 1273.09        2977.25           2530         940.00      4079.90
 1273.12        2977.50           2534         947.00      4110.43
 1273.15        2977.75           2537         903.00      3918.57
 1273.18        2978.00           2541         912.00      3957.81
 1273.21        2978.25           2544         882.00      3827.00
 1273.24        2978.50           2548         908.00      3940.37
 1273.27        2978.75           2552         861.00      3735.43
 1273.30        2979.00           2555         878.00      3809.56
 1273.33        2979.25           2559         869.00      3770.32
 1273.36        2979.50           2562         839.00      3639.51
 1273.40        2979.75           2566         833.00      3613.35
 1273.43        2980.00           2569         820.00      3556.66
 1273.46        2980.25           2573         832.00      3608.99
 1273.49        2980.50           2577         807.00      3499.98
 1273.52        2980.75           2580         839.00      3639.51
 1273.55        2981.00           2584         831.00      3604.63
 1273.58        2981.25           2587         794.00      3443.30
 1273.61        2981.50           2591         783.00      3395.34
 1273.64        2981.75           2594         785.00      3404.06
 1273.67        2982.00           2598         809.00      3508.70
 1273.70        2982.25           2601         807.00      3499.98
 1273.73        2982.50           2605         819.00      3552.30
 1273.76        2982.75           2609         795.00      3447.66
 1273.79        2983.00           2612         794.00      3443.30
 1273.82        2983.25           2616         766.00      3321.21
 1273.85        2983.50           2619         776.00      3364.81
 1273.88        2983.75           2623         756.00      3277.61
 1273.92        2984.00           2626         767.00      3325.57
HS scan finished at 21:14:08
end
