************************************************************
  HS Scan of (1) Internal mercury lamp
************************************************************
Integration time is 0.2294 seconds per sample
dh220518Reading 51.44 .94 3.43pr1000
************************************************************
Dead Time -------------------------  3.4E-08 
Number of Cycles Used -------------  4 
Starting Wavelength (Angstroms) ---  2950 
Final Wavelength (Angstoms) -------  2984 
Wavelength Increment (Angstroms) --  .25 
Filter Wheel #1 Position ---------- (1) Ground quartz diffuser (ND=2.32)
Filter Wheel #2 Position ---------- (1) Neutral Density 0.494



************************************************************
HS scan start time = 01:13:59
Dark Count =  2 


Time (GMT)  Wavelength (Ang)  Step Number  Raw Counts  Counts/Second

   74.88        2950.00           2144          87.00       370.54
   75.07        2950.25           2147          83.00       353.10
   75.11        2950.50           2151          86.00       366.18
   75.14        2950.75           2155          78.00       331.30
   75.17        2951.00           2158          78.00       331.30
   75.20        2951.25           2162          85.00       361.82
   75.23        2951.50           2165          80.00       340.02
   75.26        2951.75           2169          91.00       387.97
   75.29        2952.00           2172          78.00       331.30
   75.32        2952.25           2176          91.00       387.97
   75.35        2952.50           2179          77.00       326.94
   75.38        2952.75           2183          79.00       335.66
   75.41        2953.00           2186          78.00       331.30
   75.44        2953.25           2190          80.00       340.02
   75.47        2953.50           2193          86.00       366.18
   75.50        2953.75           2197          76.00       322.58
   75.53        2954.00           2200          82.00       348.74
   75.56        2954.25           2204          77.00       326.94
   75.59        2954.50           2208          83.00       353.10
   75.63        2954.75           2211          82.00       348.74
   75.66        2955.00           2215          83.00       353.10
   75.69        2955.25           2218          89.00       379.26
   75.72        2955.50           2222          94.00       401.05
   75.75        2955.75           2225          93.00       396.69
   75.78        2956.00           2229         113.00       483.88
   75.81        2956.25           2232          92.00       392.33
   75.84        2956.50           2236          89.00       379.26
   75.87        2956.75           2239         100.00       427.21
   75.90        2957.00           2243          89.00       379.26
   75.93        2957.25           2246         111.00       475.16
   75.96        2957.50           2250          92.00       392.33
   75.99        2957.75           2254          90.00       383.61
   76.02        2958.00           2257         108.00       462.08
   76.05        2958.25           2261          91.00       387.97
   76.08        2958.50           2264         103.00       440.29
   76.11        2958.75           2268          90.00       383.61
   76.14        2959.00           2271         123.00       527.47
   76.18        2959.25           2275         106.00       453.36
   76.21        2959.50           2278         108.00       462.08
   76.24        2959.75           2282         107.00       457.72
   76.27        2960.00           2285         128.00       549.27
   76.30        2960.25           2289         110.00       470.80
   76.33        2960.50           2293         113.00       483.88
   76.36        2960.75           2296         142.00       610.30
   76.39        2961.00           2300         164.00       706.21
   76.42        2961.25           2303         331.00      1434.25
   76.45        2961.50           2307        1151.00      5009.57
   76.48        2961.75           2310        2135.00      9301.11
   76.51        2962.00           2314        3695.00     16107.34
   76.54        2962.25           2317        4979.00     21711.75
   76.57        2962.50           2321        6688.00     29174.52
   76.60        2962.75           2324        7919.00     34552.34
   76.63        2963.00           2328        9879.00     43118.97
   76.66        2963.25           2331       11414.00     49831.53
   76.70        2963.50           2335       13384.00     58450.83
   76.73        2963.75           2339       15482.00     67635.75
   76.76        2964.00           2342       16781.00     73325.56
   76.79        2964.25           2346       18581.00     81213.48
   76.82        2964.50           2349       19988.00     87382.16
   76.85        2964.75           2353       21523.00     94114.98
   76.88        2965.00           2356       22985.00    100530.50
   76.91        2965.25           2360       24651.00    107844.60
   76.94        2965.50           2363       25872.00    113207.40
   76.97        2965.75           2367       27704.00    121257.40
   77.00        2966.00           2370       29123.00    127495.70
   77.03        2966.25           2374       30171.00    132104.70
   77.06        2966.50           2378       30660.00    134255.70
   77.09        2966.75           2381       31040.00    135927.50
   77.12        2967.00           2385       30700.00    134431.70
   77.15        2967.25           2388       30865.00    135157.60
   77.18        2967.50           2392       30970.00    135619.60
   77.22        2967.75           2395       30461.00    133380.30
   77.25        2968.00           2399       29261.00    128102.50
   77.28        2968.25           2402       28080.00    122910.10
   77.31        2968.50           2406       26562.00    116238.80
   77.34        2968.75           2409       25176.00    110150.20
   77.37        2969.00           2413       23428.00    102475.00
   77.40        2969.25           2417       21668.00     94751.14
   77.43        2969.50           2420       20257.00     88561.82
   77.46        2969.75           2424       18477.00     80757.62
   77.49        2970.00           2427       17110.00     74766.99
   77.52        2970.25           2431       15160.00     66225.68
   77.55        2970.50           2434       13808.00     60306.62
   77.58        2970.75           2438       12021.00     52486.78
   77.61        2971.00           2441       10774.00     47032.43
   77.64        2971.25           2445        9025.00     39385.75
   77.67        2971.50           2449        7135.00     31127.09
   77.70        2971.75           2452        5895.00     25711.22
   77.74        2972.00           2456        4091.00     17835.57
   77.77        2972.25           2459        2944.00     12830.36
   77.80        2972.50           2463        1622.00      7063.60
   77.83        2972.75           2466         785.00      3413.65
   77.86        2973.00           2470         222.00       959.05
   77.89        2973.25           2473         147.00       632.10
   77.92        2973.50           2477         140.00       601.58
   77.95        2973.75           2481         151.00       649.53
   77.98        2974.00           2484         120.00       514.39
   78.01        2974.25           2488         134.00       575.43
   78.04        2974.50           2491         100.00       427.21
   78.07        2974.75           2495         111.00       475.16
   78.10        2975.00           2498         139.00       597.22
   78.13        2975.25           2502         109.00       466.44
   78.16        2975.50           2505         123.00       527.47
   78.19        2975.75           2509         141.00       605.94
   78.22        2976.00           2512         134.00       575.43
   78.26        2976.25           2516         107.00       457.72
   78.29        2976.50           2520         120.00       514.39
   78.32        2976.75           2523          92.00       392.33
   78.35        2977.00           2527         100.00       427.21
   78.38        2977.25           2530         104.00       444.64
   78.41        2977.50           2534          87.00       370.54
   78.44        2977.75           2537          94.00       401.05
   78.47        2978.00           2541          95.00       405.41
   78.50        2978.25           2544          90.00       383.61
   78.53        2978.50           2548          87.00       370.54
   78.56        2978.75           2552          91.00       387.97
   78.59        2979.00           2555          88.00       374.90
   78.62        2979.25           2559          96.00       409.77
   78.65        2979.50           2562          92.00       392.33
   78.68        2979.75           2566          85.00       361.82
   78.71        2980.00           2569          93.00       396.69
   78.74        2980.25           2573          86.00       366.18
   78.78        2980.50           2577          79.00       335.66
   78.81        2980.75           2580          79.00       335.66
   78.84        2981.00           2584          80.00       340.02
   78.87        2981.25           2587          86.00       366.18
   78.90        2981.50           2591          97.00       414.13
   78.93        2981.75           2594          93.00       396.69
   78.96        2982.00           2598          82.00       348.74
   78.99        2982.25           2601          85.00       361.82
   79.02        2982.50           2605          84.00       357.46
   79.05        2982.75           2609          87.00       370.54
   79.08        2983.00           2612          76.00       322.58
   79.11        2983.25           2616          77.00       326.94
   79.14        2983.50           2619          79.00       335.66
   79.17        2983.75           2623          75.00       318.22
   79.20        2984.00           2626          84.00       357.46
HS scan finished at 01:19:26
end
************************************************************
  HS Scan of (1) Internal mercury lamp
************************************************************
Integration time is 0.2294 seconds per sample
dh220518Reading 51.44 .94 3.56pr1000
************************************************************
Dead Time -------------------------  3.4E-08 
Number of Cycles Used -------------  4 
Starting Wavelength (Angstroms) ---  2950 
Final Wavelength (Angstoms) -------  2984 
Wavelength Increment (Angstroms) --  .25 
Filter Wheel #1 Position ---------- (1) Ground quartz diffuser (ND=2.32)
Filter Wheel #2 Position ---------- (1) Neutral Density 0.494



************************************************************
HS scan start time = 21:07:25
Dark Count =  3.1 


Time (GMT)  Wavelength (Ang)  Step Number  Raw Counts  Counts/Second

 1268.32        2950.00           2144          53.00       217.53
 1268.51        2950.25           2147          54.00       221.88
 1268.54        2950.50           2151          51.00       208.81
 1268.57        2950.75           2155          59.00       243.68
 1268.60        2951.00           2158          55.00       226.24
 1268.64        2951.25           2162          54.00       221.88
 1268.67        2951.50           2165          59.00       243.68
 1268.70        2951.75           2169          49.00       200.09
 1268.73        2952.00           2172          56.00       230.60
 1268.76        2952.25           2176          59.00       243.68
 1268.79        2952.50           2179          53.00       217.53
 1268.82        2952.75           2183          59.00       243.68
 1268.85        2953.00           2186          61.00       252.40
 1268.88        2953.25           2190          56.00       230.60
 1268.91        2953.50           2193          57.00       234.96
 1268.94        2953.75           2197          59.00       243.68
 1268.97        2954.00           2200          63.00       261.12
 1269.00        2954.25           2204          57.00       234.96
 1269.03        2954.50           2208          61.00       252.40
 1269.06        2954.75           2211          55.00       226.24
 1269.09        2955.00           2215          58.00       239.32
 1269.12        2955.25           2218          55.00       226.24
 1269.16        2955.50           2222          65.00       269.84
 1269.19        2955.75           2225          65.00       269.84
 1269.22        2956.00           2229          65.00       269.84
 1269.25        2956.25           2232          60.00       248.04
 1269.28        2956.50           2236          56.00       230.60
 1269.31        2956.75           2239          60.00       248.04
 1269.34        2957.00           2243          70.00       291.63
 1269.37        2957.25           2246          64.00       265.48
 1269.40        2957.50           2250          68.00       282.91
 1269.43        2957.75           2254          59.00       243.68
 1269.46        2958.00           2257          63.00       261.12
 1269.49        2958.25           2261          60.00       248.04
 1269.52        2958.50           2264          74.00       309.07
 1269.55        2958.75           2268          67.00       278.56
 1269.58        2959.00           2271          76.00       317.79
 1269.61        2959.25           2275          65.00       269.84
 1269.64        2959.50           2278          80.00       335.23
 1269.68        2959.75           2282          79.00       330.87
 1269.71        2960.00           2285          79.00       330.87
 1269.74        2960.25           2289          76.00       317.79
 1269.77        2960.50           2293          78.00       326.51
 1269.80        2960.75           2296          75.00       313.43
 1269.83        2961.00           2300         120.00       509.60
 1269.86        2961.25           2303         336.00      1451.25
 1269.89        2961.50           2307        1095.00      4760.58
 1269.92        2961.75           2310        1793.00      7804.60
 1269.95        2962.00           2314        2805.00     12219.11
 1269.98        2962.25           2317        3657.00     15936.71
 1270.01        2962.50           2321        4791.00     20886.23
 1270.04        2962.75           2324        5540.00     24156.28
 1270.07        2963.00           2328        6684.00     29152.25
 1270.10        2963.25           2331        7476.00     32611.99
 1270.13        2963.50           2335        8630.00     37654.54
 1270.16        2963.75           2339        9848.00     42978.63
 1270.20        2964.00           2342       10687.00     46647.17
 1270.23        2964.25           2346       11776.00     51410.19
 1270.26        2964.50           2349       12594.00     54988.94
 1270.29        2964.75           2353       13683.00     59754.67
 1270.32        2965.00           2356       14667.00     64062.23
 1270.35        2965.25           2360       15797.00     69010.48
 1270.38        2965.50           2363       16522.00     72186.11
 1270.41        2965.75           2367       17665.00     77194.06
 1270.44        2966.00           2370       18367.00     80270.65
 1270.47        2966.25           2374       19315.00     84426.40
 1270.50        2966.50           2378       19667.00     85969.76
 1270.53        2966.75           2381       19645.00     85873.29
 1270.56        2967.00           2385       19910.00     87035.29
 1270.59        2967.25           2388       19722.00     86210.93
 1270.62        2967.50           2392       19685.00     86048.69
 1270.65        2967.75           2395       19357.00     84610.54
 1270.68        2968.00           2399       18509.00     80893.06
 1270.71        2968.25           2402       17934.00     78372.91
 1270.75        2968.50           2406       16798.00     73395.22
 1270.78        2968.75           2409       15827.00     69141.86
 1270.81        2969.00           2413       14768.00     64504.44
 1270.84        2969.25           2417       13678.00     59732.79
 1270.87        2969.50           2420       12690.00     55409.00
 1270.90        2969.75           2424       11724.00     51182.72
 1270.93        2970.00           2427       10746.00     46905.18
 1270.96        2970.25           2431        9683.00     42257.27
 1270.99        2970.50           2434        8731.00     38095.95
 1271.02        2970.75           2438        7450.00     32498.40
 1271.05        2971.00           2441        6547.00     28553.86
 1271.08        2971.25           2445        5526.00     24095.15
 1271.11        2971.50           2449        4314.00     18804.09
 1271.14        2971.75           2452        3531.00     15386.86
 1271.17        2972.00           2456        2523.00     10988.85
 1271.20        2972.25           2459        1715.00      7464.41
 1271.23        2972.50           2463         821.00      3565.82
 1271.27        2972.75           2466         335.00      1446.89
 1271.30        2973.00           2470         117.00       496.52
 1271.33        2973.25           2473          91.00       383.18
 1271.36        2973.50           2477          92.00       387.54
 1271.39        2973.75           2481          74.00       309.07
 1271.42        2974.00           2484          79.00       330.87
 1271.45        2974.25           2488          77.00       322.15
 1271.48        2974.50           2491          70.00       291.63
 1271.51        2974.75           2495          71.00       295.99
 1271.54        2975.00           2498          81.00       339.59
 1271.57        2975.25           2502          72.00       300.35
 1271.60        2975.50           2505          72.00       300.35
 1271.63        2975.75           2509          67.00       278.56
 1271.66        2976.00           2512          66.00       274.20
 1271.69        2976.25           2516          66.00       274.20
 1271.72        2976.50           2520          71.00       295.99
 1271.76        2976.75           2523          75.00       313.43
 1271.79        2977.00           2527          67.00       278.56
 1271.82        2977.25           2530          65.00       269.84
 1271.85        2977.50           2534          62.00       256.76
 1271.88        2977.75           2537          65.00       269.84
 1271.91        2978.00           2541          70.00       291.63
 1271.94        2978.25           2544          53.00       217.53
 1271.97        2978.50           2548          61.00       252.40
 1272.00        2978.75           2552          62.00       256.76
 1272.03        2979.00           2555          56.00       230.60
 1272.06        2979.25           2559          63.00       261.12
 1272.09        2979.50           2562          61.00       252.40
 1272.12        2979.75           2566          58.00       239.32
 1272.15        2980.00           2569          57.00       234.96
 1272.18        2980.25           2573          60.00       248.04
 1272.21        2980.50           2577          55.00       226.24
 1272.24        2980.75           2580          53.00       217.53
 1272.28        2981.00           2584          55.00       226.24
 1272.31        2981.25           2587          55.00       226.24
 1272.34        2981.50           2591          59.00       243.68
 1272.37        2981.75           2594          54.00       221.88
 1272.40        2982.00           2598          56.00       230.60
 1272.43        2982.25           2601          53.00       217.53
 1272.46        2982.50           2605          50.00       204.45
 1272.49        2982.75           2609          55.00       226.24
 1272.52        2983.00           2612          52.00       213.17
 1272.55        2983.25           2616          50.00       204.45
 1272.58        2983.50           2619          49.00       200.09
 1272.61        2983.75           2623          57.00       234.96
 1272.64        2984.00           2626          59.00       243.68
HS scan finished at 21:12:52
end
