************************************************************
  HS Scan of (1) Internal mercury lamp
************************************************************
Integration time is 0.2294 seconds per sample
dh280518Reading 51.44 .94 3.54pr1000
************************************************************
Dead Time -------------------------  3.4E-08 
Number of Cycles Used -------------  4 
Starting Wavelength (Angstroms) ---  2950 
Final Wavelength (Angstoms) -------  2984 
Wavelength Increment (Angstroms) --  .25 
Filter Wheel #1 Position ---------- (1) Ground quartz diffuser (ND=2.32)
Filter Wheel #2 Position ---------- (1) Neutral Density 0.494



************************************************************
HS scan start time = 01:13:18
Dark Count =  2.9 


Time (GMT)  Wavelength (Ang)  Step Number  Raw Counts  Counts/Second

   74.20        2950.00           2144          60.00       248.91
   74.40        2950.25           2147          52.00       214.04
   74.43        2950.50           2151          50.00       205.32
   74.46        2950.75           2155          59.00       244.55
   74.49        2951.00           2158          55.00       227.12
   74.52        2951.25           2162          61.00       253.27
   74.55        2951.50           2165          49.00       200.96
   74.58        2951.75           2169          56.00       231.48
   74.61        2952.00           2172          61.00       253.27
   74.64        2952.25           2176          58.00       240.19
   74.67        2952.50           2179          54.00       222.76
   74.70        2952.75           2183          57.00       235.83
   74.73        2953.00           2186          58.00       240.19
   74.76        2953.25           2190          52.00       214.04
   74.79        2953.50           2193          60.00       248.91
   74.82        2953.75           2197          54.00       222.76
   74.85        2954.00           2200          51.00       209.68
   74.88        2954.25           2204          52.00       214.04
   74.92        2954.50           2208          64.00       266.35
   74.95        2954.75           2211          58.00       240.19
   74.98        2955.00           2215          55.00       227.12
   75.01        2955.25           2218          59.00       244.55
   75.04        2955.50           2222          62.00       257.63
   75.07        2955.75           2225          60.00       248.91
   75.10        2956.00           2229          57.00       235.83
   75.13        2956.25           2232          56.00       231.48
   75.16        2956.50           2236          66.00       275.07
   75.19        2956.75           2239          58.00       240.19
   75.22        2957.00           2243          57.00       235.83
   75.25        2957.25           2246          60.00       248.91
   75.28        2957.50           2250          58.00       240.19
   75.31        2957.75           2254          63.00       261.99
   75.34        2958.00           2257          64.00       266.35
   75.37        2958.25           2261          74.00       309.94
   75.40        2958.50           2264          73.00       305.58
   75.44        2958.75           2268          72.00       301.22
   75.47        2959.00           2271          71.00       296.86
   75.50        2959.25           2275          80.00       336.10
   75.53        2959.50           2278          63.00       261.99
   75.56        2959.75           2282          70.00       292.51
   75.59        2960.00           2285          68.00       283.79
   75.62        2960.25           2289          76.00       318.66
   75.65        2960.50           2293          76.00       318.66
   75.68        2960.75           2296          84.00       353.54
   75.71        2961.00           2300         116.00       493.03
   75.74        2961.25           2303         243.00      1046.68
   75.77        2961.50           2307         832.00      3614.66
   75.80        2961.75           2310        1520.00      6614.83
   75.83        2962.00           2314        2520.00     10976.63
   75.86        2962.25           2317        3323.00     14480.10
   75.89        2962.50           2321        4253.00     18538.71
   75.92        2962.75           2324        5029.00     21926.11
   75.96        2963.00           2328        6220.00     27126.58
   75.99        2963.25           2331        7057.00     30782.42
   76.02        2963.50           2335        8032.00     35042.16
   76.05        2963.75           2339        9100.00     39709.63
   76.08        2964.00           2342        9898.00     43198.10
   76.11        2964.25           2346       10955.00     47820.06
   76.14        2964.50           2349       11789.00     51467.93
   76.17        2964.75           2353       12916.00     56398.80
   76.20        2965.00           2356       13748.00     60040.05
   76.23        2965.25           2360       14868.00     64943.15
   76.26        2965.50           2363       15578.00     68052.22
   76.29        2965.75           2367       16584.00     72458.59
   76.32        2966.00           2370       17224.00     75262.53
   76.35        2966.25           2374       18210.00     79583.40
   76.38        2966.50           2378       18268.00     79837.62
   76.41        2966.75           2381       18333.00     80122.50
   76.44        2967.00           2385       18249.00     79754.34
   76.48        2967.25           2388       18300.00     79977.87
   76.51        2967.50           2392       18265.00     79824.46
   76.54        2967.75           2395       18167.00     79394.94
   76.57        2968.00           2399       17526.00     76585.83
   76.60        2968.25           2402       17411.00     76081.91
   76.63        2968.50           2406       16533.00     72235.18
   76.66        2968.75           2409       15649.00     68363.16
   76.69        2969.00           2413       14502.00     63340.71
   76.72        2969.25           2417       13537.00     59116.53
   76.75        2969.50           2420       12787.00     55834.32
   76.78        2969.75           2424       11738.00     51244.83
   76.81        2970.00           2427       10772.00     47019.74
   76.84        2970.25           2431        9561.00     41724.80
   76.87        2970.50           2434        8682.00     37882.68
   76.90        2970.75           2438        7641.00     33333.75
   76.93        2971.00           2441        6602.00     28794.96
   76.96        2971.25           2445        5764.00     25135.25
   76.99        2971.50           2449        4722.00     20585.90
   77.03        2971.75           2452        3915.00     17063.52
   77.06        2972.00           2456        2867.00     12490.48
   77.09        2972.25           2459        2059.00      8965.68
   77.12        2972.50           2463        1075.00      4674.24
   77.15        2972.75           2466         494.00      2140.96
   77.18        2973.00           2470         161.00       689.21
   77.21        2973.25           2473         117.00       497.39
   77.24        2973.50           2477          92.00       388.41
   77.27        2973.75           2481          83.00       349.18
   77.30        2974.00           2484          77.00       323.02
   77.33        2974.25           2488          76.00       318.66
   77.36        2974.50           2491          77.00       323.02
   77.39        2974.75           2495         105.00       445.08
   77.42        2975.00           2498         111.00       471.24
   77.45        2975.25           2502          73.00       305.58
   77.48        2975.50           2505          68.00       283.79
   77.51        2975.75           2509          72.00       301.22
   77.55        2976.00           2512          64.00       266.35
   77.58        2976.25           2516          76.00       318.66
   77.61        2976.50           2520          71.00       296.86
   77.64        2976.75           2523          68.00       283.79
   77.67        2977.00           2527          71.00       296.86
   77.70        2977.25           2530          60.00       248.91
   77.73        2977.50           2534          62.00       257.63
   77.76        2977.75           2537          66.00       275.07
   77.79        2978.00           2541          73.00       305.58
   77.82        2978.25           2544          70.00       292.51
   77.85        2978.50           2548          66.00       275.07
   77.88        2978.75           2552          60.00       248.91
   77.91        2979.00           2555          60.00       248.91
   77.94        2979.25           2559          58.00       240.19
   77.97        2979.50           2562          57.00       235.83
   78.00        2979.75           2566          64.00       266.35
   78.03        2980.00           2569          61.00       253.27
   78.07        2980.25           2573          60.00       248.91
   78.10        2980.50           2577          64.00       266.35
   78.13        2980.75           2580          65.00       270.71
   78.16        2981.00           2584          68.00       283.79
   78.19        2981.25           2587          58.00       240.19
   78.22        2981.50           2591          58.00       240.19
   78.25        2981.75           2594          49.00       200.96
   78.28        2982.00           2598          54.00       222.76
   78.31        2982.25           2601          59.00       244.55
   78.34        2982.50           2605          58.00       240.19
   78.37        2982.75           2609          58.00       240.19
   78.40        2983.00           2612          56.00       231.48
   78.43        2983.25           2616          57.00       235.83
   78.46        2983.50           2619          61.00       253.27
   78.49        2983.75           2623          58.00       240.19
   78.52        2984.00           2626          61.00       253.27
HS scan finished at 01:18:45
end
************************************************************
  HS Scan of (1) Internal mercury lamp
************************************************************
Integration time is 0.2294 seconds per sample
dh280518Reading 51.44 .94 3.94pr1000
************************************************************
Dead Time -------------------------  3.4E-08 
Number of Cycles Used -------------  4 
Starting Wavelength (Angstroms) ---  2950 
Final Wavelength (Angstoms) -------  2984 
Wavelength Increment (Angstroms) --  .25 
Filter Wheel #1 Position ---------- (1) Ground quartz diffuser (ND=2.32)
Filter Wheel #2 Position ---------- (1) Neutral Density 0.494



************************************************************
HS scan start time = 21:09:58
Dark Count =  8.8 


Time (GMT)  Wavelength (Ang)  Step Number  Raw Counts  Counts/Second

 1270.86        2950.00           2144          48.00       170.88
 1271.05        2950.25           2147          42.00       144.73
 1271.08        2950.50           2151          48.00       170.88
 1271.12        2950.75           2155          44.00       153.44
 1271.15        2951.00           2158          43.00       149.09
 1271.18        2951.25           2162          53.00       192.68
 1271.21        2951.50           2165          48.00       170.88
 1271.24        2951.75           2169          49.00       175.24
 1271.27        2952.00           2172          37.00       122.93
 1271.30        2952.25           2176          42.00       144.73
 1271.33        2952.50           2179          48.00       170.88
 1271.36        2952.75           2183          49.00       175.24
 1271.39        2953.00           2186          48.00       170.88
 1271.42        2953.25           2190          46.00       162.16
 1271.45        2953.50           2193          54.00       197.04
 1271.48        2953.75           2197          44.00       153.44
 1271.51        2954.00           2200          49.00       175.24
 1271.54        2954.25           2204          48.00       170.88
 1271.57        2954.50           2208          49.00       175.24
 1271.60        2954.75           2211          48.00       170.88
 1271.63        2955.00           2215          52.00       188.32
 1271.67        2955.25           2218          58.00       214.47
 1271.70        2955.50           2222          52.00       188.32
 1271.73        2955.75           2225          54.00       197.04
 1271.76        2956.00           2229          54.00       197.04
 1271.79        2956.25           2232          53.00       192.68
 1271.82        2956.50           2236          49.00       175.24
 1271.85        2956.75           2239          52.00       188.32
 1271.88        2957.00           2243          50.00       179.60
 1271.91        2957.25           2246          51.00       183.96
 1271.94        2957.50           2250          45.00       157.80
 1271.97        2957.75           2254          45.00       157.80
 1272.00        2958.00           2257          50.00       179.60
 1272.03        2958.25           2261          55.00       201.40
 1272.06        2958.50           2264          52.00       188.32
 1272.09        2958.75           2268          61.00       227.55
 1272.12        2959.00           2271          58.00       214.47
 1272.15        2959.25           2275          60.00       223.19
 1272.19        2959.50           2278          57.00       210.11
 1272.22        2959.75           2282          58.00       214.47
 1272.25        2960.00           2285          64.00       240.63
 1272.28        2960.25           2289          64.00       240.63
 1272.31        2960.50           2293          64.00       240.63
 1272.34        2960.75           2296          64.00       240.63
 1272.38        2961.00           2300          87.00       340.89
 1272.41        2961.25           2303         159.00       654.77
 1272.45        2961.50           2307         586.00      2516.34
 1272.48        2961.75           2310        1173.00      5075.85
 1272.51        2962.00           2314        1849.00      8023.99
 1272.54        2962.25           2317        2427.00     10545.19
 1272.57        2962.50           2321        3157.00     13730.04
 1272.60        2962.75           2324        3809.00     16575.16
 1272.63        2963.00           2328        4648.00     20237.11
 1272.66        2963.25           2331        5220.00     22734.22
 1272.69        2963.50           2335        6067.00     26432.64
 1272.72        2963.75           2339        6935.00     30223.72
 1272.75        2964.00           2342        7692.00     33530.80
 1272.78        2964.25           2346        8453.00     36856.10
 1272.81        2964.50           2349        9208.00     40155.93
 1272.84        2964.75           2353        9882.00     43102.35
 1272.87        2965.00           2356       10430.00     45498.41
 1272.90        2965.25           2360       11274.00     49189.44
 1272.93        2965.50           2363       12026.00     52478.91
 1272.97        2965.75           2367       12763.00     55703.48
 1273.00        2966.00           2370       13304.00     58070.96
 1273.03        2966.25           2374       13850.00     60460.69
 1273.06        2966.50           2378       14245.00     62189.78
 1273.09        2966.75           2381       14234.00     62141.62
 1273.12        2967.00           2385       14262.00     62264.20
 1273.15        2967.25           2388       14334.00     62579.39
 1273.18        2967.50           2392       14183.00     61918.36
 1273.21        2967.75           2395       14299.00     62426.17
 1273.24        2968.00           2399       13602.00     59375.20
 1273.27        2968.25           2402       13015.00     56806.22
 1273.30        2968.50           2406       12211.00     53288.27
 1273.33        2968.75           2409       11817.00     51564.61
 1273.36        2969.00           2413       11007.00     48021.68
 1273.39        2969.25           2417       10150.00     44274.10
 1273.42        2969.50           2420        9886.00     43119.84
 1273.45        2969.75           2424        8942.00     38993.26
 1273.49        2970.00           2427        8256.00     35995.21
 1273.52        2970.25           2431        7155.00     31184.75
 1273.55        2970.50           2434        6476.00     28218.87
 1273.58        2970.75           2438        5602.00     24402.11
 1273.61        2971.00           2441        4914.00     21398.30
 1273.64        2971.25           2445        4088.00     17792.80
 1273.67        2971.50           2449        3298.00     14345.27
 1273.70        2971.75           2452        2751.00     11958.65
 1273.73        2972.00           2456        2008.00      8717.49
 1273.76        2972.25           2459        1518.00      6580.37
 1273.79        2972.50           2463         695.00      2991.59
 1273.82        2972.75           2466         292.00      1234.58
 1273.85        2973.00           2470         113.00       454.24
 1273.88        2973.25           2473          73.00       279.86
 1273.91        2973.50           2477          69.00       262.43
 1273.94        2973.75           2481          63.00       236.27
 1273.97        2974.00           2484          64.00       240.63
 1274.01        2974.25           2488          54.00       197.04
 1274.04        2974.50           2491          67.00       253.71
 1274.07        2974.75           2495          63.00       236.27
 1274.10        2975.00           2498          58.00       214.47
 1274.13        2975.25           2502          56.00       205.76
 1274.16        2975.50           2505          57.00       210.11
 1274.19        2975.75           2509          58.00       214.47
 1274.22        2976.00           2512          58.00       214.47
 1274.25        2976.25           2516          59.00       218.83
 1274.28        2976.50           2520          58.00       214.47
 1274.31        2976.75           2523          60.00       223.19
 1274.34        2977.00           2527          69.00       262.43
 1274.37        2977.25           2530          61.00       227.55
 1274.40        2977.50           2534          52.00       188.32
 1274.43        2977.75           2537          56.00       205.76
 1274.46        2978.00           2541          49.00       175.24
 1274.49        2978.25           2544          56.00       205.76
 1274.52        2978.50           2548          44.00       153.44
 1274.56        2978.75           2552          56.00       205.76
 1274.59        2979.00           2555          47.00       166.52
 1274.62        2979.25           2559          49.00       175.24
 1274.65        2979.50           2562          59.00       218.83
 1274.68        2979.75           2566          45.00       157.80
 1274.71        2980.00           2569          68.00       258.07
 1274.74        2980.25           2573          61.00       227.55
 1274.77        2980.50           2577          52.00       188.32
 1274.80        2980.75           2580          50.00       179.60
 1274.83        2981.00           2584          48.00       170.88
 1274.86        2981.25           2587          43.00       149.09
 1274.89        2981.50           2591          51.00       183.96
 1274.92        2981.75           2594          49.00       175.24
 1274.95        2982.00           2598          46.00       162.16
 1274.98        2982.25           2601          48.00       170.88
 1275.01        2982.50           2605          50.00       179.60
 1275.04        2982.75           2609          48.00       170.88
 1275.08        2983.00           2612          51.00       183.96
 1275.11        2983.25           2616          43.00       149.09
 1275.14        2983.50           2619          51.00       183.96
 1275.17        2983.75           2623          47.00       166.52
 1275.20        2984.00           2626          47.00       166.52
HS scan finished at 21:15:25
end
