************************************************************
  HS Scan of (1) Internal mercury lamp
************************************************************
Integration time is 0.2294 seconds per sample
dh210519Reading 51.44 .94 3.19pr1000
************************************************************
Dead Time -------------------------  3.4E-08 
Number of Cycles Used -------------  4 
Starting Wavelength (Angstroms) ---  2950 
Final Wavelength (Angstoms) -------  2984 
Wavelength Increment (Angstroms) --  .25 
Filter Wheel #1 Position ---------- (1) Ground quartz diffuser (ND=2.32)
Filter Wheel #2 Position ---------- (1) Neutral Density 0.494



************************************************************
HS scan start time = 01:12:35
Dark Count =  1 


Time (GMT)  Wavelength (Ang)  Step Number  Raw Counts  Counts/Second

   73.48        2950.00           2144        1482.00      6457.39
   73.67        2950.25           2147        1471.00      6409.42
   73.70        2950.50           2151        1474.00      6422.50
   73.73        2950.75           2155        1495.00      6514.08
   73.76        2951.00           2158        1467.00      6391.97
   73.80        2951.25           2162        1487.00      6479.20
   73.84        2951.50           2165        1526.00      6649.28
   73.87        2951.75           2169        1529.00      6662.36
   73.90        2952.00           2172        1518.00      6614.39
   73.93        2952.25           2176        1542.00      6719.06
   73.96        2952.50           2179        1527.00      6653.64
   73.99        2952.75           2183        1553.00      6767.03
   74.02        2953.00           2186        1539.00      6705.98
   74.05        2953.25           2190        1542.00      6719.06
   74.08        2953.50           2193        1554.00      6771.39
   74.11        2953.75           2197        1544.00      6727.78
   74.14        2954.00           2200        1579.00      6880.42
   74.18        2954.25           2204        1593.00      6941.48
   74.21        2954.50           2208        1561.00      6801.92
   74.24        2954.75           2211        1580.00      6884.79
   74.27        2955.00           2215        1625.00      7081.04
   74.30        2955.25           2218        1615.00      7037.43
   74.33        2955.50           2222        1607.00      7002.54
   74.36        2955.75           2225        1639.00      7142.10
   74.39        2956.00           2229        1658.00      7224.97
   74.42        2956.25           2232        1641.00      7150.82
   74.45        2956.50           2236        1654.00      7207.52
   74.48        2956.75           2239        1643.00      7159.55
   74.51        2957.00           2243        1687.00      7351.45
   74.54        2957.25           2246        1715.00      7473.56
   74.57        2957.50           2250        1697.00      7395.06
   74.60        2957.75           2254        1741.00      7586.96
   74.63        2958.00           2257        1755.00      7648.02
   74.66        2958.25           2261        1778.00      7748.34
   74.69        2958.50           2264        1780.00      7757.06
   74.73        2958.75           2268        1790.00      7800.67
   74.76        2959.00           2271        1853.00      8075.45
   74.79        2959.25           2275        1837.00      8005.67
   74.82        2959.50           2278        1848.00      8053.64
   74.85        2959.75           2282        1968.00      8577.04
   74.88        2960.00           2285        1943.00      8468.00
   74.91        2960.25           2289        1930.00      8411.30
   74.94        2960.50           2293        2016.00      8786.41
   74.97        2960.75           2296        2076.00      9048.12
   75.00        2961.00           2300        2235.00      9741.67
   75.03        2961.25           2303        2943.00     12830.36
   75.06        2961.50           2307        8003.00     34923.75
   75.09        2961.75           2310       17990.00     78627.53
   75.12        2962.00           2314       39463.00    173037.70
   75.15        2962.25           2317       56801.00    249713.60
   75.18        2962.50           2321       80091.00    353347.80
   75.21        2962.75           2324       99470.00    440142.70
   75.25        2963.00           2328      127491.00    566563.50
   75.28        2963.25           2331      148149.00    660472.80
   75.31        2963.50           2335      174748.00    782289.80
   75.34        2963.75           2339      198811.00    893380.60
   75.37        2964.00           2342      218633.00    985536.60
   75.40        2964.25           2346      244831.00   1108245.00
   75.43        2964.50           2349      264889.00   1202904.00
   75.46        2964.75           2353      293982.00   1341318.00
   75.49        2965.00           2356      313258.00   1433766.00
   75.52        2965.25           2360      336561.00   1546330.00
   75.55        2965.50           2363      354534.00   1633757.00
   75.58        2965.75           2367      380264.00   1759854.00
   75.61        2966.00           2370      400046.00   1857566.00
   75.64        2966.25           2374      423044.00   1972014.00
   75.67        2966.50           2378      435823.00   2036008.00
   75.70        2966.75           2381      439431.00   2054129.00
   75.74        2967.00           2385      439970.00   2056837.00
   75.77        2967.25           2388      438965.00   2051787.00
   75.80        2967.50           2392      440509.00   2059547.00
   75.83        2967.75           2395      439274.00   2053339.00
   75.86        2968.00           2399      431180.00   2012723.00
   75.89        2968.25           2402      417165.00   1942669.00
   75.92        2968.50           2406      393069.00   1823027.00
   75.95        2968.75           2409      375567.00   1736752.00
   75.98        2969.00           2413      353418.00   1628312.00
   76.01        2969.25           2417      331147.00   1520099.00
   76.04        2969.50           2420      312899.00   1432039.00
   76.07        2969.75           2424      285766.00   1302094.00
   76.10        2970.00           2427      264234.00   1199803.00
   76.13        2970.25           2431      237805.00   1075233.00
   76.16        2970.50           2434      218252.00    983759.80
   76.19        2970.75           2438      191698.00    860453.40
   76.22        2971.00           2441      170914.00    764667.80
   76.25        2971.25           2445      143432.00    638976.30
   76.29        2971.50           2449      117754.00    522509.30
   76.32        2971.75           2452       98112.00    434043.70
   76.35        2972.00           2456       72229.00    318281.90
   76.38        2972.25           2459       53338.00    234366.70
   76.41        2972.50           2463       28589.00    125152.20
   76.44        2972.75           2466       14074.00     61475.35
   76.47        2973.00           2470        4901.00     21375.60
   76.50        2973.25           2473        2777.00     12106.12
   76.53        2973.50           2477        2203.00      9602.09
   76.56        2973.75           2481        2103.00      9165.89
   76.59        2974.00           2484        2008.00      8751.51
   76.62        2974.25           2488        1977.00      8616.30
   76.65        2974.50           2491        1965.00      8563.96
   76.68        2974.75           2495        1967.00      8572.68
   76.71        2975.00           2498        1903.00      8293.53
   76.74        2975.25           2502        1803.00      7857.37
   76.77        2975.50           2505        1807.00      7874.82
   76.81        2975.75           2509        1822.00      7940.24
   76.84        2976.00           2512        1813.00      7900.99
   76.87        2976.25           2516        1750.00      7626.21
   76.90        2976.50           2520        1732.00      7547.71
   76.93        2976.75           2523        1717.00      7482.29
   76.96        2977.00           2527        1705.00      7429.95
   76.99        2977.25           2530        1711.00      7456.12
   77.02        2977.50           2534        1685.00      7342.72
   77.05        2977.75           2537        1647.00      7176.99
   77.08        2978.00           2541        1615.00      7037.43
   77.11        2978.25           2544        1639.00      7142.10
   77.14        2978.50           2548        1608.00      7006.90
   77.17        2978.75           2552        1617.00      7046.15
   77.20        2979.00           2555        1594.00      6945.84
   77.23        2979.25           2559        1560.00      6797.56
   77.26        2979.50           2562        1583.00      6897.87
   77.29        2979.75           2566        1545.00      6732.14
   77.33        2980.00           2569        1552.00      6762.67
   77.36        2980.25           2573        1576.00      6867.34
   77.39        2980.50           2577        1517.00      6610.03
   77.42        2980.75           2580        1508.00      6570.78
   77.45        2981.00           2584        1570.00      6841.17
   77.48        2981.25           2587        1523.00      6636.20
   77.51        2981.50           2591        1520.00      6623.11
   77.54        2981.75           2594        1490.00      6492.28
   77.57        2982.00           2598        1456.00      6344.00
   77.60        2982.25           2601        1473.00      6418.14
   77.63        2982.50           2605        1488.00      6483.56
   77.66        2982.75           2609        1470.00      6405.06
   77.69        2983.00           2612        1464.00      6378.89
   77.72        2983.25           2616        1477.00      6435.58
   77.75        2983.50           2619        1431.00      6234.97
   77.78        2983.75           2623        1441.00      6278.59
   77.81        2984.00           2626        1451.00      6322.20
HS scan finished at 01:18:02
end
************************************************************
  HS Scan of (1) Internal mercury lamp
************************************************************
Integration time is 0.2294 seconds per sample
dh210519Reading 51.44 .94 3.6pr1000
************************************************************
Dead Time -------------------------  3.4E-08 
Number of Cycles Used -------------  4 
Starting Wavelength (Angstroms) ---  2950 
Final Wavelength (Angstoms) -------  2984 
Wavelength Increment (Angstroms) --  .25 
Filter Wheel #1 Position ---------- (1) Ground quartz diffuser (ND=2.32)
Filter Wheel #2 Position ---------- (1) Neutral Density 0.494



************************************************************
HS scan start time = 20:39:51
Dark Count =  3.1 


Time (GMT)  Wavelength (Ang)  Step Number  Raw Counts  Counts/Second

 1240.75        2950.00           2144        1197.00      5205.37
 1240.95        2950.25           2147        1135.00      4935.00
 1240.98        2950.50           2151        1206.00      5244.61
 1241.01        2950.75           2155        1183.00      5144.32
 1241.04        2951.00           2158        1209.00      5257.70
 1241.07        2951.25           2162        1177.00      5118.15
 1241.10        2951.50           2165        1172.00      5096.35
 1241.13        2951.75           2169        1212.00      5270.78
 1241.16        2952.00           2172        1218.00      5296.94
 1241.19        2952.25           2176        1180.00      5131.24
 1241.22        2952.50           2179        1187.00      5161.76
 1241.25        2952.75           2183        1200.00      5218.45
 1241.28        2953.00           2186        1223.00      5318.75
 1241.31        2953.25           2190        1218.00      5296.94
 1241.34        2953.50           2193        1275.00      5545.51
 1241.37        2953.75           2197        1222.00      5314.39
 1241.40        2954.00           2200        1253.00      5449.57
 1241.43        2954.25           2204        1210.00      5262.06
 1241.47        2954.50           2208        1256.00      5462.65
 1241.50        2954.75           2211        1273.00      5536.79
 1241.53        2955.00           2215        1284.00      5584.76
 1241.56        2955.25           2218        1264.00      5497.54
 1241.59        2955.50           2222        1292.00      5619.64
 1241.62        2955.75           2225        1290.00      5610.92
 1241.65        2956.00           2229        1305.00      5676.34
 1241.68        2956.25           2232        1256.00      5462.65
 1241.71        2956.50           2236        1302.00      5663.25
 1241.74        2956.75           2239        1347.00      5859.49
 1241.77        2957.00           2243        1315.00      5719.94
 1241.80        2957.25           2246        1349.00      5868.22
 1241.83        2957.50           2250        1379.00      5999.04
 1241.86        2957.75           2254        1389.00      6042.65
 1241.89        2958.00           2257        1421.00      6182.21
 1241.92        2958.25           2261        1430.00      6221.46
 1241.95        2958.50           2264        1444.00      6282.51
 1241.99        2958.75           2268        1413.00      6147.32
 1242.02        2959.00           2271        1478.00      6430.79
 1242.05        2959.25           2275        1476.00      6422.07
 1242.08        2959.50           2278        1545.00      6722.98
 1242.11        2959.75           2282        1515.00      6592.15
 1242.14        2960.00           2285        1524.00      6631.40
 1242.17        2960.25           2289        1620.00      7050.08
 1242.20        2960.50           2293        1601.00      6967.21
 1242.23        2960.75           2296        1642.00      7146.03
 1242.26        2961.00           2300        1798.00      7826.41
 1242.29        2961.25           2303        2455.00     10692.20
 1242.32        2961.50           2307        7438.00     32445.98
 1242.35        2961.75           2310       16888.00     73789.52
 1242.38        2962.00           2314       35076.00    153690.70
 1242.41        2962.25           2317       50001.00    219584.00
 1242.44        2962.50           2321       72777.00    320714.00
 1242.47        2962.75           2324       90585.00    400275.00
 1242.51        2963.00           2328      113452.00    503078.00
 1242.54        2963.25           2331      128681.00    571947.20
 1242.57        2963.50           2335      152042.00    678228.50
 1242.60        2963.75           2339      174636.00    781765.00
 1242.63        2964.00           2342      193274.00    867732.80
 1242.66        2964.25           2346      216578.00    975945.50
 1242.69        2964.50           2349      233918.00   1056993.00
 1242.72        2964.75           2353      253849.00   1150716.00
 1242.75        2965.00           2356      270892.00   1231345.00
 1242.78        2965.25           2360      292196.00   1332773.00
 1242.81        2965.50           2363      308094.00   1408931.00
 1242.84        2965.75           2367      329555.00   1512385.00
 1242.87        2966.00           2370      345342.00   1588967.00
 1242.90        2966.25           2374      363662.00   1678353.00
 1242.93        2966.50           2378      376265.00   1740172.00
 1242.96        2966.75           2381      379004.00   1753643.00
 1242.99        2967.00           2385      381066.00   1763792.00
 1243.03        2967.25           2388      379646.00   1756802.00
 1243.06        2967.50           2392      381163.00   1764270.00
 1243.09        2967.75           2395      380856.00   1762758.00
 1243.12        2968.00           2399      375280.00   1735331.00
 1243.15        2968.25           2402      363933.00   1679680.00
 1243.18        2968.50           2406      347515.00   1599540.00
 1243.21        2968.75           2409      334305.00   1535384.00
 1243.24        2969.00           2413      314547.00   1439960.00
 1243.27        2969.25           2417      291952.00   1331607.00
 1243.30        2969.50           2420      274870.00   1250230.00
 1243.33        2969.75           2424      252661.00   1145113.00
 1243.36        2970.00           2427      237336.00   1073023.00
 1243.39        2970.25           2431      213779.00    962905.40
 1243.42        2970.50           2434      197153.00    885689.10
 1243.45        2970.75           2438      175388.00    785223.80
 1243.48        2971.00           2441      159664.00    713073.80
 1243.51        2971.25           2445      135051.00    600850.80
 1243.55        2971.50           2449      111296.00    493354.30
 1243.58        2971.75           2452       93074.00    411429.80
 1243.61        2972.00           2456       69801.00    307460.20
 1243.64        2972.25           2459       53384.00    234561.10
 1243.67        2972.50           2463       32364.00    141749.10
 1243.70        2972.75           2466       17616.00     76979.33
 1243.73        2973.00           2470        5472.00     23859.37
 1243.76        2973.25           2473        2525.00     10997.57
 1243.79        2973.50           2477        1803.00      7848.22
 1243.82        2973.75           2481        1712.00      7451.32
 1243.85        2974.00           2484        1644.00      7154.75
 1243.88        2974.25           2488        1633.00      7106.77
 1243.91        2974.50           2491        1605.00      6984.66
 1243.94        2974.75           2495        1554.00      6762.24
 1243.97        2975.00           2498        1520.00      6613.96
 1244.00        2975.25           2502        1505.00      6548.54
 1244.03        2975.50           2505        1507.00      6557.26
 1244.07        2975.75           2509        1496.00      6509.29
 1244.10        2976.00           2512        1471.00      6400.26
 1244.13        2976.25           2516        1414.00      6151.68
 1244.16        2976.50           2520        1443.00      6278.15
 1244.19        2976.75           2523        1432.00      6230.18
 1244.22        2977.00           2527        1386.00      6029.57
 1244.25        2977.25           2530        1383.00      6016.49
 1244.28        2977.50           2534        1369.00      5955.43
 1244.31        2977.75           2537        1364.00      5933.63
 1244.34        2978.00           2541        1329.00      5781.00
 1244.37        2978.25           2544        1297.00      5641.45
 1244.40        2978.50           2548        1259.00      5475.74
 1244.43        2978.75           2552        1258.00      5471.38
 1244.46        2979.00           2555        1279.00      5562.95
 1244.49        2979.25           2559        1249.00      5432.13
 1244.52        2979.50           2562        1278.00      5558.59
 1244.55        2979.75           2566        1262.00      5488.82
 1244.58        2980.00           2569        1243.00      5405.96
 1244.62        2980.25           2573        1203.00      5231.53
 1244.65        2980.50           2577        1212.00      5270.78
 1244.68        2980.75           2580        1186.00      5157.40
 1244.71        2981.00           2584        1184.00      5148.68
 1244.74        2981.25           2587        1176.00      5113.79
 1244.77        2981.50           2591        1213.00      5275.14
 1244.80        2981.75           2594        1199.00      5214.09
 1244.83        2982.00           2598        1207.00      5248.98
 1244.86        2982.25           2601        1199.00      5214.09
 1244.89        2982.50           2605        1157.00      5030.94
 1244.92        2982.75           2609        1116.00      4852.15
 1244.95        2983.00           2612        1140.00      4956.81
 1244.98        2983.25           2616        1137.00      4943.73
 1245.01        2983.50           2619        1158.00      5035.30
 1245.04        2983.75           2623        1140.00      4956.81
 1245.07        2984.00           2626        1181.00      5135.60
HS scan finished at 20:45:18
end
