************************************************************
  HS Scan of 
************************************************************
Integration time is 0.2294 seconds per sample
dh210517Reading 51.44 .94 2.92pr1000
************************************************************
Dead Time -------------------------  3.4E-08 
Number of Cycles Used -------------  4 
Starting Wavelength (Angstroms) ---  2950 
Final Wavelength (Angstoms) -------  2984 
Wavelength Increment (Angstroms) --  .25 
Filter Wheel #1 Position ---------- (1) Ground quartz diffuser (ND=2.32)
Filter Wheel #2 Position ---------- (1) Neutral Density 0.494



************************************************************
HS scan start time = 01:12:33
Dark Count =  .7 


Time (GMT)  Wavelength (Ang)  Step Number  Raw Counts  Counts/Second

   73.44        2950.00           2144         448.00      1950.00
   73.63        2950.25           2147         457.00      1989.24
   73.66        2950.50           2151         472.00      2054.63
   73.69        2950.75           2155         472.00      2054.63
   73.72        2951.00           2158         492.00      2141.83
   73.75        2951.25           2162         470.00      2045.91
   73.78        2951.50           2165         479.00      2085.15
   73.82        2951.75           2169         488.00      2124.39
   73.85        2952.00           2172         470.00      2045.91
   73.88        2952.25           2176         460.00      2002.32
   73.91        2952.50           2179         481.00      2093.87
   73.94        2952.75           2183         500.00      2176.71
   73.97        2953.00           2186         499.00      2172.35
   74.00        2953.25           2190         480.00      2089.51
   74.03        2953.50           2193         471.00      2050.27
   74.06        2953.75           2197         478.00      2080.79
   74.09        2954.00           2200         522.00      2272.63
   74.12        2954.25           2204         483.00      2102.59
   74.15        2954.50           2208         488.00      2124.39
   74.18        2954.75           2211         503.00      2189.79
   74.21        2955.00           2215         516.00      2246.47
   74.24        2955.25           2218         513.00      2233.39
   74.27        2955.50           2222         519.00      2259.55
   74.30        2955.75           2225         503.00      2189.79
   74.34        2956.00           2229         510.00      2220.31
   74.37        2956.25           2232         494.00      2150.55
   74.40        2956.50           2236         526.00      2290.07
   74.43        2956.75           2239         527.00      2294.42
   74.46        2957.00           2243         547.00      2381.62
   74.49        2957.25           2246         535.00      2329.30
   74.52        2957.50           2250         556.00      2420.86
   74.55        2957.75           2254         546.00      2377.26
   74.58        2958.00           2257         559.00      2433.94
   74.61        2958.25           2261         553.00      2407.78
   74.64        2958.50           2264         548.00      2385.98
   74.67        2958.75           2268         565.00      2460.10
   74.70        2959.00           2271         574.00      2499.34
   74.73        2959.25           2275         591.00      2573.46
   74.76        2959.50           2278         617.00      2686.82
   74.79        2959.75           2282         591.00      2573.46
   74.82        2960.00           2285         608.00      2647.58
   74.86        2960.25           2289         638.00      2778.38
   74.89        2960.50           2293         638.00      2778.38
   74.92        2960.75           2296         672.00      2926.62
   74.95        2961.00           2300         807.00      3515.24
   74.98        2961.25           2303        1330.00      5795.82
   75.01        2961.50           2307        4662.00     20333.58
   75.04        2961.75           2310        9138.00     39885.36
   75.07        2962.00           2314       16485.00     72034.53
   75.10        2962.25           2317       22556.00     98653.37
   75.13        2962.50           2321       31226.00    136751.60
   75.16        2962.75           2324       38006.00    166613.80
   75.19        2963.00           2328       46918.00    205959.00
   75.22        2963.25           2331       54165.00    238031.50
   75.25        2963.50           2335       62745.00    276094.50
   75.28        2963.75           2339       71202.00    313708.90
   75.31        2964.00           2342       77629.00    342359.20
   75.34        2964.25           2346       86825.00    383451.00
   75.38        2964.50           2349       93427.00    413023.20
   75.41        2964.75           2353      101267.00    448218.70
   75.44        2965.00           2356      108028.00    478638.60
   75.47        2965.25           2360      116128.00    515166.80
   75.50        2965.50           2363      121436.00    539153.80
   75.53        2965.75           2367      129328.00    574891.20
   75.56        2966.00           2370      135757.00    604068.60
   75.59        2966.25           2374      142835.00    636259.30
   75.62        2966.50           2378      147180.00    656055.60
   75.65        2966.75           2381      148322.00    661263.10
   75.68        2967.00           2385      148666.00    662832.10
   75.71        2967.25           2388      148064.00    660086.60
   75.74        2967.50           2392      148425.00    661733.00
   75.77        2967.75           2395      147643.00    658166.70
   75.80        2968.00           2399      144017.00    641641.90
   75.83        2968.25           2402      139067.00    619113.60
   75.86        2968.50           2406      130762.00    581394.20
   75.90        2968.75           2409      124562.00    553298.90
   75.93        2969.00           2413      117187.00    519949.40
   75.96        2969.25           2417      109802.00    486630.90
   75.99        2969.50           2420      102965.00    455852.60
   76.02        2969.75           2424       93988.00    415538.80
   76.05        2970.00           2427       87045.00    384435.50
   76.08        2970.25           2431       77804.00    343140.00
   76.11        2970.50           2434       71502.00    315045.00
   76.14        2970.75           2438       62843.00    276529.80
   76.17        2971.00           2441       55818.00    245357.00
   76.20        2971.25           2445       45676.00    200469.40
   76.23        2971.50           2449       36513.00    160032.70
   76.26        2971.75           2452       30372.00    132994.50
   76.29        2972.00           2456       22088.00     96599.66
   76.32        2972.25           2459       16049.00     70124.71
   76.35        2972.50           2463        8548.00     37306.66
   76.38        2972.75           2466        4088.00     17828.15
   76.42        2973.00           2470        1423.00      6201.40
   76.45        2973.25           2473         827.00      3602.45
   76.48        2973.50           2477         695.00      3026.90
   76.51        2973.75           2481         651.00      2835.06
   76.54        2974.00           2484         667.00      2904.82
   76.57        2974.25           2488         629.00      2739.14
   76.60        2974.50           2491         639.00      2782.74
   76.63        2974.75           2495         597.00      2599.62
   76.66        2975.00           2498         602.00      2621.42
   76.69        2975.25           2502         618.00      2691.18
   76.72        2975.50           2505         596.00      2595.26
   76.75        2975.75           2509         566.00      2464.46
   76.79        2976.00           2512         558.00      2429.58
   76.83        2976.25           2516         563.00      2451.38
   76.86        2976.50           2520         555.00      2416.50
   76.89        2976.75           2523         562.00      2447.02
   76.92        2977.00           2527         571.00      2486.26
   76.95        2977.25           2530         540.00      2351.10
   76.98        2977.50           2534         565.00      2460.10
   77.01        2977.75           2537         534.00      2324.94
   77.04        2978.00           2541         534.00      2324.94
   77.07        2978.25           2544         547.00      2381.62
   77.10        2978.50           2548         522.00      2272.63
   77.13        2978.75           2552         525.00      2285.71
   77.16        2979.00           2555         535.00      2329.30
   77.19        2979.25           2559         512.00      2229.03
   77.23        2979.50           2562         479.00      2085.15
   77.26        2979.75           2566         524.00      2281.35
   77.29        2980.00           2569         486.00      2115.67
   77.32        2980.25           2573         486.00      2115.67
   77.35        2980.50           2577         503.00      2189.79
   77.38        2980.75           2580         496.00      2159.27
   77.41        2981.00           2584         488.00      2124.39
   77.44        2981.25           2587         485.00      2111.31
   77.47        2981.50           2591         480.00      2089.51
   77.50        2981.75           2594         469.00      2041.55
   77.53        2982.00           2598         469.00      2041.55
   77.56        2982.25           2601         459.00      1997.96
   77.59        2982.50           2605         469.00      2041.55
   77.62        2982.75           2609         485.00      2111.31
   77.65        2983.00           2612         472.00      2054.63
   77.68        2983.25           2616         489.00      2128.75
   77.71        2983.50           2619         443.00      1928.20
   77.75        2983.75           2623         483.00      2102.59
   77.78        2984.00           2626         454.00      1976.16
HS scan finished at 01:18:00
end
************************************************************
  HS Scan of 
************************************************************
Integration time is 0.2294 seconds per sample
dh210517Reading 51.44 .94 3.45pr1000
************************************************************
Dead Time -------------------------  3.4E-08 
Number of Cycles Used -------------  4 
Starting Wavelength (Angstroms) ---  2950 
Final Wavelength (Angstoms) -------  2984 
Wavelength Increment (Angstroms) --  .25 
Filter Wheel #1 Position ---------- (1) Ground quartz diffuser (ND=2.32)
Filter Wheel #2 Position ---------- (1) Neutral Density 0.494



************************************************************
HS scan start time = 21:07:27
Dark Count =  2.9 


Time (GMT)  Wavelength (Ang)  Step Number  Raw Counts  Counts/Second

 1268.34        2950.00           2144         337.00      1456.48
 1268.53        2950.25           2147         346.00      1495.72
 1268.56        2950.50           2151         331.00      1430.32
 1268.59        2950.75           2155         358.00      1548.03
 1268.63        2951.00           2158         343.00      1482.64
 1268.66        2951.25           2162         342.00      1478.28
 1268.69        2951.50           2165         347.00      1500.08
 1268.72        2951.75           2169         356.00      1539.31
 1268.75        2952.00           2172         332.00      1434.68
 1268.78        2952.25           2176         375.00      1622.15
 1268.81        2952.50           2179         366.00      1582.91
 1268.84        2952.75           2183         370.00      1600.35
 1268.87        2953.00           2186         352.00      1521.87
 1268.90        2953.25           2190         391.00      1691.90
 1268.93        2953.50           2193         357.00      1543.67
 1268.96        2953.75           2197         372.00      1609.07
 1268.99        2954.00           2200         392.00      1696.26
 1269.02        2954.25           2204         358.00      1548.03
 1269.05        2954.50           2208         380.00      1643.95
 1269.08        2954.75           2211         347.00      1500.08
 1269.11        2955.00           2215         367.00      1587.27
 1269.15        2955.25           2218         391.00      1691.90
 1269.18        2955.50           2222         367.00      1587.27
 1269.21        2955.75           2225         392.00      1696.26
 1269.24        2956.00           2229         390.00      1687.54
 1269.27        2956.25           2232         384.00      1661.38
 1269.30        2956.50           2236         383.00      1657.02
 1269.33        2956.75           2239         397.00      1718.06
 1269.36        2957.00           2243         378.00      1635.23
 1269.40        2957.25           2246         408.00      1766.02
 1269.44        2957.50           2250         388.00      1678.82
 1269.47        2957.75           2254         403.00      1744.22
 1269.50        2958.00           2257         421.00      1822.69
 1269.53        2958.25           2261         412.00      1783.46
 1269.56        2958.50           2264         401.00      1735.50
 1269.59        2958.75           2268         429.00      1857.57
 1269.62        2959.00           2271         427.00      1848.85
 1269.65        2959.25           2275         436.00      1888.09
 1269.68        2959.50           2278         447.00      1936.05
 1269.71        2959.75           2282         458.00      1984.00
 1269.74        2960.00           2285         459.00      1988.36
 1269.77        2960.25           2289         474.00      2053.76
 1269.80        2960.50           2293         486.00      2106.08
 1269.83        2960.75           2296         480.00      2079.92
 1269.86        2961.00           2300         541.00      2345.87
 1269.89        2961.25           2303         789.00      3427.16
 1269.92        2961.50           2307        2756.00     12006.21
 1269.96        2961.75           2310        6281.00     27392.98
 1270.00        2962.00           2314       12102.00     52837.21
 1270.03        2962.25           2317       16951.00     74066.41
 1270.06        2962.50           2321       22838.00     99881.34
 1270.09        2962.75           2324       27098.00    118590.10
 1270.12        2963.00           2328       33265.00    145716.20
 1270.15        2963.25           2331       38478.00    168685.30
 1270.18        2963.50           2335       46083.00    202258.40
 1270.21        2963.75           2339       53972.00    237166.70
 1270.24        2964.00           2342       58837.00    258735.60
 1270.27        2964.25           2346       65599.00    288767.70
 1270.30        2964.50           2349       70241.00    309419.90
 1270.33        2964.75           2353       76956.00    339346.60
 1270.36        2965.00           2356       82163.00    362594.90
 1270.39        2965.25           2360       88778.00    392183.00
 1270.42        2965.50           2363       93789.00    414636.60
 1270.45        2965.75           2367      100246.00    443620.50
 1270.48        2966.00           2370      104686.00    463584.10
 1270.52        2966.25           2374      111053.00    492259.70
 1270.55        2966.50           2378      114880.00    509522.90
 1270.58        2966.75           2381      116728.00    517866.40
 1270.61        2967.00           2385      117259.00    520264.60
 1270.64        2967.25           2388      117725.00    522369.60
 1270.67        2967.50           2392      117646.00    522012.80
 1270.70        2967.75           2395      117306.00    520476.90
 1270.73        2968.00           2399      115921.00    514222.30
 1270.76        2968.25           2402      112912.00    500642.90
 1270.79        2968.50           2406      107406.00    475827.50
 1270.82        2968.75           2409      102114.00    452016.20
 1270.85        2969.00           2413       94760.00    418991.50
 1270.88        2969.25           2417       87758.00    387616.80
 1270.91        2969.50           2420       82854.00    365682.80
 1270.94        2969.75           2424       75668.00    333601.60
 1270.97        2970.00           2427       70237.00    309402.10
 1271.00        2970.25           2431       62777.00    276226.90
 1271.04        2970.50           2434       57417.00    252436.80
 1271.07        2970.75           2438       50800.00    223120.90
 1271.10        2971.00           2441       45723.00    200667.40
 1271.13        2971.25           2445       38660.00    169487.90
 1271.16        2971.50           2449       31675.00    138717.70
 1271.19        2971.75           2452       26884.00    117649.70
 1271.22        2972.00           2456       20663.00     90338.52
 1271.25        2972.25           2459       15238.00     66563.28
 1271.28        2972.50           2463        8425.00     36759.52
 1271.31        2972.75           2466        4430.00     19311.28
 1271.34        2973.00           2470        1418.00      6170.00
 1271.37        2973.25           2473         722.00      3135.03
 1271.40        2973.50           2477         530.00      2297.91
 1271.43        2973.75           2481         542.00      2350.23
 1271.46        2974.00           2484         500.00      2167.12
 1271.49        2974.25           2488         476.00      2062.48
 1271.52        2974.50           2491         497.00      2154.04
 1271.56        2974.75           2495         451.00      1953.49
 1271.59        2975.00           2498         445.00      1927.33
 1271.62        2975.25           2502         475.00      2058.12
 1271.65        2975.50           2505         453.00      1962.21
 1271.68        2975.75           2509         440.00      1905.53
 1271.71        2976.00           2512         433.00      1875.01
 1271.74        2976.25           2516         427.00      1848.85
 1271.77        2976.50           2520         423.00      1831.41
 1271.80        2976.75           2523         418.00      1809.61
 1271.83        2977.00           2527         427.00      1848.85
 1271.86        2977.25           2530         414.00      1792.18
 1271.89        2977.50           2534         412.00      1783.46
 1271.92        2977.75           2537         426.00      1844.49
 1271.95        2978.00           2541         407.00      1761.66
 1271.98        2978.25           2544         406.00      1757.30
 1272.01        2978.50           2548         412.00      1783.46
 1272.04        2978.75           2552         392.00      1696.26
 1272.08        2979.00           2555         376.00      1626.51
 1272.11        2979.25           2559         417.00      1805.25
 1272.14        2979.50           2562         394.00      1704.98
 1272.17        2979.75           2566         391.00      1691.90
 1272.20        2980.00           2569         360.00      1556.75
 1272.23        2980.25           2573         374.00      1617.79
 1272.26        2980.50           2577         363.00      1569.83
 1272.29        2980.75           2580         366.00      1582.91
 1272.32        2981.00           2584         350.00      1513.16
 1272.35        2981.25           2587         371.00      1604.71
 1272.38        2981.50           2591         355.00      1534.95
 1272.41        2981.75           2594         367.00      1587.27
 1272.44        2982.00           2598         376.00      1626.51
 1272.47        2982.25           2601         364.00      1574.19
 1272.50        2982.50           2605         347.00      1500.08
 1272.53        2982.75           2609         343.00      1482.64
 1272.56        2983.00           2612         338.00      1460.84
 1272.60        2983.25           2616         368.00      1591.63
 1272.63        2983.50           2619         344.00      1487.00
 1272.66        2983.75           2623         344.00      1487.00
 1272.69        2984.00           2626         339.00      1465.20
HS scan finished at 21:12:54
end
