************************************************************
  HS Scan of 
************************************************************
Integration time is 0.2294 seconds per sample
dh200517Reading 51.44 .94 2.88pr1000
************************************************************
Dead Time -------------------------  3.4E-08 
Number of Cycles Used -------------  4 
Starting Wavelength (Angstroms) ---  2950 
Final Wavelength (Angstoms) -------  2984 
Wavelength Increment (Angstroms) --  .25 
Filter Wheel #1 Position ---------- (1) Ground quartz diffuser (ND=2.32)
Filter Wheel #2 Position ---------- (1) Neutral Density 0.494



************************************************************
HS scan start time = 01:09:09
Dark Count =  .6 


Time (GMT)  Wavelength (Ang)  Step Number  Raw Counts  Counts/Second

   70.04        2950.00           2144         476.00      2072.51
   70.23        2950.25           2147         495.00      2155.35
   70.26        2950.50           2151         488.00      2124.83
   70.29        2950.75           2155         500.00      2177.14
   70.32        2951.00           2158         503.00      2190.22
   70.35        2951.25           2162         467.00      2033.27
   70.39        2951.50           2165         489.00      2129.19
   70.42        2951.75           2169         469.00      2041.99
   70.45        2952.00           2172         495.00      2155.35
   70.48        2952.25           2176         484.00      2107.39
   70.51        2952.50           2179         478.00      2081.23
   70.54        2952.75           2183         512.00      2229.46
   70.57        2953.00           2186         493.00      2146.63
   70.60        2953.25           2190         477.00      2076.87
   70.63        2953.50           2193         520.00      2264.34
   70.66        2953.75           2197         496.00      2159.71
   70.69        2954.00           2200         521.00      2268.70
   70.72        2954.25           2204         538.00      2342.82
   70.75        2954.50           2208         542.00      2360.26
   70.78        2954.75           2211         504.00      2194.58
   70.81        2955.00           2215         517.00      2251.26
   70.84        2955.25           2218         531.00      2312.30
   70.87        2955.50           2222         534.00      2325.38
   70.91        2955.75           2225         522.00      2273.06
   70.94        2956.00           2229         518.00      2255.62
   70.97        2956.25           2232         551.00      2399.50
   71.00        2956.50           2236         575.00      2504.14
   71.03        2956.75           2239         539.00      2347.18
   71.06        2957.00           2243         550.00      2395.14
   71.09        2957.25           2246         543.00      2364.62
   71.12        2957.50           2250         520.00      2264.34
   71.15        2957.75           2254         551.00      2399.50
   71.18        2958.00           2257         567.00      2469.26
   71.21        2958.25           2261         585.00      2547.74
   71.24        2958.50           2264         579.00      2521.58
   71.27        2958.75           2268         573.00      2495.42
   71.30        2959.00           2271         590.00      2569.54
   71.33        2959.25           2275         575.00      2504.14
   71.36        2959.50           2278         599.00      2608.78
   71.39        2959.75           2282         604.00      2630.58
   71.43        2960.00           2285         647.00      2818.06
   71.46        2960.25           2289         632.00      2752.66
   71.49        2960.50           2293         683.00      2975.02
   71.52        2960.75           2296         682.00      2970.66
   71.55        2961.00           2300         719.00      3131.98
   71.58        2961.25           2303         892.00      3886.30
   71.61        2961.50           2307        2757.00     12020.61
   71.64        2961.75           2310        6880.00     30019.29
   71.67        2962.00           2314       14643.00     63968.10
   71.70        2962.25           2317       21092.00     92230.37
   71.73        2962.50           2321       29621.00    129691.80
   71.77        2962.75           2324       35339.00    154860.30
   71.80        2963.00           2328       43733.00    191886.00
   71.83        2963.25           2331       50354.00    221157.20
   71.86        2963.50           2335       59912.00    263516.10
   71.89        2963.75           2339       68711.00    302620.00
   71.92        2964.00           2342       75283.00    331895.10
   71.95        2964.25           2346       84750.00    374169.40
   71.98        2964.50           2349       91420.00    404027.40
   72.01        2964.75           2353      100717.00    445747.30
   72.04        2965.00           2356      107267.00    475211.90
   72.07        2965.25           2360      116025.00    514702.20
   72.10        2965.50           2363      122483.00    543890.40
   72.14        2965.75           2367      130577.00    580555.60
   72.17        2966.00           2370      136178.00    605981.80
   72.20        2966.25           2374      143787.00    640594.90
   72.23        2966.50           2378      148994.00    664328.90
   72.26        2966.75           2381      150843.00    672766.20
   72.29        2967.00           2385      151013.00    673542.10
   72.32        2967.25           2388      151532.00    675911.50
   72.35        2967.50           2392      151124.00    674048.80
   72.38        2967.75           2395      151184.00    674322.70
   72.41        2968.00           2399      148610.00    662577.30
   72.44        2968.25           2402      144162.00    642302.90
   72.47        2968.50           2406      137008.00    609753.50
   72.50        2968.75           2409      130675.00    581000.00
   72.53        2969.00           2413      122879.00    545682.10
   72.56        2969.25           2417      114329.00    507046.50
   72.59        2969.50           2420      108118.00    479044.40
   72.62        2969.75           2424       99183.00    438855.30
   72.66        2970.00           2427       93269.00    412315.20
   72.69        2970.25           2431       83820.00    370011.00
   72.72        2970.50           2434       76399.00    336872.20
   72.75        2970.75           2438       66991.00    294967.90
   72.78        2971.00           2441       60410.00    265726.50
   72.81        2971.25           2445       52124.00    228992.20
   72.84        2971.50           2449       43133.00    189236.30
   72.87        2971.75           2452       36608.00    160451.90
   72.90        2972.00           2456       28385.00    124257.10
   72.93        2972.25           2459       22216.00     97161.78
   72.96        2972.50           2463       13928.00     60838.01
   72.99        2972.75           2466        8261.00     36052.89
   73.02        2973.00           2470        2627.00     11453.46
   73.05        2973.25           2473        1146.00      4993.87
   73.08        2973.50           2477         800.00      3485.16
   73.11        2973.75           2481         723.00      3149.42
   73.14        2974.00           2484         676.00      2944.50
   73.17        2974.25           2488         665.00      2896.54
   73.21        2974.50           2491         633.00      2757.02
   73.24        2974.75           2495         675.00      2940.14
   73.27        2975.00           2498         666.00      2900.90
   73.30        2975.25           2502         637.00      2774.46
   73.33        2975.50           2505         617.00      2687.26
   73.36        2975.75           2509         628.00      2735.22
   73.39        2976.00           2512         611.00      2661.10
   73.42        2976.25           2516         604.00      2630.58
   73.45        2976.50           2520         605.00      2634.94
   73.48        2976.75           2523         582.00      2534.66
   73.51        2977.00           2527         598.00      2604.42
   73.54        2977.25           2530         584.00      2543.38
   73.57        2977.50           2534         571.00      2486.70
   73.60        2977.75           2537         584.00      2543.38
   73.63        2978.00           2541         583.00      2539.02
   73.66        2978.25           2544         562.00      2447.46
   73.70        2978.50           2548         583.00      2539.02
   73.73        2978.75           2552         553.00      2408.22
   73.76        2979.00           2555         499.00      2172.79
   73.79        2979.25           2559         511.00      2225.10
   73.82        2979.50           2562         528.00      2299.22
   73.85        2979.75           2566         513.00      2233.82
   73.88        2980.00           2569         488.00      2124.83
   73.91        2980.25           2573         542.00      2360.26
   73.94        2980.50           2577         521.00      2268.70
   73.97        2980.75           2580         516.00      2246.90
   74.00        2981.00           2584         502.00      2185.86
   74.03        2981.25           2587         499.00      2172.79
   74.06        2981.50           2591         500.00      2177.14
   74.09        2981.75           2594         511.00      2225.10
   74.12        2982.00           2598         496.00      2159.71
   74.15        2982.25           2601         520.00      2264.34
   74.18        2982.50           2605         508.00      2212.02
   74.22        2982.75           2609         503.00      2190.22
   74.25        2983.00           2612         511.00      2225.10
   74.28        2983.25           2616         504.00      2194.58
   74.31        2983.50           2619         484.00      2107.39
   74.34        2983.75           2623         483.00      2103.03
   74.37        2984.00           2626         469.00      2041.99
HS scan finished at 01:14:35
end
************************************************************
  HS Scan of 
************************************************************
Integration time is 0.2294 seconds per sample
dh200517Reading 51.44 .94 3.19pr1000
************************************************************
Dead Time -------------------------  3.4E-08 
Number of Cycles Used -------------  4 
Starting Wavelength (Angstroms) ---  2950 
Final Wavelength (Angstoms) -------  2984 
Wavelength Increment (Angstroms) --  .25 
Filter Wheel #1 Position ---------- (1) Ground quartz diffuser (ND=2.32)
Filter Wheel #2 Position ---------- (1) Neutral Density 0.494



************************************************************
HS scan start time = 20:37:18
Dark Count =  1.4 


Time (GMT)  Wavelength (Ang)  Step Number  Raw Counts  Counts/Second

 1238.21        2950.00           2144         428.00      1859.75
 1238.40        2950.25           2147         425.00      1846.67
 1238.43        2950.50           2151         433.00      1881.55
 1238.46        2950.75           2155         409.00      1776.92
 1238.49        2951.00           2158         443.00      1925.15
 1238.52        2951.25           2162         445.00      1933.87
 1238.55        2951.50           2165         423.00      1837.95
 1238.58        2951.75           2169         434.00      1885.91
 1238.61        2952.00           2172         427.00      1855.39
 1238.64        2952.25           2176         422.00      1833.59
 1238.68        2952.50           2179         428.00      1859.75
 1238.71        2952.75           2183         454.00      1973.11
 1238.74        2953.00           2186         447.00      1942.59
 1238.77        2953.25           2190         446.00      1938.23
 1238.80        2953.50           2193         444.00      1929.51
 1238.83        2953.75           2197         439.00      1907.71
 1238.86        2954.00           2200         438.00      1903.35
 1238.89        2954.25           2204         450.00      1955.67
 1238.92        2954.50           2208         445.00      1933.87
 1238.95        2954.75           2211         455.00      1977.47
 1238.98        2955.00           2215         447.00      1942.59
 1239.01        2955.25           2218         460.00      1999.26
 1239.04        2955.50           2222         472.00      2051.58
 1239.07        2955.75           2225         478.00      2077.74
 1239.10        2956.00           2229         473.00      2055.94
 1239.13        2956.25           2232         486.00      2112.62
 1239.16        2956.50           2236         473.00      2055.94
 1239.20        2956.75           2239         509.00      2212.90
 1239.23        2957.00           2243         492.00      2138.78
 1239.26        2957.25           2246         484.00      2103.90
 1239.29        2957.50           2250         475.00      2064.66
 1239.32        2957.75           2254         500.00      2173.66
 1239.35        2958.00           2257         506.00      2199.82
 1239.38        2958.25           2261         506.00      2199.82
 1239.41        2958.50           2264         534.00      2321.89
 1239.44        2958.75           2268         522.00      2269.57
 1239.47        2959.00           2271         540.00      2348.05
 1239.50        2959.25           2275         547.00      2378.57
 1239.53        2959.50           2278         552.00      2400.37
 1239.56        2959.75           2282         530.00      2304.45
 1239.59        2960.00           2285         568.00      2470.13
 1239.62        2960.25           2289         596.00      2592.21
 1239.65        2960.50           2293         587.00      2552.97
 1239.68        2960.75           2296         587.00      2552.97
 1239.72        2961.00           2300         672.00      2923.57
 1239.75        2961.25           2303         924.00      4022.35
 1239.78        2961.50           2307        2820.00     12291.97
 1239.81        2961.75           2310        6240.00     27220.47
 1239.84        2962.00           2314       13131.00     57346.23
 1239.87        2962.25           2317       18856.00     82421.58
 1239.90        2962.50           2321       26589.00    116360.10
 1239.93        2962.75           2324       32902.00    144124.80
 1239.96        2963.00           2328       40811.00    178983.00
 1239.99        2963.25           2331       46274.00    203109.20
 1240.02        2963.50           2335       54679.00    240305.90
 1240.05        2963.75           2339       63555.00    279689.80
 1240.08        2964.00           2342       69696.00    307000.40
 1240.11        2964.25           2346       77820.00    343208.40
 1240.14        2964.50           2349       83617.00    369100.00
 1240.17        2964.75           2353       90962.00    401971.70
 1240.20        2965.00           2356       96872.00    428475.00
 1240.23        2965.25           2360      105493.00    467222.30
 1240.27        2965.50           2363      111534.00    494435.10
 1240.30        2965.75           2367      119353.00    529732.80
 1240.33        2966.00           2370      124254.00    551901.30
 1240.36        2966.25           2374      131169.00    583237.20
 1240.39        2966.50           2378      136714.00    608413.60
 1240.42        2966.75           2381      138014.00    614322.50
 1240.45        2967.00           2385      138612.00    617041.30
 1240.48        2967.25           2388      138753.00    617682.50
 1240.51        2967.50           2392      138529.00    616663.90
 1240.54        2967.75           2395      138442.00    616268.40
 1240.57        2968.00           2399      136112.00    605678.20
 1240.60        2968.25           2402      132187.00    587856.10
 1240.63        2968.50           2406      125577.00    557891.50
 1240.66        2968.75           2409      120309.00    534054.50
 1240.69        2969.00           2413      112104.00    497005.40
 1240.72        2969.25           2417      103529.00    458386.00
 1240.75        2969.50           2420       98242.00    434625.60
 1240.79        2969.75           2424       90509.00    399942.20
 1240.82        2970.00           2427       84367.00    372453.20
 1240.85        2970.25           2431       76036.00    335249.50
 1240.88        2970.50           2434       70501.00    310584.20
 1240.91        2970.75           2438       61913.00    272396.10
 1240.94        2971.00           2441       54786.00    240780.00
 1240.97        2971.25           2445       46266.00    203073.90
 1241.00        2971.50           2449       38721.00    169763.50
 1241.03        2971.75           2452       33216.00    145507.10
 1241.06        2972.00           2456       25234.00    110407.60
 1241.09        2972.25           2459       19307.00     84398.77
 1241.12        2972.50           2463       12125.00     52944.39
 1241.15        2972.75           2466        6984.00     30470.09
 1241.18        2973.00           2470        2065.00      8998.39
 1241.21        2973.25           2473         877.00      3817.41
 1241.24        2973.50           2477         658.00      2862.53
 1241.27        2973.75           2481         635.00      2762.25
 1241.31        2974.00           2484         648.00      2818.93
 1241.34        2974.25           2488         584.00      2539.89
 1241.37        2974.50           2491         592.00      2574.77
 1241.40        2974.75           2495         583.00      2535.53
 1241.43        2975.00           2498         559.00      2430.89
 1241.46        2975.25           2502         558.00      2426.53
 1241.49        2975.50           2505         555.00      2413.45
 1241.52        2975.75           2509         562.00      2443.97
 1241.55        2976.00           2512         544.00      2365.49
 1241.58        2976.25           2516         529.00      2300.09
 1241.61        2976.50           2520         538.00      2339.33
 1241.64        2976.75           2523         517.00      2247.77
 1241.67        2977.00           2527         511.00      2221.62
 1241.70        2977.25           2530         537.00      2334.97
 1241.73        2977.50           2534         497.00      2160.58
 1241.76        2977.75           2537         492.00      2138.78
 1241.79        2978.00           2541         483.00      2099.54
 1241.83        2978.25           2544         477.00      2073.38
 1241.86        2978.50           2548         471.00      2047.22
 1241.89        2978.75           2552         455.00      1977.47
 1241.92        2979.00           2555         467.00      2029.78
 1241.95        2979.25           2559         458.00      1990.54
 1241.98        2979.50           2562         464.00      2016.70
 1242.01        2979.75           2566         476.00      2069.02
 1242.04        2980.00           2569         450.00      1955.67
 1242.07        2980.25           2573         462.00      2007.98
 1242.10        2980.50           2577         452.00      1964.39
 1242.13        2980.75           2580         489.00      2125.70
 1242.16        2981.00           2584         439.00      1907.71
 1242.19        2981.25           2587         419.00      1820.51
 1242.22        2981.50           2591         458.00      1990.54
 1242.25        2981.75           2594         430.00      1868.47
 1242.28        2982.00           2598         440.00      1912.07
 1242.31        2982.25           2601         432.00      1877.19
 1242.35        2982.50           2605         415.00      1803.07
 1242.38        2982.75           2609         449.00      1951.31
 1242.41        2983.00           2612         440.00      1912.07
 1242.44        2983.25           2616         419.00      1820.51
 1242.47        2983.50           2619         424.00      1842.31
 1242.50        2983.75           2623         443.00      1925.15
 1242.53        2984.00           2626         412.00      1790.00
HS scan finished at 20:42:45
end
