************************************************************
  HS Scan of (1) Internal mercury lamp
************************************************************
Integration time is 0.2294 seconds per sample
dh290519Reading 51.44 .94 3.23pr1000
************************************************************
Dead Time -------------------------  3.4E-08 
Number of Cycles Used -------------  4 
Starting Wavelength (Angstroms) ---  2950 
Final Wavelength (Angstoms) -------  2984 
Wavelength Increment (Angstroms) --  .25 
Filter Wheel #1 Position ---------- (1) Ground quartz diffuser (ND=2.32)
Filter Wheel #2 Position ---------- (1) Neutral Density 0.494



************************************************************
HS scan start time = 01:14:39
Dark Count =  1.4 


Time (GMT)  Wavelength (Ang)  Step Number  Raw Counts  Counts/Second

   75.55        2950.00           2144        1469.00      6398.95
   75.74        2950.25           2147        1422.00      6193.98
   75.77        2950.50           2151        1413.00      6154.73
   75.80        2950.75           2155        1463.00      6372.78
   75.84        2951.00           2158        1495.00      6512.34
   75.88        2951.25           2162        1471.00      6407.67
   75.91        2951.50           2165        1472.00      6412.03
   75.94        2951.75           2169        1479.00      6442.56
   75.97        2952.00           2172        1452.00      6324.81
   76.00        2952.25           2176        1480.00      6446.92
   76.03        2952.50           2179        1454.00      6333.54
   76.06        2952.75           2183        1495.00      6512.34
   76.09        2953.00           2186        1501.00      6538.51
   76.12        2953.25           2190        1512.00      6586.48
   76.15        2953.50           2193        1472.00      6412.03
   76.18        2953.75           2197        1521.00      6625.73
   76.21        2954.00           2200        1480.00      6446.92
   76.24        2954.25           2204        1562.00      6804.54
   76.28        2954.50           2208        1559.00      6791.45
   76.31        2954.75           2211        1568.00      6830.71
   76.34        2955.00           2215        1561.00      6800.18
   76.37        2955.25           2218        1571.00      6843.79
   76.40        2955.50           2222        1527.00      6651.90
   76.43        2955.75           2225        1577.00      6869.96
   76.46        2956.00           2229        1628.00      7092.38
   76.49        2956.25           2232        1603.00      6983.35
   76.52        2956.50           2236        1634.00      7118.55
   76.55        2956.75           2239        1632.00      7109.83
   76.58        2957.00           2243        1635.00      7122.91
   76.61        2957.25           2246        1647.00      7175.25
   76.64        2957.50           2250        1709.00      7445.65
   76.67        2957.75           2254        1676.00      7301.73
   76.70        2958.00           2257        1686.00      7345.34
   76.73        2958.25           2261        1702.00      7415.12
   76.76        2958.50           2264        1679.00      7314.81
   76.79        2958.75           2268        1780.00      7755.31
   76.83        2959.00           2271        1737.00      7567.77
   76.86        2959.25           2275        1803.00      7855.63
   76.89        2959.50           2278        1825.00      7951.58
   76.92        2959.75           2282        1850.00      8060.62
   76.95        2960.00           2285        1879.00      8187.11
   76.98        2960.25           2289        1903.00      8291.79
   77.01        2960.50           2293        1931.00      8413.92
   77.04        2960.75           2296        2024.00      8819.56
   77.07        2961.00           2300        2312.00     10075.81
   77.10        2961.25           2303        4124.00     17982.22
   77.13        2961.50           2307       12992.00     56737.95
   77.16        2961.75           2310       25653.00    112248.00
   77.19        2962.00           2314       48588.00    213340.50
   77.22        2962.25           2317       68029.00    299581.80
   77.25        2962.50           2321       92170.00    407385.00
   77.28        2962.75           2324      111190.00    492884.10
   77.32        2963.00           2328      137342.00    611267.80
   77.35        2963.25           2331      157718.00    704177.10
   77.38        2963.50           2335      183987.00    824840.60
   77.41        2963.75           2339      209341.00    942261.40
   77.44        2964.00           2342      228888.00   1033444.00
   77.47        2964.25           2346      254721.00   1154839.00
   77.50        2964.50           2349      274027.00   1246234.00
   77.53        2964.75           2353      301933.00   1379377.00
   77.56        2965.00           2356      322929.00   1480372.00
   77.59        2965.25           2360      347353.00   1598760.00
   77.62        2965.50           2363      363382.00   1676991.00
   77.65        2965.75           2367      386827.00   1792196.00
   77.68        2966.00           2370      403683.00   1875602.00
   77.71        2966.25           2374      423882.00   1976199.00
   77.74        2966.50           2378      431726.00   2015458.00
   77.77        2966.75           2381      432702.00   2020350.00
   77.80        2967.00           2385      434113.00   2027426.00
   77.84        2967.25           2388      433212.00   2022907.00
   77.87        2967.50           2392      432462.00   2019147.00
   77.90        2967.75           2395      428587.00   1999734.00
   77.93        2968.00           2399      414434.00   1929057.00
   77.96        2968.25           2402      400601.00   1860315.00
   77.99        2968.50           2406      378688.00   1752097.00
   78.02        2968.75           2409      360723.00   1663984.00
   78.05        2969.00           2413      337874.00   1552697.00
   78.08        2969.25           2417      315128.00   1442765.00
   78.11        2969.50           2420      297195.00   1356685.00
   78.14        2969.75           2424      269985.00   1227051.00
   78.17        2970.00           2427      248642.00   1126180.00
   78.20        2970.25           2431      220821.00    995743.20
   78.23        2970.50           2434      201778.00    907135.50
   78.26        2970.75           2438      176682.00    791185.10
   78.29        2971.00           2441      156677.00    699416.00
   78.32        2971.25           2445      129507.00    575699.60
   78.35        2971.50           2449      101745.00    450364.20
   78.39        2971.75           2452       82740.00    365180.00
   78.42        2972.00           2456       58490.00    257202.80
   78.45        2972.25           2459       39456.00    173005.10
   78.48        2972.50           2463       18161.00     79375.21
   78.51        2972.75           2466        8446.00     36857.85
   78.54        2973.00           2470        3344.00     14578.28
   78.57        2973.25           2473        2301.00     10027.83
   78.60        2973.50           2477        2074.00      9037.65
   78.63        2973.75           2481        2014.00      8775.94
   78.66        2974.00           2484        1974.00      8601.47
   78.69        2974.25           2488        1887.00      8222.00
   78.72        2974.50           2491        1854.00      8078.07
   78.75        2974.75           2495        1874.00      8165.30
   78.78        2975.00           2498        1880.00      8191.47
   78.81        2975.25           2502        1780.00      7755.31
   78.84        2975.50           2505        1758.00      7659.36
   78.87        2975.75           2509        1757.00      7655.00
   78.91        2976.00           2512        1734.00      7554.69
   78.94        2976.25           2516        1665.00      7253.75
   78.97        2976.50           2520        1680.00      7319.17
   79.00        2976.75           2523        1664.00      7249.39
   79.03        2977.00           2527        1666.00      7258.11
   79.06        2977.25           2530        1635.00      7122.91
   79.09        2977.50           2534        1609.00      7009.52
   79.12        2977.75           2537        1589.00      6922.29
   79.15        2978.00           2541        1582.00      6891.76
   79.18        2978.25           2544        1583.00      6896.12
   79.21        2978.50           2548        1584.00      6900.49
   79.24        2978.75           2552        1548.00      6743.48
   79.27        2979.00           2555        1550.00      6752.20
   79.30        2979.25           2559        1546.00      6734.76
   79.33        2979.50           2562        1509.00      6573.40
   79.36        2979.75           2566        1503.00      6547.23
   79.40        2980.00           2569        1540.00      6708.59
   79.43        2980.25           2573        1488.00      6481.81
   79.46        2980.50           2577        1467.00      6390.23
   79.49        2980.75           2580        1433.00      6241.95
   79.52        2981.00           2584        1482.00      6455.65
   79.55        2981.25           2587        1466.00      6385.87
   79.58        2981.50           2591        1443.00      6285.56
   79.61        2981.75           2594        1462.00      6368.42
   79.64        2982.00           2598        1441.00      6276.84
   79.67        2982.25           2601        1434.00      6246.31
   79.70        2982.50           2605        1426.00      6211.43
   79.73        2982.75           2609        1431.00      6233.23
   79.76        2983.00           2612        1409.00      6137.29
   79.79        2983.25           2616        1436.00      6255.04
   79.82        2983.50           2619        1386.00      6036.98
   79.85        2983.75           2623        1374.00      5984.65
   79.88        2984.00           2626        1388.00      6045.71
HS scan finished at 01:20:06
end
************************************************************
  HS Scan of (1) Internal mercury lamp
************************************************************
Integration time is 0.2294 seconds per sample
dh290519Reading 51.44 .94 3.37pr1000
************************************************************
Dead Time -------------------------  3.4E-08 
Number of Cycles Used -------------  4 
Starting Wavelength (Angstroms) ---  2950 
Final Wavelength (Angstoms) -------  2984 
Wavelength Increment (Angstroms) --  .25 
Filter Wheel #1 Position ---------- (1) Ground quartz diffuser (ND=2.32)
Filter Wheel #2 Position ---------- (1) Neutral Density 0.494



************************************************************
HS scan start time = 21:09:55
Dark Count =  1.8 


Time (GMT)  Wavelength (Ang)  Step Number  Raw Counts  Counts/Second

 1270.82        2950.00           2144        1457.00      6344.87
 1271.01        2950.25           2147        1416.00      6166.07
 1271.05        2950.50           2151        1437.00      6257.65
 1271.08        2950.75           2155        1421.00      6187.88
 1271.11        2951.00           2158        1448.00      6305.62
 1271.14        2951.25           2162        1464.00      6375.40
 1271.17        2951.50           2165        1458.00      6349.23
 1271.20        2951.75           2169        1431.00      6231.49
 1271.23        2952.00           2172        1470.00      6401.57
 1271.26        2952.25           2176        1439.00      6266.37
 1271.29        2952.50           2179        1420.00      6183.51
 1271.32        2952.75           2183        1431.00      6231.49
 1271.35        2953.00           2186        1447.00      6301.26
 1271.38        2953.25           2190        1470.00      6401.57
 1271.41        2953.50           2193        1512.00      6584.73
 1271.44        2953.75           2197        1525.00      6641.43
 1271.47        2954.00           2200        1490.00      6488.79
 1271.50        2954.25           2204        1516.00      6602.18
 1271.53        2954.50           2208        1500.00      6532.40
 1271.56        2954.75           2211        1527.00      6650.15
 1271.60        2955.00           2215        1583.00      6894.38
 1271.63        2955.25           2218        1525.00      6641.43
 1271.66        2955.50           2222        1521.00      6623.99
 1271.69        2955.75           2225        1565.00      6815.88
 1271.72        2956.00           2229        1579.00      6876.94
 1271.75        2956.25           2232        1552.00      6759.18
 1271.78        2956.50           2236        1545.00      6728.65
 1271.81        2956.75           2239        1559.00      6789.71
 1271.84        2957.00           2243        1665.00      7252.01
 1271.87        2957.25           2246        1575.00      6859.49
 1271.90        2957.50           2250        1634.00      7116.80
 1271.93        2957.75           2254        1649.00      7182.22
 1271.96        2958.00           2257        1654.00      7204.03
 1271.99        2958.25           2261        1678.00      7308.70
 1272.02        2958.50           2264        1690.00      7361.04
 1272.05        2958.75           2268        1699.00      7400.29
 1272.08        2959.00           2271        1770.00      7709.95
 1272.12        2959.25           2275        1786.00      7779.74
 1272.15        2959.50           2278        1779.00      7749.21
 1272.18        2959.75           2282        1836.00      7997.82
 1272.21        2960.00           2285        1823.00      7941.11
 1272.24        2960.25           2289        1879.00      8185.36
 1272.27        2960.50           2293        1961.00      8543.02
 1272.30        2960.75           2296        1999.00      8708.77
 1272.33        2961.00           2300        2175.00      9476.46
 1272.36        2961.25           2303        3136.00     13668.95
 1272.39        2961.50           2307        9693.00     42306.67
 1272.42        2961.75           2310       20482.00     89549.49
 1272.45        2962.00           2314       39158.00    171688.90
 1272.48        2962.25           2317       57716.00    253767.80
 1272.51        2962.50           2321       84149.00    371476.60
 1272.54        2962.75           2324      103008.00    456041.00
 1272.57        2963.00           2328      127750.00    567733.60
 1272.61        2963.25           2331      146473.00    652827.60
 1272.64        2963.50           2335      171270.00    766299.50
 1272.67        2963.75           2339      197269.00    886232.30
 1272.70        2964.00           2342      218545.00    985122.50
 1272.73        2964.25           2346      244476.00   1106571.00
 1272.76        2964.50           2349      261987.00   1189166.00
 1272.79        2964.75           2353      286965.00   1307808.00
 1272.82        2965.00           2356      302243.00   1380861.00
 1272.85        2965.25           2360      323291.00   1482118.00
 1272.88        2965.50           2363      341658.00   1571065.00
 1272.91        2965.75           2367      366909.00   1694261.00
 1272.94        2966.00           2370      383073.00   1773684.00
 1272.97        2966.25           2374      402936.00   1871893.00
 1273.00        2966.50           2378      414762.00   1930689.00
 1273.03        2966.75           2381      418811.00   1950875.00
 1273.06        2967.00           2385      420949.00   1961546.00
 1273.09        2967.25           2388      420855.00   1961076.00
 1273.12        2967.50           2392      421381.00   1963703.00
 1273.16        2967.75           2395      420047.00   1957043.00
 1273.19        2968.00           2399      413716.00   1925479.00
 1273.22        2968.25           2402      401369.00   1864121.00
 1273.25        2968.50           2406      381898.00   1767896.00
 1273.28        2968.75           2409      367167.00   1695525.00
 1273.31        2969.00           2413      346024.00   1592291.00
 1273.34        2969.25           2417      321907.00   1475438.00
 1273.37        2969.50           2420      303756.00   1388116.00
 1273.40        2969.75           2424      277913.00   1264699.00
 1273.43        2970.00           2427      260853.00   1183803.00
 1273.46        2970.25           2431      236898.00   1070974.00
 1273.49        2970.50           2434      218558.00    985183.10
 1273.52        2970.75           2438      192523.00    864265.00
 1273.55        2971.00           2441      171986.00    769589.10
 1273.58        2971.25           2445      145212.00    647080.80
 1273.61        2971.50           2449      117931.00    523305.30
 1273.64        2971.75           2452      100103.00    442983.00
 1273.68        2972.00           2456       75872.00    334516.40
 1273.71        2972.25           2459       57205.00    251501.50
 1273.74        2972.50           2463       33010.00    144598.40
 1273.77        2972.75           2466       17470.00     76345.25
 1273.80        2973.00           2470        5716.00     24930.45
 1273.83        2973.25           2473        2899.00     12634.90
 1273.86        2973.50           2477        2120.00      9236.55
 1273.89        2973.75           2481        1973.00      8595.36
 1273.92        2974.00           2484        1932.00      8416.53
 1273.95        2974.25           2488        1906.00      8303.13
 1273.98        2974.50           2491        1858.00      8093.77
 1274.01        2974.75           2495        1843.00      8028.35
 1274.04        2975.00           2498        1789.00      7792.82
 1274.07        2975.25           2502        1809.00      7880.05
 1274.10        2975.50           2505        1744.00      7596.56
 1274.13        2975.75           2509        1726.00      7518.05
 1274.16        2976.00           2512        1706.00      7430.82
 1274.20        2976.25           2516        1654.00      7204.03
 1274.23        2976.50           2520        1655.00      7208.39
 1274.26        2976.75           2523        1644.00      7160.42
 1274.29        2977.00           2527        1642.00      7151.70
 1274.32        2977.25           2530        1618.00      7047.02
 1274.35        2977.50           2534        1596.00      6951.08
 1274.38        2977.75           2537        1559.00      6789.71
 1274.41        2978.00           2541        1569.00      6833.32
 1274.44        2978.25           2544        1558.00      6785.35
 1274.47        2978.50           2548        1521.00      6623.99
 1274.50        2978.75           2552        1545.00      6728.65
 1274.53        2979.00           2555        1537.00      6693.76
 1274.56        2979.25           2559        1526.00      6645.79
 1274.59        2979.50           2562        1501.00      6536.76
 1274.62        2979.75           2566        1501.00      6536.76
 1274.65        2980.00           2569        1496.00      6514.96
 1274.68        2980.25           2573        1438.00      6262.01
 1274.71        2980.50           2577        1411.00      6144.27
 1274.75        2980.75           2580        1450.00      6314.35
 1274.78        2981.00           2584        1437.00      6257.65
 1274.81        2981.25           2587        1463.00      6371.04
 1274.84        2981.50           2591        1434.00      6244.57
 1274.87        2981.75           2594        1394.00      6070.13
 1274.90        2982.00           2598        1381.00      6013.43
 1274.93        2982.25           2601        1422.00      6192.24
 1274.96        2982.50           2605        1382.00      6017.80
 1274.99        2982.75           2609        1423.00      6196.60
 1275.02        2983.00           2612        1384.00      6026.52
 1275.06        2983.25           2616        1387.00      6039.60
 1275.09        2983.50           2619        1395.00      6074.49
 1275.12        2983.75           2623        1360.00      5921.85
 1275.15        2984.00           2626        1406.00      6122.46
HS scan finished at 21:15:22
end
