************************************************************
  HS Scan of (1) Internal mercury lamp
************************************************************
Integration time is 0.2294 seconds per sample
dh280519Reading 51.44 .94 3.03pr1000
************************************************************
Dead Time -------------------------  3.4E-08 
Number of Cycles Used -------------  4 
Starting Wavelength (Angstroms) ---  2950 
Final Wavelength (Angstoms) -------  2984 
Wavelength Increment (Angstroms) --  .25 
Filter Wheel #1 Position ---------- (1) Ground quartz diffuser (ND=2.32)
Filter Wheel #2 Position ---------- (1) Neutral Density 0.494



************************************************************
HS scan start time = 01:13:15
Dark Count =  .8 


Time (GMT)  Wavelength (Ang)  Step Number  Raw Counts  Counts/Second

   74.15        2950.00           2144        1547.00      6741.74
   74.34        2950.25           2147        1545.00      6733.01
   74.38        2950.50           2151        1499.00      6532.40
   74.41        2950.75           2155        1524.00      6641.43
   74.44        2951.00           2158        1576.00      6868.21
   74.47        2951.25           2162        1559.00      6794.07
   74.50        2951.50           2165        1522.00      6632.71
   74.53        2951.75           2169        1585.00      6907.46
   74.56        2952.00           2172        1569.00      6837.68
   74.59        2952.25           2176        1577.00      6872.57
   74.62        2952.50           2179        1583.00      6898.74
   74.65        2952.75           2183        1541.00      6715.57
   74.68        2953.00           2186        1571.00      6846.41
   74.71        2953.25           2190        1579.00      6881.30
   74.74        2953.50           2193        1589.00      6924.91
   74.77        2953.75           2197        1608.00      7007.77
   74.80        2954.00           2200        1604.00      6990.33
   74.83        2954.25           2204        1646.00      7173.50
   74.86        2954.50           2208        1607.00      7003.41
   74.90        2954.75           2211        1637.00      7134.25
   74.93        2955.00           2215        1646.00      7173.50
   74.96        2955.25           2218        1649.00      7186.59
   74.99        2955.50           2222        1636.00      7129.89
   75.02        2955.75           2225        1650.00      7190.95
   75.05        2956.00           2229        1632.00      7112.44
   75.08        2956.25           2232        1679.00      7317.43
   75.11        2956.50           2236        1643.00      7160.42
   75.14        2956.75           2239        1685.00      7343.59
   75.17        2957.00           2243        1725.00      7518.05
   75.20        2957.25           2246        1728.00      7531.13
   75.23        2957.50           2250        1719.00      7491.88
   75.26        2957.75           2254        1762.00      7679.43
   75.29        2958.00           2257        1761.00      7675.06
   75.32        2958.25           2261        1735.00      7561.67
   75.35        2958.50           2264        1805.00      7866.97
   75.38        2958.75           2268        1799.00      7840.80
   75.42        2959.00           2271        1823.00      7945.48
   75.45        2959.25           2275        1851.00      8067.60
   75.48        2959.50           2278        1869.00      8146.11
   75.51        2959.75           2282        1908.00      8316.21
   75.54        2960.00           2285        1925.00      8390.36
   75.57        2960.25           2289        1957.00      8529.94
   75.60        2960.50           2293        2015.00      8782.92
   75.63        2960.75           2296        2065.00      9001.01
   75.66        2961.00           2300        2246.00      9790.53
   75.69        2961.25           2303        3298.00     14380.18
   75.72        2961.50           2307        9727.00     42459.69
   75.75        2961.75           2310       20247.00     88523.24
   75.78        2962.00           2314       39873.00    174847.20
   75.81        2962.25           2317       57982.00    254952.00
   75.84        2962.50           2321       83320.00    367775.10
   75.87        2962.75           2324      102631.00    454350.20
   75.90        2963.00           2328      127228.00    565372.80
   75.94        2963.25           2331      145075.00    646461.20
   75.97        2963.50           2335      170462.00    762592.60
   76.00        2963.75           2339      197191.00    885875.70
   76.03        2964.00           2342      217485.00    980184.30
   76.06        2964.25           2346      243440.00   1101704.00
   76.09        2964.50           2349      260645.00   1182825.00
   76.12        2964.75           2353      284102.00   1294164.00
   76.15        2965.00           2356      302266.00   1380976.00
   76.18        2965.25           2360      324631.00   1488593.00
   76.21        2965.50           2363      342040.00   1572926.00
   76.24        2965.75           2367      364733.00   1683608.00
   76.27        2966.00           2370      381793.00   1767384.00
   76.30        2966.25           2374      401620.00   1865371.00
   76.33        2966.50           2378      414209.00   1927939.00
   76.36        2966.75           2381      417525.00   1944465.00
   76.39        2967.00           2385      419033.00   1951988.00
   76.42        2967.25           2388      419657.00   1955101.00
   76.45        2967.50           2392      419201.00   1952826.00
   76.49        2967.75           2395      414076.00   1927276.00
   76.52        2968.00           2399      411163.00   1912775.00
   76.55        2968.25           2402      399554.00   1855129.00
   76.58        2968.50           2406      380364.00   1760348.00
   76.61        2968.75           2409      363713.00   1678614.00
   76.64        2969.00           2413      341508.00   1570342.00
   76.67        2969.25           2417      317201.00   1452752.00
   76.70        2969.50           2420      300358.00   1371833.00
   76.73        2969.75           2424      276585.00   1258390.00
   76.76        2970.00           2427      257640.00   1168623.00
   76.80        2970.25           2431      231902.00   1047557.00
   76.83        2970.50           2434      214680.00    967112.50
   76.86        2970.75           2438      190857.00    856566.20
   76.89        2971.00           2441      169769.00    759410.10
   76.92        2971.25           2445      142720.00    635735.30
   76.95        2971.50           2449      117386.00    520847.80
   76.98        2971.75           2452       98494.00    435759.90
   77.01        2972.00           2456       74387.00    327899.50
   77.04        2972.25           2459       56644.00    249018.40
   77.07        2972.50           2463       32368.00    141776.80
   77.10        2972.75           2466       16297.00     71210.57
   77.13        2973.00           2470        5100.00     22245.24
   77.17        2973.25           2473        2844.00     12399.30
   77.20        2973.50           2477        2178.00      9493.91
   77.23        2973.75           2481        2100.00      9153.68
   77.26        2974.00           2484        2053.00      8948.67
   77.29        2974.25           2488        1970.00      8586.64
   77.32        2974.50           2491        1911.00      8329.30
   77.35        2974.75           2495        1915.00      8346.75
   77.38        2975.00           2498        1919.00      8364.19
   77.41        2975.25           2502        1825.00      7954.20
   77.44        2975.50           2505        1803.00      7858.25
   77.47        2975.75           2509        1803.00      7858.25
   77.50        2976.00           2512        1808.00      7880.05
   77.53        2976.25           2516        1766.00      7696.87
   77.56        2976.50           2520        1749.00      7622.73
   77.59        2976.75           2523        1722.00      7504.97
   77.62        2977.00           2527        1725.00      7518.05
   77.65        2977.25           2530        1708.00      7443.91
   77.68        2977.50           2534        1686.00      7347.96
   77.72        2977.75           2537        1639.00      7142.97
   77.75        2978.00           2541        1620.00      7060.11
   77.78        2978.25           2544        1626.00      7086.28
   77.81        2978.50           2548        1627.00      7090.64
   77.84        2978.75           2552        1588.00      6920.55
   77.87        2979.00           2555        1565.00      6820.24
   77.90        2979.25           2559        1560.00      6798.43
   77.93        2979.50           2562        1582.00      6894.38
   77.96        2979.75           2566        1567.00      6828.96
   77.99        2980.00           2569        1594.00      6946.72
   78.02        2980.25           2573        1541.00      6715.57
   78.05        2980.50           2577        1521.00      6628.35
   78.08        2980.75           2580        1529.00      6663.24
   78.11        2981.00           2584        1500.00      6536.76
   78.14        2981.25           2587        1487.00      6480.07
   78.17        2981.50           2591        1501.00      6541.12
   78.20        2981.75           2594        1533.00      6680.68
   78.24        2982.00           2598        1470.00      6405.93
   78.27        2982.25           2601        1503.00      6549.85
   78.30        2982.50           2605        1458.00      6353.60
   78.33        2982.75           2609        1439.00      6270.74
   78.36        2983.00           2612        1441.00      6279.46
   78.39        2983.25           2616        1477.00      6436.46
   78.42        2983.50           2619        1440.00      6275.10
   78.45        2983.75           2623        1466.00      6388.48
   78.48        2984.00           2626        1462.00      6371.04
HS scan finished at 01:18:42
end
************************************************************
  HS Scan of (1) Internal mercury lamp
************************************************************
Integration time is 0.2294 seconds per sample
dh280519Reading 51.44 .94 3.45pr1000
************************************************************
Dead Time -------------------------  3.4E-08 
Number of Cycles Used -------------  4 
Starting Wavelength (Angstroms) ---  2950 
Final Wavelength (Angstoms) -------  2984 
Wavelength Increment (Angstroms) --  .25 
Filter Wheel #1 Position ---------- (1) Ground quartz diffuser (ND=2.32)
Filter Wheel #2 Position ---------- (1) Neutral Density 0.494



************************************************************
HS scan start time = 21:09:56
Dark Count =  2.4 


Time (GMT)  Wavelength (Ang)  Step Number  Raw Counts  Counts/Second

 1270.83        2950.00           2144        1255.00      5461.35
 1271.02        2950.25           2147        1207.00      5252.03
 1271.05        2950.50           2151        1239.00      5391.57
 1271.08        2950.75           2155        1244.00      5413.38
 1271.11        2951.00           2158        1226.00      5334.88
 1271.14        2951.25           2162        1261.00      5487.51
 1271.17        2951.50           2165        1269.00      5522.40
 1271.21        2951.75           2169        1269.00      5522.40
 1271.24        2952.00           2172        1264.00      5500.59
 1271.27        2952.25           2176        1244.00      5413.38
 1271.30        2952.50           2179        1267.00      5513.68
 1271.33        2952.75           2183        1291.00      5618.34
 1271.36        2953.00           2186        1274.00      5544.20
 1271.39        2953.25           2190        1270.00      5526.76
 1271.42        2953.50           2193        1291.00      5618.34
 1271.45        2953.75           2197        1310.00      5701.19
 1271.48        2954.00           2200        1281.00      5574.73
 1271.51        2954.25           2204        1316.00      5727.36
 1271.54        2954.50           2208        1295.00      5635.78
 1271.57        2954.75           2211        1325.00      5766.61
 1271.60        2955.00           2215        1345.00      5853.82
 1271.63        2955.25           2218        1319.00      5740.44
 1271.66        2955.50           2222        1342.00      5840.74
 1271.69        2955.75           2225        1376.00      5989.01
 1271.73        2956.00           2229        1363.00      5932.32
 1271.76        2956.25           2232        1392.00      6058.79
 1271.79        2956.50           2236        1369.00      5958.49
 1271.82        2956.75           2239        1387.00      6036.98
 1271.85        2957.00           2243        1405.00      6115.48
 1271.88        2957.25           2246        1398.00      6084.96
 1271.91        2957.50           2250        1380.00      6006.46
 1271.94        2957.75           2254        1432.00      6233.23
 1271.97        2958.00           2257        1433.00      6237.59
 1272.00        2958.25           2261        1455.00      6333.54
 1272.03        2958.50           2264        1464.00      6372.78
 1272.06        2958.75           2268        1508.00      6564.67
 1272.09        2959.00           2271        1507.00      6560.31
 1272.12        2959.25           2275        1501.00      6534.15
 1272.15        2959.50           2278        1558.00      6782.73
 1272.18        2959.75           2282        1596.00      6948.46
 1272.21        2960.00           2285        1582.00      6887.40
 1272.24        2960.25           2289        1627.00      7083.66
 1272.28        2960.50           2293        1671.00      7275.56
 1272.31        2960.75           2296        1695.00      7380.23
 1272.34        2961.00           2300        1796.00      7820.74
 1272.37        2961.25           2303        2097.00      9133.61
 1272.40        2961.50           2307        6046.00     26368.88
 1272.44        2961.75           2310       15586.00     68089.45
 1272.47        2962.00           2314       32738.00    143398.40
 1272.50        2962.25           2317       47439.00    208254.90
 1272.53        2962.50           2321       68340.00    300961.10
 1272.56        2962.75           2324       83588.00    368965.90
 1272.59        2963.00           2328      105718.00    468230.40
 1272.62        2963.25           2331      121579.00    539793.00
 1272.65        2963.50           2335      144019.00    641643.30
 1272.68        2963.75           2339      166100.00    742565.30
 1272.71        2964.00           2342      183245.00    821413.90
 1272.74        2964.25           2346      207387.00    933173.40
 1272.77        2964.50           2349      225339.00   1016841.00
 1272.80        2964.75           2353      247139.00   1119098.00
 1272.83        2965.00           2356      261132.00   1185120.00
 1272.86        2965.25           2360      280806.00   1278460.00
 1272.89        2965.50           2363      297890.00   1360006.00
 1272.92        2965.75           2367      320107.00   1466752.00
 1272.96        2966.00           2370      335498.00   1541169.00
 1272.99        2966.25           2374      354512.00   1633642.00
 1273.02        2966.50           2378      370020.00   1709510.00
 1273.05        2966.75           2381      376034.00   1739040.00
 1273.08        2967.00           2385      378445.00   1750896.00
 1273.11        2967.25           2388      379049.00   1753868.00
 1273.14        2967.50           2392      378913.00   1753198.00
 1273.17        2967.75           2395      378041.00   1748909.00
 1273.20        2968.00           2399      373112.00   1724685.00
 1273.23        2968.25           2402      362759.00   1673938.00
 1273.26        2968.50           2406      345218.00   1588367.00
 1273.29        2968.75           2409      330876.00   1518781.00
 1273.32        2969.00           2413      312414.00   1429699.00
 1273.35        2969.25           2417      290546.00   1324895.00
 1273.38        2969.50           2420      274217.00   1247132.00
 1273.41        2969.75           2424      249840.00   1131819.00
 1273.44        2970.00           2427      233084.00   1053088.00
 1273.47        2970.25           2431      209353.00    942312.60
 1273.51        2970.50           2434      194292.00    872446.20
 1273.54        2970.75           2438      170484.00    762686.30
 1273.57        2971.00           2441      152569.00    680638.30
 1273.60        2971.25           2445      129549.00    575885.50
 1273.63        2971.50           2449      108171.00    479275.00
 1273.66        2971.75           2452       91363.00    403764.00
 1273.69        2972.00           2456       70671.00    311336.70
 1273.72        2972.25           2459       53546.00    235281.80
 1273.75        2972.50           2463       30933.00    135455.00
 1273.78        2972.75           2466       16071.00     70213.63
 1273.81        2973.00           2470        5126.00     22351.77
 1273.84        2973.25           2473        2675.00     11655.01
 1273.87        2973.50           2477        1893.00      8243.81
 1273.90        2973.75           2481        1739.00      7572.13
 1273.93        2974.00           2484        1703.00      7415.12
 1273.96        2974.25           2488        1682.00      7323.53
 1273.99        2974.50           2491        1648.00      7175.25
 1274.03        2974.75           2495        1630.00      7096.74
 1274.06        2975.00           2498        1573.00      6848.15
 1274.09        2975.25           2502        1544.00      6721.68
 1274.12        2975.50           2505        1542.00      6712.95
 1274.15        2975.75           2509        1509.00      6569.04
 1274.18        2976.00           2512        1508.00      6564.67
 1274.21        2976.25           2516        1479.00      6438.20
 1274.24        2976.50           2520        1460.00      6355.34
 1274.27        2976.75           2523        1415.00      6159.09
 1274.30        2977.00           2527        1418.00      6172.18
 1274.33        2977.25           2530        1420.00      6180.90
 1274.36        2977.50           2534        1375.00      5984.65
 1274.39        2977.75           2537        1396.00      6076.23
 1274.42        2978.00           2541        1386.00      6032.62
 1274.45        2978.25           2544        1343.00      5845.10
 1274.48        2978.50           2548        1375.00      5984.65
 1274.51        2978.75           2552        1322.00      5753.52
 1274.55        2979.00           2555        1366.00      5945.40
 1274.58        2979.25           2559        1309.00      5696.83
 1274.61        2979.50           2562        1304.00      5675.03
 1274.64        2979.75           2566        1280.00      5570.37
 1274.67        2980.00           2569        1300.00      5657.58
 1274.70        2980.25           2573        1270.00      5526.76
 1274.73        2980.50           2577        1317.00      5731.72
 1274.76        2980.75           2580        1261.00      5487.51
 1274.79        2981.00           2584        1224.00      5326.16
 1274.82        2981.25           2587        1248.00      5430.82
 1274.85        2981.50           2591        1247.00      5426.46
 1274.88        2981.75           2594        1276.00      5552.92
 1274.91        2982.00           2598        1215.00      5286.91
 1274.94        2982.25           2601        1200.00      5221.50
 1274.97        2982.50           2605        1240.00      5395.93
 1275.00        2982.75           2609        1237.00      5382.85
 1275.03        2983.00           2612        1206.00      5247.67
 1275.07        2983.25           2616        1224.00      5326.16
 1275.10        2983.50           2619        1157.00      5033.99
 1275.13        2983.75           2623        1186.00      5160.45
 1275.16        2984.00           2626        1220.00      5308.72
HS scan finished at 21:15:23
end
