************************************************************
  HS Scan of 
************************************************************
Integration time is 0.2294 seconds per sample
dh230517Reading 51.44 .94 3.39pr1000
************************************************************
Dead Time -------------------------  3.4E-08 
Number of Cycles Used -------------  4 
Starting Wavelength (Angstroms) ---  2950 
Final Wavelength (Angstoms) -------  2984 
Wavelength Increment (Angstroms) --  .25 
Filter Wheel #1 Position ---------- (1) Ground quartz diffuser (ND=2.32)
Filter Wheel #2 Position ---------- (1) Neutral Density 0.494



************************************************************
HS scan start time = 02:33:31
Dark Count =  2.1 


Time (GMT)  Wavelength (Ang)  Step Number  Raw Counts  Counts/Second

  154.41        2950.00           2144         521.00      2262.16
  154.61        2950.25           2147         518.00      2249.08
  154.64        2950.50           2151         498.00      2161.89
  154.67        2950.75           2155         515.00      2236.00
  154.70        2951.00           2158         540.00      2345.00
  154.73        2951.25           2162         512.00      2222.92
  154.76        2951.50           2165         513.00      2227.28
  154.79        2951.75           2169         545.00      2366.80
  154.82        2952.00           2172         527.00      2288.32
  154.85        2952.25           2176         502.00      2179.32
  154.88        2952.50           2179         514.00      2231.64
  154.91        2952.75           2183         545.00      2366.80
  154.94        2953.00           2186         551.00      2392.96
  154.97        2953.25           2190         566.00      2458.36
  155.00        2953.50           2193         536.00      2327.56
  155.03        2953.75           2197         546.00      2371.16
  155.06        2954.00           2200         533.00      2314.48
  155.10        2954.25           2204         562.00      2440.92
  155.13        2954.50           2208         594.00      2580.44
  155.16        2954.75           2211         549.00      2384.24
  155.19        2955.00           2215         558.00      2423.48
  155.22        2955.25           2218         566.00      2458.36
  155.25        2955.50           2222         576.00      2501.96
  155.28        2955.75           2225         558.00      2423.48
  155.31        2956.00           2229         588.00      2554.28
  155.34        2956.25           2232         585.00      2541.20
  155.37        2956.50           2236         621.00      2698.16
  155.40        2956.75           2239         625.00      2715.60
  155.43        2957.00           2243         603.00      2619.68
  155.46        2957.25           2246         635.00      2759.20
  155.49        2957.50           2250         612.00      2658.92
  155.52        2957.75           2254         656.00      2850.76
  155.55        2958.00           2257         659.00      2863.84
  155.58        2958.25           2261         645.00      2802.80
  155.62        2958.50           2264         639.00      2776.64
  155.65        2958.75           2268         639.00      2776.64
  155.68        2959.00           2271         673.00      2924.88
  155.71        2959.25           2275         694.00      3016.44
  155.74        2959.50           2278         679.00      2951.04
  155.77        2959.75           2282         706.00      3068.76
  155.80        2960.00           2285         690.00      2999.00
  155.83        2960.25           2289         723.00      3142.88
  155.86        2960.50           2293         738.00      3208.28
  155.89        2960.75           2296         790.00      3435.01
  155.92        2961.00           2300        1000.00      4350.69
  155.95        2961.25           2303        1897.00      8262.57
  155.98        2961.50           2307        7300.00     31847.46
  156.01        2961.75           2310       14214.00     62083.40
  156.04        2962.00           2314       24782.00    108419.40
  156.07        2962.25           2317       32366.00    141762.30
  156.10        2962.50           2321       42158.00    184925.00
  156.14        2962.75           2324       49720.00    218345.10
  156.17        2963.00           2328       60657.00    266816.30
  156.20        2963.25           2331       69979.00    308257.00
  156.23        2963.50           2335       81467.00    359488.80
  156.26        2963.75           2339       92220.00    407606.00
  156.29        2964.00           2342       99922.00    442168.40
  156.32        2964.25           2346      111046.00    492231.70
  156.35        2964.50           2349      118700.00    526778.50
  156.38        2964.75           2353      130008.00    577968.20
  156.41        2965.00           2356      137448.00    611746.50
  156.44        2965.25           2360      148464.00    661904.50
  156.47        2965.50           2363      156139.00    696952.90
  156.50        2965.75           2367      166536.00    744566.60
  156.53        2966.00           2370      173689.00    777415.10
  156.56        2966.25           2374      181588.00    813776.20
  156.59        2966.50           2378      185644.00    832482.50
  156.62        2966.75           2381      186475.00    836318.00
  156.66        2967.00           2385      186492.00    836396.50
  156.69        2967.25           2388      187574.00    841392.00
  156.72        2967.50           2392      186053.00    834370.10
  156.75        2967.75           2395      184946.00    829261.60
  156.78        2968.00           2399      178923.00    801498.40
  156.81        2968.25           2402      172134.00    770267.80
  156.84        2968.50           2406      162042.00    723966.90
  156.87        2968.75           2409      154031.00    687318.10
  156.90        2969.00           2413      144158.00    642277.80
  156.93        2969.25           2417      134275.00    597331.20
  156.96        2969.50           2420      126121.00    560352.00
  156.99        2969.75           2424      115881.00    514045.30
  157.02        2970.00           2427      108185.00    479339.50
  157.05        2970.25           2431       97468.00    431147.20
  157.08        2970.50           2434       88722.00    391935.80
  157.11        2970.75           2438       76882.00    339020.00
  157.14        2971.00           2441       68461.00    301500.80
  157.18        2971.25           2445       57605.00    253274.10
  157.21        2971.50           2449       47649.00    209184.80
  157.24        2971.75           2452       40044.00    175595.80
  157.27        2972.00           2456       29934.00    131061.80
  157.30        2972.25           2459       21800.00     95329.84
  157.33        2972.50           2463       11055.00     48260.91
  157.36        2972.75           2466        5217.00     22750.37
  157.39        2973.00           2470        1587.00      6910.52
  157.42        2973.25           2473         964.00      4193.71
  157.45        2973.50           2477         826.00      3591.98
  157.48        2973.75           2481         773.00      3360.89
  157.51        2974.00           2484         759.00      3299.85
  157.54        2974.25           2488         736.00      3199.56
  157.57        2974.50           2491         733.00      3186.48
  157.60        2974.75           2495         711.00      3090.56
  157.63        2975.00           2498         687.00      2985.92
  157.66        2975.25           2502         663.00      2881.28
  157.69        2975.50           2505         679.00      2951.04
  157.73        2975.75           2509         682.00      2964.12
  157.76        2976.00           2512         647.00      2811.52
  157.79        2976.25           2516         656.00      2850.76
  157.82        2976.50           2520         645.00      2802.80
  157.85        2976.75           2523         645.00      2802.80
  157.88        2977.00           2527         625.00      2715.60
  157.91        2977.25           2530         594.00      2580.44
  157.94        2977.50           2534         639.00      2776.64
  157.97        2977.75           2537         604.00      2624.04
  158.00        2978.00           2541         593.00      2576.08
  158.03        2978.25           2544         590.00      2563.00
  158.06        2978.50           2548         588.00      2554.28
  158.09        2978.75           2552         562.00      2440.92
  158.12        2979.00           2555         578.00      2510.68
  158.15        2979.25           2559         589.00      2558.64
  158.18        2979.50           2562         553.00      2401.68
  158.21        2979.75           2566         548.00      2379.88
  158.25        2980.00           2569         552.00      2397.32
  158.28        2980.25           2573         560.00      2432.20
  158.31        2980.50           2577         524.00      2275.24
  158.34        2980.75           2580         581.00      2523.76
  158.37        2981.00           2584         508.00      2205.48
  158.40        2981.25           2587         514.00      2231.64
  158.43        2981.50           2591         527.00      2288.32
  158.46        2981.75           2594         557.00      2419.12
  158.49        2982.00           2598         542.00      2353.72
  158.52        2982.25           2601         522.00      2266.52
  158.55        2982.50           2605         539.00      2340.64
  158.58        2982.75           2609         529.00      2297.04
  158.61        2983.00           2612         518.00      2249.08
  158.64        2983.25           2616         542.00      2353.72
  158.67        2983.50           2619         513.00      2227.28
  158.70        2983.75           2623         531.00      2305.76
  158.74        2984.00           2626         504.00      2188.04
HS scan finished at 02:38:58
end
************************************************************
  HS Scan of 
************************************************************
Integration time is 0.2294 seconds per sample
dh230517Reading 51.44 .94 3.66pr1000
************************************************************
Dead Time -------------------------  3.4E-08 
Number of Cycles Used -------------  4 
Starting Wavelength (Angstroms) ---  2950 
Final Wavelength (Angstoms) -------  2984 
Wavelength Increment (Angstroms) --  .25 
Filter Wheel #1 Position ---------- (1) Ground quartz diffuser (ND=2.32)
Filter Wheel #2 Position ---------- (1) Neutral Density 0.494



************************************************************
HS scan start time = 21:07:27
Dark Count =  4.1 


Time (GMT)  Wavelength (Ang)  Step Number  Raw Counts  Counts/Second

 1268.35        2950.00           2144         316.00      1359.70
 1268.54        2950.25           2147         319.00      1372.78
 1268.57        2950.50           2151         309.00      1329.18
 1268.60        2950.75           2155         311.00      1337.90
 1268.63        2951.00           2158         307.00      1320.46
 1268.66        2951.25           2162         319.00      1372.78
 1268.69        2951.50           2165         321.00      1381.49
 1268.72        2951.75           2169         334.00      1438.17
 1268.76        2952.00           2172         327.00      1407.65
 1268.79        2952.25           2176         334.00      1438.17
 1268.82        2952.50           2179         339.00      1459.97
 1268.85        2952.75           2183         350.00      1507.92
 1268.88        2953.00           2186         339.00      1459.97
 1268.91        2953.25           2190         334.00      1438.17
 1268.94        2953.50           2193         342.00      1473.05
 1268.97        2953.75           2197         341.00      1468.69
 1269.00        2954.00           2200         339.00      1459.97
 1269.03        2954.25           2204         335.00      1442.53
 1269.06        2954.50           2208         339.00      1459.97
 1269.09        2954.75           2211         359.00      1547.16
 1269.12        2955.00           2215         363.00      1564.60
 1269.15        2955.25           2218         358.00      1542.80
 1269.18        2955.50           2222         349.00      1503.56
 1269.21        2955.75           2225         343.00      1477.41
 1269.24        2956.00           2229         335.00      1442.53
 1269.28        2956.25           2232         344.00      1481.77
 1269.31        2956.50           2236         358.00      1542.80
 1269.34        2956.75           2239         379.00      1634.35
 1269.37        2957.00           2243         376.00      1621.27
 1269.40        2957.25           2246         362.00      1560.24
 1269.43        2957.50           2250         390.00      1682.31
 1269.46        2957.75           2254         413.00      1782.58
 1269.49        2958.00           2257         397.00      1712.83
 1269.52        2958.25           2261         372.00      1603.84
 1269.55        2958.50           2264         383.00      1651.79
 1269.58        2958.75           2268         404.00      1743.35
 1269.61        2959.00           2271         414.00      1786.94
 1269.64        2959.25           2275         402.00      1734.63
 1269.67        2959.50           2278         419.00      1808.74
 1269.70        2959.75           2282         407.00      1756.43
 1269.73        2960.00           2285         428.00      1847.98
 1269.78        2960.25           2289         441.00      1904.66
 1269.81        2960.50           2293         434.00      1874.14
 1269.84        2960.75           2296         455.00      1965.69
 1269.87        2961.00           2300         504.00      2179.32
 1269.90        2961.25           2303         783.00      3395.77
 1269.93        2961.50           2307        2960.00     12891.00
 1269.96        2961.75           2310        6546.00     28545.13
 1269.99        2962.00           2314       12093.00     52792.59
 1270.02        2962.25           2317       16507.00     72116.03
 1270.05        2962.50           2321       22342.00     97699.32
 1270.09        2962.75           2324       26718.00    116915.00
 1270.12        2963.00           2328       33359.00    146124.80
 1270.15        2963.25           2331       38689.00    169610.40
 1270.18        2963.50           2335       45425.00    199345.20
 1270.21        2963.75           2339       51524.00    226320.30
 1270.24        2964.00           2342       56208.00    247070.70
 1270.27        2964.25           2346       62904.00    276785.60
 1270.30        2964.50           2349       67851.00    298777.90
 1270.34        2964.75           2353       74594.00    328807.50
 1270.38        2965.00           2356       79164.00    349195.00
 1270.41        2965.25           2360       84794.00    374350.50
 1270.44        2965.50           2363       89589.00    395809.30
 1270.47        2965.75           2367       95938.00    424271.20
 1270.50        2966.00           2370      100027.00    442631.20
 1270.53        2966.25           2374      105889.00    468992.40
 1270.56        2966.50           2378      109746.00    486363.20
 1270.59        2966.75           2381      111347.00    493579.80
 1270.62        2967.00           2385      111708.00    495207.50
 1270.65        2967.25           2388      111675.00    495058.70
 1270.68        2967.50           2392      111810.00    495667.50
 1270.71        2967.75           2395      111616.00    494792.70
 1270.74        2968.00           2399      110249.00    488630.20
 1270.77        2968.25           2402      106979.00    473899.30
 1270.80        2968.50           2406      100617.00    445282.20
 1270.84        2968.75           2409       96173.00    425325.70
 1270.87        2969.00           2413       90445.00    399643.40
 1270.90        2969.25           2417       84505.00    373058.20
 1270.93        2969.50           2420       79704.00    351605.90
 1270.96        2969.75           2424       72791.00    320771.90
 1270.99        2970.00           2427       67860.00    298817.90
 1271.02        2970.25           2431       60659.00    266816.30
 1271.05        2970.50           2434       55336.00    243205.50
 1271.08        2970.75           2438       48419.00    212581.10
 1271.11        2971.00           2441       43291.00    189918.60
 1271.14        2971.25           2445       36735.00    160996.10
 1271.17        2971.50           2449       30346.00    132865.20
 1271.20        2971.75           2452       25334.00    110834.90
 1271.23        2972.00           2456       18470.00     80717.74
 1271.26        2972.25           2459       13754.00     60061.07
 1271.29        2972.50           2463        8074.00     35220.44
 1271.32        2972.75           2466        4687.00     20427.87
 1271.35        2973.00           2470        1607.00      6989.02
 1271.39        2973.25           2473         745.00      3230.08
 1271.42        2973.50           2477         514.00      2222.92
 1271.45        2973.75           2481         502.00      2170.60
 1271.48        2974.00           2484         479.00      2070.33
 1271.51        2974.25           2488         460.00      1987.49
 1271.54        2974.50           2491         441.00      1904.66
 1271.57        2974.75           2495         437.00      1887.22
 1271.60        2975.00           2498         440.00      1900.30
 1271.63        2975.25           2502         422.00      1821.82
 1271.66        2975.50           2505         434.00      1874.14
 1271.69        2975.75           2509         423.00      1826.18
 1271.72        2976.00           2512         403.00      1738.99
 1271.75        2976.25           2516         406.00      1752.07
 1271.78        2976.50           2520         390.00      1682.31
 1271.81        2976.75           2523         393.00      1695.39
 1271.84        2977.00           2527         422.00      1821.82
 1271.87        2977.25           2530         401.00      1730.27
 1271.91        2977.50           2534         389.00      1677.95
 1271.94        2977.75           2537         368.00      1586.40
 1271.97        2978.00           2541         389.00      1677.95
 1272.00        2978.25           2544         353.00      1521.00
 1272.03        2978.50           2548         348.00      1499.20
 1272.06        2978.75           2552         396.00      1708.47
 1272.09        2979.00           2555         371.00      1599.48
 1272.12        2979.25           2559         347.00      1494.84
 1272.15        2979.50           2562         407.00      1756.43
 1272.18        2979.75           2566         343.00      1477.41
 1272.21        2980.00           2569         343.00      1477.41
 1272.24        2980.25           2573         342.00      1473.05
 1272.27        2980.50           2577         359.00      1547.16
 1272.30        2980.75           2580         346.00      1490.49
 1272.33        2981.00           2584         317.00      1364.06
 1272.36        2981.25           2587         322.00      1385.85
 1272.39        2981.50           2591         334.00      1438.17
 1272.43        2981.75           2594         341.00      1468.69
 1272.46        2982.00           2598         313.00      1346.62
 1272.49        2982.25           2601         328.00      1412.01
 1272.52        2982.50           2605         326.00      1403.29
 1272.55        2982.75           2609         322.00      1385.85
 1272.58        2983.00           2612         325.00      1398.93
 1272.61        2983.25           2616         318.00      1368.42
 1272.64        2983.50           2619         309.00      1329.18
 1272.67        2983.75           2623         319.00      1372.78
 1272.70        2984.00           2626         330.00      1420.73
HS scan finished at 21:12:55
end
