************************************************************
  HS Scan of 
************************************************************
Integration time is 0.2294 seconds per sample
dh250517Reading 51.44 .94 3.52pr1000
************************************************************
Dead Time -------------------------  3.4E-08 
Number of Cycles Used -------------  4 
Starting Wavelength (Angstroms) ---  2950 
Final Wavelength (Angstoms) -------  2984 
Wavelength Increment (Angstroms) --  .25 
Filter Wheel #1 Position ---------- (1) Ground quartz diffuser (ND=2.32)
Filter Wheel #2 Position ---------- (1) Neutral Density 0.494



************************************************************
HS scan start time = 01:04:47
Dark Count =  2.8 


Time (GMT)  Wavelength (Ang)  Step Number  Raw Counts  Counts/Second

   65.69        2950.00           2144         326.00      1408.96
   65.88        2950.25           2147         326.00      1408.96
   65.91        2950.50           2151         314.00      1356.65
   65.94        2950.75           2155         335.00      1448.20
   65.97        2951.00           2158         334.00      1443.84
   66.00        2951.25           2162         328.00      1417.68
   66.03        2951.50           2165         329.00      1422.04
   66.06        2951.75           2169         322.00      1391.52
   66.10        2952.00           2172         311.00      1343.57
   66.13        2952.25           2176         310.00      1339.21
   66.16        2952.50           2179         313.00      1352.29
   66.19        2952.75           2183         320.00      1382.80
   66.22        2953.00           2186         318.00      1374.08
   66.25        2953.25           2190         327.00      1413.32
   66.28        2953.50           2193         330.00      1426.40
   66.31        2953.75           2197         312.00      1347.93
   66.34        2954.00           2200         325.00      1404.60
   66.37        2954.25           2204         343.00      1483.07
   66.40        2954.50           2208         342.00      1478.71
   66.43        2954.75           2211         338.00      1461.28
   66.46        2955.00           2215         354.00      1531.03
   66.49        2955.25           2218         346.00      1496.15
   66.52        2955.50           2222         338.00      1461.28
   66.55        2955.75           2225         351.00      1517.95
   66.58        2956.00           2229         380.00      1644.38
   66.62        2956.25           2232         358.00      1548.47
   66.65        2956.50           2236         352.00      1522.31
   66.68        2956.75           2239         373.00      1613.86
   66.71        2957.00           2243         365.00      1578.99
   66.74        2957.25           2246         375.00      1622.58
   66.77        2957.50           2250         380.00      1644.38
   66.80        2957.75           2254         403.00      1744.65
   66.83        2958.00           2257         390.00      1687.98
   66.86        2958.25           2261         373.00      1613.86
   66.89        2958.50           2264         394.00      1705.42
   66.92        2958.75           2268         411.00      1779.53
   66.95        2959.00           2271         414.00      1792.61
   66.98        2959.25           2275         418.00      1810.05
   67.01        2959.50           2278         447.00      1936.48
   67.04        2959.75           2282         422.00      1827.49
   67.07        2960.00           2285         439.00      1901.61
   67.10        2960.25           2289         452.00      1958.28
   67.13        2960.50           2293         479.00      2076.00
   67.17        2960.75           2296         475.00      2058.56
   67.20        2961.00           2300         597.00      2590.46
   67.23        2961.25           2303        1337.00      5817.19
   67.26        2961.50           2307        4560.00     19879.17
   67.29        2961.75           2310        8137.00     35501.42
   67.32        2962.00           2314       13592.00     59357.69
   67.35        2962.25           2317       18079.00     79009.70
   67.38        2962.50           2321       24959.00    109193.70
   67.41        2962.75           2324       30386.00    133046.90
   67.44        2963.00           2328       38001.00    166582.50
   67.47        2963.25           2331       43370.00    190273.20
   67.50        2963.50           2335       49804.00    218713.70
   67.53        2963.75           2339       56693.00    249226.80
   67.56        2964.00           2342       61872.00    272207.80
   67.59        2964.25           2346       68813.00    303064.10
   67.62        2964.50           2349       73922.00    325817.90
   67.65        2964.75           2353       80341.00    354456.20
   67.69        2965.00           2356       85187.00    376113.90
   67.72        2965.25           2360       91218.00    403112.40
   67.75        2965.50           2363       96573.00    427126.70
   67.78        2965.75           2367      102567.00    454053.50
   67.81        2966.00           2370      106933.00    473698.20
   67.84        2966.25           2374      113081.00    501405.70
   67.87        2966.50           2378      116338.00    516105.60
   67.90        2966.75           2381      117194.00    519971.50
   67.93        2967.00           2385      116946.00    518851.40
   67.96        2967.25           2388      116979.00    519000.40
   67.99        2967.50           2392      117249.00    520219.90
   68.02        2967.75           2395      116656.00    517541.70
   68.05        2968.00           2399      113258.00    502204.20
   68.08        2968.25           2402      109182.00    483827.70
   68.11        2968.50           2406      102836.00    455263.00
   68.14        2968.75           2409       98317.00    434956.20
   68.17        2969.00           2413       91998.00    406607.90
   68.21        2969.25           2417       85425.00    377178.40
   68.24        2969.50           2420       80728.00    356184.60
   68.27        2969.75           2424       74280.00    327413.60
   68.30        2970.00           2427       69004.00    303914.10
   68.33        2970.25           2431       61678.00    271346.30
   68.36        2970.50           2434       56529.00    248499.60
   68.39        2970.75           2438       49441.00    217107.60
   68.42        2971.00           2441       44096.00    193479.60
   68.45        2971.25           2445       36737.00    161010.70
   68.48        2971.50           2449       29250.00    128050.60
   68.51        2971.75           2452       23952.00    104771.90
   68.54        2972.00           2456       17373.00     75915.84
   68.57        2972.25           2459       12591.00     54977.13
   68.60        2972.50           2463        6821.00     29751.97
   68.63        2972.75           2466        3284.00     14310.36
   68.66        2973.00           2470        1027.00      4465.37
   68.69        2973.25           2473         611.00      2651.50
   68.73        2973.50           2477         526.00      2280.91
   68.76        2973.75           2481         487.00      2110.88
   68.79        2974.00           2484         475.00      2058.56
   68.82        2974.25           2488         469.00      2032.40
   68.85        2974.50           2491         445.00      1927.76
   68.88        2974.75           2495         457.00      1980.08
   68.91        2975.00           2498         441.00      1910.32
   68.94        2975.25           2502         438.00      1897.25
   68.97        2975.50           2505         425.00      1840.57
   69.00        2975.75           2509         411.00      1779.53
   69.03        2976.00           2512         413.00      1788.25
   69.06        2976.25           2516         419.00      1814.41
   69.09        2976.50           2520         413.00      1788.25
   69.12        2976.75           2523         409.00      1770.81
   69.15        2977.00           2527         400.00      1731.58
   69.18        2977.25           2530         395.00      1709.78
   69.22        2977.50           2534         376.00      1626.94
   69.25        2977.75           2537         410.00      1775.17
   69.28        2978.00           2541         365.00      1578.99
   69.31        2978.25           2544         378.00      1635.66
   69.34        2978.50           2548         358.00      1548.47
   69.37        2978.75           2552         387.00      1674.90
   69.40        2979.00           2555         349.00      1509.23
   69.43        2979.25           2559         345.00      1491.79
   69.46        2979.50           2562         362.00      1565.91
   69.49        2979.75           2566         342.00      1478.71
   69.52        2980.00           2569         350.00      1513.59
   69.55        2980.25           2573         336.00      1452.56
   69.58        2980.50           2577         346.00      1496.15
   69.61        2980.75           2580         364.00      1574.63
   69.64        2981.00           2584         345.00      1491.79
   69.67        2981.25           2587         338.00      1461.28
   69.70        2981.50           2591         338.00      1461.28
   69.73        2981.75           2594         355.00      1535.39
   69.77        2982.00           2598         319.00      1378.44
   69.80        2982.25           2601         312.00      1347.93
   69.83        2982.50           2605         337.00      1456.92
   69.86        2982.75           2609         317.00      1369.72
   69.89        2983.00           2612         314.00      1356.65
   69.92        2983.25           2616         309.00      1334.85
   69.95        2983.50           2619         307.00      1326.13
   69.98        2983.75           2623         325.00      1404.60
   70.01        2984.00           2626         329.00      1422.04
HS scan finished at 01:10:14
end
************************************************************
  HS Scan of 
************************************************************
Integration time is 0.2294 seconds per sample
dh250517Reading 51.44 .94 3.74pr1000
************************************************************
Dead Time -------------------------  3.4E-08 
Number of Cycles Used -------------  4 
Starting Wavelength (Angstroms) ---  2950 
Final Wavelength (Angstoms) -------  2984 
Wavelength Increment (Angstroms) --  .25 
Filter Wheel #1 Position ---------- (1) Ground quartz diffuser (ND=2.32)
Filter Wheel #2 Position ---------- (1) Neutral Density 0.494



************************************************************
HS scan start time = 21:07:22
Dark Count =  6.4 


Time (GMT)  Wavelength (Ang)  Step Number  Raw Counts  Counts/Second

 1268.27        2950.00           2144         463.00      1990.54
 1268.46        2950.25           2147         449.00      1929.51
 1268.49        2950.50           2151         438.00      1881.55
 1268.52        2950.75           2155         442.00      1898.99
 1268.56        2951.00           2158         422.00      1811.79
 1268.59        2951.25           2162         426.00      1829.23
 1268.62        2951.50           2165         432.00      1855.39
 1268.65        2951.75           2169         457.00      1964.39
 1268.68        2952.00           2172         465.00      1999.26
 1268.71        2952.25           2176         456.00      1960.03
 1268.74        2952.50           2179         469.00      2016.70
 1268.77        2952.75           2183         455.00      1955.67
 1268.80        2953.00           2186         499.00      2147.50
 1268.83        2953.25           2190         464.00      1994.90
 1268.86        2953.50           2193         477.00      2051.58
 1268.89        2953.75           2197         453.00      1946.95
 1268.92        2954.00           2200         459.00      1973.11
 1268.95        2954.25           2204         489.00      2103.90
 1268.98        2954.50           2208         472.00      2029.78
 1269.01        2954.75           2211         495.00      2130.06
 1269.05        2955.00           2215         464.00      1994.90
 1269.08        2955.25           2218         466.00      2003.62
 1269.11        2955.50           2222         488.00      2099.54
 1269.14        2955.75           2225         493.00      2121.34
 1269.17        2956.00           2229         490.00      2108.26
 1269.20        2956.25           2232         497.00      2138.78
 1269.23        2956.50           2236         487.00      2095.18
 1269.26        2956.75           2239         498.00      2143.14
 1269.29        2957.00           2243         518.00      2230.33
 1269.32        2957.25           2246         546.00      2352.41
 1269.35        2957.50           2250         492.00      2116.98
 1269.38        2957.75           2254         544.00      2343.69
 1269.41        2958.00           2257         513.00      2208.54
 1269.44        2958.25           2261         525.00      2260.85
 1269.47        2958.50           2264         560.00      2413.45
 1269.50        2958.75           2268         540.00      2326.25
 1269.53        2959.00           2271         546.00      2352.41
 1269.56        2959.25           2275         544.00      2343.69
 1269.60        2959.50           2278         565.00      2435.25
 1269.63        2959.75           2282         580.00      2500.65
 1269.66        2960.00           2285         585.00      2522.45
 1269.69        2960.25           2289         611.00      2635.81
 1269.72        2960.50           2293         655.00      2827.65
 1269.75        2960.75           2296         645.00      2784.05
 1269.78        2961.00           2300         702.00      3032.57
 1269.81        2961.25           2303         952.00      4122.64
 1269.84        2961.50           2307        3259.00     14185.57
 1269.87        2961.75           2310        8283.00     36123.68
 1269.90        2962.00           2314       16443.00     71825.59
 1269.93        2962.25           2317       23184.00    101384.60
 1269.96        2962.50           2321       31215.00    136678.10
 1269.99        2962.75           2324       37581.00    164715.00
 1270.02        2963.00           2328       46706.00    204996.70
 1270.05        2963.25           2331       53393.00    234586.40
 1270.08        2963.50           2335       61789.00    271823.20
 1270.12        2963.75           2339       70536.00    310717.80
 1270.15        2964.00           2342       77705.00    342672.90
 1270.18        2964.25           2346       87575.00    386782.00
 1270.21        2964.50           2349       94087.00    415957.30
 1270.24        2964.75           2353      102494.00    453709.00
 1270.27        2965.00           2356      108950.00    482766.20
 1270.30        2965.25           2360      118395.00    525380.90
 1270.33        2965.50           2363      125787.00    558819.80
 1270.36        2965.75           2367      135252.00    601748.70
 1270.39        2966.00           2370      140960.00    627698.90
 1270.42        2966.25           2374      149244.00    665442.90
 1270.45        2966.50           2378      154979.00    691630.50
 1270.48        2966.75           2381      157307.00    702274.30
 1270.51        2967.00           2385      157625.00    703728.80
 1270.54        2967.25           2388      157344.00    702443.50
 1270.57        2967.50           2392      157216.00    701858.00
 1270.61        2967.75           2395      156725.00    699612.50
 1270.64        2968.00           2399      152043.00    678218.00
 1270.67        2968.25           2402      146954.00    654999.30
 1270.70        2968.50           2406      139190.00    619647.10
 1270.73        2968.75           2409      133467.00    593643.00
 1270.76        2969.00           2413      125131.00    555849.30
 1270.79        2969.25           2417      116110.00    515059.80
 1270.82        2969.50           2420      108770.00    481955.30
 1270.85        2969.75           2424       99428.00    439929.80
 1270.88        2970.00           2427       92952.00    410868.00
 1270.91        2970.25           2431       83681.00    369363.80
 1270.94        2970.50           2434       76949.00    339299.80
 1270.97        2970.75           2438       67037.00    295146.60
 1271.00        2971.00           2441       59415.00    261284.80
 1271.03        2971.25           2445       50248.00    220662.40
 1271.06        2971.50           2449       41162.00    180509.90
 1271.09        2971.75           2452       34799.00    152456.10
 1271.12        2972.00           2456       25766.00    112722.40
 1271.16        2972.25           2459       19469.00     85087.12
 1271.19        2972.50           2463       11540.00     50363.42
 1271.22        2972.75           2466        6282.00     27382.06
 1271.25        2973.00           2470        1827.00      7938.50
 1271.28        2973.25           2473         894.00      3869.73
 1271.31        2973.50           2477         684.00      2954.09
 1271.34        2973.75           2481         646.00      2788.41
 1271.37        2974.00           2484         634.00      2736.09
 1271.40        2974.25           2488         615.00      2653.25
 1271.43        2974.50           2491         596.00      2570.41
 1271.47        2974.75           2495         567.00      2443.97
 1271.50        2975.00           2498         556.00      2396.01
 1271.53        2975.25           2502         558.00      2404.73
 1271.56        2975.50           2505         557.00      2400.37
 1271.59        2975.75           2509         539.00      2321.89
 1271.62        2976.00           2512         559.00      2409.09
 1271.65        2976.25           2516         550.00      2369.85
 1271.68        2976.50           2520         535.00      2304.45
 1271.71        2976.75           2523         547.00      2356.77
 1271.74        2977.00           2527         505.00      2173.66
 1271.77        2977.25           2530         508.00      2186.74
 1271.80        2977.50           2534         489.00      2103.90
 1271.83        2977.75           2537         537.00      2313.17
 1271.87        2978.00           2541         494.00      2125.70
 1271.90        2978.25           2544         470.00      2021.06
 1271.93        2978.50           2548         485.00      2086.46
 1271.96        2978.75           2552         464.00      1994.90
 1271.99        2979.00           2555         482.00      2073.38
 1272.02        2979.25           2559         497.00      2138.78
 1272.05        2979.50           2562         490.00      2108.26
 1272.08        2979.75           2566         475.00      2042.86
 1272.11        2980.00           2569         459.00      1973.11
 1272.14        2980.25           2573         451.00      1938.23
 1272.17        2980.50           2577         452.00      1942.59
 1272.20        2980.75           2580         445.00      1912.07
 1272.23        2981.00           2584         447.00      1920.79
 1272.26        2981.25           2587         447.00      1920.79
 1272.29        2981.50           2591         440.00      1890.27
 1272.32        2981.75           2594         431.00      1851.03
 1272.35        2982.00           2598         448.00      1925.15
 1272.39        2982.25           2601         408.00      1750.76
 1272.42        2982.50           2605         432.00      1855.39
 1272.45        2982.75           2609         415.00      1781.28
 1272.48        2983.00           2612         419.00      1798.72
 1272.51        2983.25           2616         420.00      1803.07
 1272.54        2983.50           2619         429.00      1842.31
 1272.57        2983.75           2623         425.00      1824.87
 1272.60        2984.00           2626         431.00      1851.03
HS scan finished at 21:12:49
end
