************************************************************
  HS Scan of (1) Internal mercury lamp
************************************************************
Integration time is 0.2294 seconds per sample
dh200519Reading 51.44 .94 3.39pr1000
************************************************************
Dead Time -------------------------  3.4E-08 
Number of Cycles Used -------------  4 
Starting Wavelength (Angstroms) ---  2950 
Final Wavelength (Angstoms) -------  2984 
Wavelength Increment (Angstroms) --  .25 
Filter Wheel #1 Position ---------- (1) Ground quartz diffuser (ND=2.32)
Filter Wheel #2 Position ---------- (1) Neutral Density 0.494



************************************************************
HS scan start time = 01:09:16
Dark Count =  1.8 


Time (GMT)  Wavelength (Ang)  Step Number  Raw Counts  Counts/Second

   70.16        2950.00           2144        1413.00      6152.99
   70.36        2950.25           2147        1402.00      6105.02
   70.39        2950.50           2151        1448.00      6305.62
   70.42        2950.75           2155        1457.00      6344.87
   70.45        2951.00           2158        1460.00      6357.96
   70.48        2951.25           2162        1387.00      6039.60
   70.51        2951.50           2165        1447.00      6301.26
   70.54        2951.75           2169        1440.00      6270.74
   70.57        2952.00           2172        1442.00      6279.46
   70.60        2952.25           2176        1463.00      6371.04
   70.63        2952.50           2179        1444.00      6288.18
   70.66        2952.75           2183        1456.00      6340.51
   70.69        2953.00           2186        1488.00      6480.07
   70.72        2953.25           2190        1463.00      6371.04
   70.75        2953.50           2193        1465.00      6379.76
   70.78        2953.75           2197        1466.00      6384.12
   70.81        2954.00           2200        1510.00      6576.01
   70.84        2954.25           2204        1539.00      6702.49
   70.88        2954.50           2208        1539.00      6702.49
   70.91        2954.75           2211        1546.00      6733.01
   70.94        2955.00           2215        1535.00      6685.04
   70.97        2955.25           2218        1572.00      6846.41
   71.00        2955.50           2222        1533.00      6676.32
   71.03        2955.75           2225        1545.00      6728.65
   71.06        2956.00           2229        1585.00      6903.10
   71.09        2956.25           2232        1587.00      6911.83
   71.12        2956.50           2236        1600.00      6968.52
   71.15        2956.75           2239        1637.00      7129.89
   71.18        2957.00           2243        1586.00      6907.46
   71.21        2957.25           2246        1597.00      6955.44
   71.24        2957.50           2250        1669.00      7269.45
   71.27        2957.75           2254        1672.00      7282.54
   71.30        2958.00           2257        1652.00      7195.31
   71.33        2958.25           2261        1659.00      7225.84
   71.37        2958.50           2264        1704.00      7422.10
   71.40        2958.75           2268        1738.00      7570.39
   71.43        2959.00           2271        1762.00      7675.06
   71.46        2959.25           2275        1766.00      7692.51
   71.49        2959.50           2278        1763.00      7679.43
   71.52        2959.75           2282        1854.00      8076.32
   71.55        2960.00           2285        1860.00      8102.49
   71.58        2960.25           2289        1897.00      8263.87
   71.61        2960.50           2293        1996.00      8695.68
   71.64        2960.75           2296        1958.00      8529.94
   71.67        2961.00           2300        2224.00      9690.20
   71.70        2961.25           2303        3301.00     14388.90
   71.73        2961.50           2307       12258.00     53524.53
   71.76        2961.75           2310       24819.00    108583.20
   71.79        2962.00           2314       45361.00    199072.60
   71.82        2962.25           2317       62382.00    274477.20
   71.85        2962.50           2321       86955.00    384027.90
   71.88        2962.75           2324      108964.00    482850.10
   71.92        2963.00           2328      137229.00    610752.50
   71.95        2963.25           2331      157445.00    702926.50
   71.98        2963.50           2335      182094.00    816109.90
   72.01        2963.75           2339      209026.00    940794.90
   72.04        2964.00           2342      230934.00   1043019.00
   72.07        2964.25           2346      257352.00   1167258.00
   72.10        2964.50           2349      277284.00   1261708.00
   72.13        2964.75           2353      305000.00   1394084.00
   72.16        2965.00           2356      324049.00   1485778.00
   72.19        2965.25           2360      347883.00   1601338.00
   72.22        2965.50           2363      365074.00   1685273.00
   72.25        2965.75           2367      388500.00   1800450.00
   72.28        2966.00           2370      404762.00   1880956.00
   72.31        2966.25           2374      426865.00   1991114.00
   72.34        2966.50           2378      440686.00   2060433.00
   72.37        2966.75           2381      445254.00   2083418.00
   72.40        2967.00           2385      446166.00   2088012.00
   72.44        2967.25           2388      446644.00   2090420.00
   72.47        2967.50           2392      445420.00   2084254.00
   72.50        2967.75           2395      444552.00   2079883.00
   72.53        2968.00           2399      434086.00   2027288.00
   72.56        2968.25           2402      419721.00   1955416.00
   72.59        2968.50           2406      397358.00   1844246.00
   72.62        2968.75           2409      380542.00   1761219.00
   72.65        2969.00           2413      357565.00   1648549.00
   72.68        2969.25           2417      333570.00   1531829.00
   72.71        2969.50           2420      316008.00   1447000.00
   72.74        2969.75           2424      291706.00   1330438.00
   72.77        2970.00           2427      270385.00   1228946.00
   72.80        2970.25           2431      240913.00   1089823.00
   72.83        2970.50           2434      221587.00    999316.90
   72.86        2970.75           2438      195850.00    879660.90
   72.89        2971.00           2441      177429.00    794621.30
   72.92        2971.25           2445      153989.00    687127.60
   72.96        2971.50           2449      127901.00    568417.90
   72.99        2971.75           2452      106754.00    472896.70
   73.02        2972.00           2456       78679.00    347040.30
   73.05        2972.25           2459       58845.00    258776.00
   73.08        2972.50           2463       34437.00    150881.90
   73.11        2972.75           2466       18418.00     80499.88
   73.14        2973.00           2470        5845.00     25493.76
   73.17        2973.25           2473        2903.00     12652.35
   73.20        2973.50           2477        2146.00      9349.96
   73.23        2973.75           2481        2014.00      8774.20
   73.26        2974.00           2484        1995.00      8691.32
   73.29        2974.25           2488        1976.00      8608.45
   73.32        2974.50           2491        1938.00      8442.70
   73.35        2974.75           2495        1908.00      8311.85
   73.38        2975.00           2498        1867.00      8133.02
   73.41        2975.25           2502        1864.00      8119.94
   73.44        2975.50           2505        1778.00      7744.85
   73.48        2975.75           2509        1769.00      7705.59
   73.51        2976.00           2512        1745.00      7600.92
   73.54        2976.25           2516        1759.00      7661.98
   73.57        2976.50           2520        1675.00      7295.62
   73.60        2976.75           2523        1685.00      7339.23
   73.63        2977.00           2527        1642.00      7151.70
   73.66        2977.25           2530        1646.00      7169.14
   73.69        2977.50           2534        1629.00      7095.00
   73.72        2977.75           2537        1611.00      7016.49
   73.75        2978.00           2541        1565.00      6815.88
   73.78        2978.25           2544        1578.00      6872.57
   73.81        2978.50           2548        1544.00      6724.29
   73.84        2978.75           2552        1569.00      6833.32
   73.87        2979.00           2555        1517.00      6606.54
   73.90        2979.25           2559        1509.00      6571.65
   73.93        2979.50           2562        1495.00      6510.60
   73.96        2979.75           2566        1520.00      6619.62
   74.00        2980.00           2569        1458.00      6349.23
   74.03        2980.25           2573        1485.00      6466.98
   74.06        2980.50           2577        1468.00      6392.85
   74.09        2980.75           2580        1470.00      6401.57
   74.12        2981.00           2584        1448.00      6305.62
   74.15        2981.25           2587        1410.00      6139.90
   74.18        2981.50           2591        1440.00      6270.74
   74.21        2981.75           2594        1457.00      6344.87
   74.24        2982.00           2598        1400.00      6096.29
   74.27        2982.25           2601        1378.00      6000.35
   74.30        2982.50           2605        1432.00      6235.85
   74.33        2982.75           2609        1416.00      6166.07
   74.36        2983.00           2612        1356.00      5904.41
   74.39        2983.25           2616        1417.00      6170.43
   74.42        2983.50           2619        1404.00      6113.74
   74.45        2983.75           2623        1406.00      6122.46
   74.48        2984.00           2626        1380.00      6009.07
HS scan finished at 01:14:42
end
************************************************************
  HS Scan of (1) Internal mercury lamp
************************************************************
Integration time is 0.2294 seconds per sample
dh200519Reading 51.44 .94 3.62pr1000
************************************************************
Dead Time -------------------------  3.4E-08 
Number of Cycles Used -------------  4 
Starting Wavelength (Angstroms) ---  2950 
Final Wavelength (Angstoms) -------  2984 
Wavelength Increment (Angstroms) --  .25 
Filter Wheel #1 Position ---------- (1) Ground quartz diffuser (ND=2.32)
Filter Wheel #2 Position ---------- (1) Neutral Density 0.494



************************************************************
HS scan start time = 20:39:55
Dark Count =  3.3 


Time (GMT)  Wavelength (Ang)  Step Number  Raw Counts  Counts/Second

 1240.81        2950.00           2144        1250.00      5435.62
 1241.01        2950.25           2147        1206.00      5243.74
 1241.04        2950.50           2151        1248.00      5426.89
 1241.07        2950.75           2155        1213.00      5274.27
 1241.10        2951.00           2158        1235.00      5370.20
 1241.13        2951.25           2162        1239.00      5387.65
 1241.16        2951.50           2165        1230.00      5348.40
 1241.19        2951.75           2169        1249.00      5431.26
 1241.22        2952.00           2172        1242.00      5400.73
 1241.25        2952.25           2176        1243.00      5405.09
 1241.28        2952.50           2179        1281.00      5570.80
 1241.31        2952.75           2183        1256.00      5461.78
 1241.34        2953.00           2186        1275.00      5544.64
 1241.37        2953.25           2190        1285.00      5588.25
 1241.40        2953.50           2193        1306.00      5679.82
 1241.43        2953.75           2197        1293.00      5623.13
 1241.46        2954.00           2200        1274.00      5540.28
 1241.49        2954.25           2204        1301.00      5658.02
 1241.53        2954.50           2208        1330.00      5784.49
 1241.56        2954.75           2211        1328.00      5775.76
 1241.59        2955.00           2215        1318.00      5732.16
 1241.62        2955.25           2218        1302.00      5662.38
 1241.65        2955.50           2222        1321.00      5745.24
 1241.68        2955.75           2225        1355.00      5893.51
 1241.71        2956.00           2229        1354.00      5889.15
 1241.74        2956.25           2232        1386.00      6028.70
 1241.77        2956.50           2236        1384.00      6019.98
 1241.80        2956.75           2239        1368.00      5950.20
 1241.83        2957.00           2243        1366.00      5941.48
 1241.86        2957.25           2246        1413.00      6146.45
 1241.89        2957.50           2250        1442.00      6272.92
 1241.92        2957.75           2254        1450.00      6307.80
 1241.95        2958.00           2257        1447.00      6294.72
 1241.98        2958.25           2261        1471.00      6399.39
 1242.01        2958.50           2264        1501.00      6530.22
 1242.05        2958.75           2268        1506.00      6552.03
 1242.08        2959.00           2271        1508.00      6560.75
 1242.11        2959.25           2275        1516.00      6595.64
 1242.14        2959.50           2278        1579.00      6870.39
 1242.17        2959.75           2282        1624.00      7066.65
 1242.20        2960.00           2285        1601.00      6966.34
 1242.23        2960.25           2289        1655.00      7201.85
 1242.26        2960.50           2293        1690.00      7354.50
 1242.29        2960.75           2296        1719.00      7480.98
 1242.32        2961.00           2300        1885.00      8204.99
 1242.35        2961.25           2303        2219.00      9661.85
 1242.38        2961.50           2307        5845.00     25487.21
 1242.41        2961.75           2310       13407.00     58545.81
 1242.44        2962.00           2314       29739.00    130198.90
 1242.47        2962.25           2317       46392.00    203622.40
 1242.50        2962.50           2321       69567.00    306417.70
 1242.53        2962.75           2324       86909.00    383815.30
 1242.57        2963.00           2328      109476.00    485150.20
 1242.60        2963.25           2331      124826.00    554482.30
 1242.63        2963.50           2335      148764.00    663267.40
 1242.66        2963.75           2339      170406.00    762324.00
 1242.69        2964.00           2342      189583.00    850666.60
 1242.72        2964.25           2346      216206.00    974210.80
 1242.75        2964.50           2349      235262.00   1063293.00
 1242.78        2964.75           2353      257485.00   1167879.00
 1242.81        2965.00           2356      273803.00   1245161.00
 1242.84        2965.25           2360      296136.00   1351608.00
 1242.87        2965.50           2363      312630.00   1430734.00
 1242.90        2965.75           2367      335567.00   1541499.00
 1242.93        2966.00           2370      350525.00   1614198.00
 1242.96        2966.25           2374      372142.00   1719918.00
 1242.99        2966.50           2378      387314.00   1794589.00
 1243.02        2966.75           2381      393154.00   1823436.00
 1243.05        2967.00           2385      395964.00   1837337.00
 1243.09        2967.25           2388      395825.00   1836649.00
 1243.12        2967.50           2392      396587.00   1840421.00
 1243.15        2967.75           2395      395512.00   1835100.00
 1243.18        2968.00           2399      389463.00   1805197.00
 1243.21        2968.25           2402      375687.00   1737330.00
 1243.24        2968.50           2406      360333.00   1662068.00
 1243.27        2968.75           2409      345188.00   1588217.00
 1243.30        2969.00           2413      324044.00   1485746.00
 1243.33        2969.25           2417      302876.00   1383889.00
 1243.36        2969.50           2420      286091.00   1303633.00
 1243.39        2969.75           2424      263116.00   1194501.00
 1243.42        2970.00           2427      245449.00   1111141.00
 1243.45        2970.25           2431      219568.00    989887.40
 1243.48        2970.50           2434      202210.00    909130.90
 1243.51        2970.75           2438      178546.00    799756.80
 1243.54        2971.00           2441      161337.00    720732.40
 1243.57        2971.25           2445      137130.00    610295.60
 1243.61        2971.50           2449      112384.00    498259.60
 1243.64        2971.75           2452       94252.00    416711.20
 1243.67        2972.00           2456       72054.00    317492.10
 1243.70        2972.25           2459       56005.00    246174.40
 1243.73        2972.50           2463       33823.00    148171.40
 1243.76        2972.75           2466       18442.00     80598.50
 1243.79        2973.00           2470        5460.00     23806.10
 1243.82        2973.25           2473        2701.00     11764.51
 1243.85        2973.50           2477        1924.00      8375.10
 1243.89        2973.75           2481        1815.00      7899.68
 1243.92        2974.00           2484        1731.00      7533.32
 1243.95        2974.25           2488        1700.00      7398.11
 1243.98        2974.50           2491        1641.00      7140.79
 1244.01        2974.75           2495        1597.00      6948.90
 1244.04        2975.00           2498        1594.00      6935.81
 1244.07        2975.25           2502        1580.00      6874.75
 1244.10        2975.50           2505        1573.00      6844.23
 1244.13        2975.75           2509        1511.00      6573.83
 1244.16        2976.00           2512        1502.00      6534.58
 1244.19        2976.25           2516        1510.00      6569.47
 1244.22        2976.50           2520        1448.00      6299.08
 1244.25        2976.75           2523        1464.00      6368.86
 1244.28        2977.00           2527        1435.00      6242.39
 1244.32        2977.25           2530        1457.00      6338.33
 1244.35        2977.50           2534        1396.00      6072.31
 1244.38        2977.75           2537        1400.00      6089.75
 1244.41        2978.00           2541        1391.00      6050.50
 1244.44        2978.25           2544        1315.00      5719.07
 1244.47        2978.50           2548        1336.00      5810.65
 1244.50        2978.75           2552        1369.00      5954.56
 1244.53        2979.00           2555        1354.00      5889.15
 1244.56        2979.25           2559        1303.00      5666.74
 1244.59        2979.50           2562        1325.00      5762.68
 1244.62        2979.75           2566        1296.00      5636.22
 1244.65        2980.00           2569        1289.00      5605.69
 1244.68        2980.25           2573        1314.00      5714.71
 1244.71        2980.50           2577        1313.00      5710.35
 1244.74        2980.75           2580        1293.00      5623.13
 1244.77        2981.00           2584        1281.00      5570.80
 1244.80        2981.25           2587        1255.00      5457.42
 1244.83        2981.50           2591        1225.00      5326.60
 1244.87        2981.75           2594        1265.00      5501.03
 1244.90        2982.00           2598        1268.00      5514.11
 1244.93        2982.25           2601        1236.00      5374.57
 1244.96        2982.50           2605        1209.00      5256.82
 1244.99        2982.75           2609        1202.00      5226.30
 1245.02        2983.00           2612        1240.00      5392.01
 1245.05        2983.25           2616        1180.00      5130.36
 1245.08        2983.50           2619        1213.00      5274.27
 1245.11        2983.75           2623        1194.00      5191.41
 1245.14        2984.00           2626        1192.00      5182.69
HS scan finished at 20:45:22
end
