************************************************************
  HS Scan of (1) Internal mercury lamp
************************************************************
Integration time is 0.2294 seconds per sample
dh260518Reading 51.44 .94 3.47pr1000
************************************************************
Dead Time -------------------------  3.4E-08 
Number of Cycles Used -------------  4 
Starting Wavelength (Angstroms) ---  2950 
Final Wavelength (Angstoms) -------  2984 
Wavelength Increment (Angstroms) --  .25 
Filter Wheel #1 Position ---------- (1) Ground quartz diffuser (ND=2.32)
Filter Wheel #2 Position ---------- (1) Neutral Density 0.494



************************************************************
HS scan start time = 01:04:53
Dark Count =  2 


Time (GMT)  Wavelength (Ang)  Step Number  Raw Counts  Counts/Second

   65.78        2950.00           2144          82.00       348.74
   65.98        2950.25           2147          84.00       357.46
   66.01        2950.50           2151          84.00       357.46
   66.04        2950.75           2155          75.00       318.22
   66.07        2951.00           2158          85.00       361.82
   66.10        2951.25           2162          82.00       348.74
   66.13        2951.50           2165          78.00       331.30
   66.16        2951.75           2169          81.00       344.38
   66.19        2952.00           2172          82.00       348.74
   66.22        2952.25           2176          84.00       357.46
   66.25        2952.50           2179          90.00       383.61
   66.28        2952.75           2183          85.00       361.82
   66.31        2953.00           2186          80.00       340.02
   66.34        2953.25           2190          86.00       366.18
   66.37        2953.50           2193          79.00       335.66
   66.40        2953.75           2197          83.00       353.10
   66.43        2954.00           2200          92.00       392.33
   66.47        2954.25           2204          88.00       374.90
   66.50        2954.50           2208          91.00       387.97
   66.53        2954.75           2211          81.00       344.38
   66.56        2955.00           2215          91.00       387.97
   66.59        2955.25           2218          84.00       357.46
   66.62        2955.50           2222          96.00       409.77
   66.65        2955.75           2225          86.00       366.18
   66.68        2956.00           2229          85.00       361.82
   66.71        2956.25           2232          81.00       344.38
   66.74        2956.50           2236          95.00       405.41
   66.77        2956.75           2239          92.00       392.33
   66.80        2957.00           2243          91.00       387.97
   66.83        2957.25           2246          92.00       392.33
   66.86        2957.50           2250          97.00       414.13
   66.89        2957.75           2254          88.00       374.90
   66.92        2958.00           2257         102.00       435.93
   66.95        2958.25           2261         102.00       435.93
   66.98        2958.50           2264          99.00       422.85
   67.02        2958.75           2268         125.00       536.19
   67.05        2959.00           2271          98.00       418.49
   67.08        2959.25           2275         108.00       462.08
   67.11        2959.50           2278         125.00       536.19
   67.14        2959.75           2282         115.00       492.60
   67.17        2960.00           2285         132.00       566.71
   67.20        2960.25           2289         121.00       518.75
   67.23        2960.50           2293         118.00       505.68
   67.26        2960.75           2296         144.00       619.02
   67.29        2961.00           2300         171.00       736.72
   67.32        2961.25           2303         396.00      1717.62
   67.35        2961.50           2307        1314.00      5720.38
   67.38        2961.75           2310        2373.00     10339.29
   67.41        2962.00           2314        4027.00     17556.25
   67.44        2962.25           2317        5417.00     23624.03
   67.47        2962.50           2321        7170.00     31279.98
   67.50        2962.75           2324        8323.00     36317.71
   67.54        2963.00           2328       10042.00     43831.62
   67.57        2963.25           2331       11660.00     50907.57
   67.60        2963.50           2335       13683.00     59759.48
   67.63        2963.75           2339       15666.00     68441.56
   67.66        2964.00           2342       17107.00     74753.85
   67.69        2964.25           2346       18911.00     82660.06
   67.72        2964.50           2349       20375.00     89079.32
   67.75        2964.75           2353       22198.00     97076.64
   67.78        2965.00           2356       23815.00    104173.90
   67.81        2965.25           2360       25591.00    111973.00
   67.84        2965.50           2363       26884.00    117653.70
   67.87        2965.75           2367       28576.00    125090.60
   67.90        2966.00           2370       29925.00    131022.70
   67.93        2966.25           2374       31216.00    136701.90
   67.96        2966.50           2378       31763.00    139108.90
   67.99        2966.75           2381       31874.00    139597.40
   68.02        2967.00           2385       32087.00    140534.80
   68.06        2967.25           2388       31979.00    140059.50
   68.09        2967.50           2392       31818.00    139350.90
   68.12        2967.75           2395       31557.00    138202.40
   68.15        2968.00           2399       30422.00    133208.80
   68.18        2968.25           2402       29444.00    128907.30
   68.21        2968.50           2406       27931.00    122255.20
   68.24        2968.75           2409       26599.00    116401.40
   68.27        2969.00           2413       24633.00    107765.50
   68.30        2969.25           2417       22882.00    100078.40
   68.33        2969.50           2420       21525.00     94123.75
   68.36        2969.75           2424       19798.00     86548.99
   68.39        2970.00           2427       18539.00     81029.38
   68.42        2970.25           2431       16587.00     72475.66
   68.45        2970.50           2434       15118.00     66041.77
   68.48        2970.75           2438       12940.00     56507.77
   68.51        2971.00           2441       11386.00     49709.06
   68.54        2971.25           2445        9678.00     42240.23
   68.58        2971.50           2449        7876.00     34364.45
   68.61        2971.75           2452        6663.00     29065.33
   68.64        2972.00           2456        4917.00     21441.08
   68.67        2972.25           2459        3599.00     15688.40
   68.70        2972.50           2463        1957.00      8524.70
   68.73        2972.75           2466         897.00      3902.00
   68.76        2973.00           2470         266.00      1150.87
   68.79        2973.25           2473         163.00       701.85
   68.82        2973.50           2477         150.00       645.18
   68.85        2973.75           2481         136.00       584.14
   68.88        2974.00           2484         175.00       754.16
   68.91        2974.25           2488         124.00       531.83
   68.94        2974.50           2491         132.00       566.71
   68.97        2974.75           2495         120.00       514.39
   69.00        2975.00           2498         130.00       557.99
   69.03        2975.25           2502         126.00       540.55
   69.06        2975.50           2505         125.00       536.19
   69.10        2975.75           2509         129.00       553.63
   69.13        2976.00           2512         119.00       510.03
   69.16        2976.25           2516         124.00       531.83
   69.19        2976.50           2520         104.00       444.64
   69.22        2976.75           2523         100.00       427.21
   69.25        2977.00           2527         102.00       435.93
   69.28        2977.25           2530          98.00       418.49
   69.31        2977.50           2534          98.00       418.49
   69.34        2977.75           2537         115.00       492.60
   69.37        2978.00           2541          98.00       418.49
   69.40        2978.25           2544          97.00       414.13
   69.43        2978.50           2548         117.00       501.32
   69.46        2978.75           2552          99.00       422.85
   69.49        2979.00           2555          99.00       422.85
   69.52        2979.25           2559         113.00       483.88
   69.55        2979.50           2562          94.00       401.05
   69.58        2979.75           2566          95.00       405.41
   69.62        2980.00           2569          86.00       366.18
   69.65        2980.25           2573          80.00       340.02
   69.68        2980.50           2577          91.00       387.97
   69.71        2980.75           2580          87.00       370.54
   69.74        2981.00           2584          93.00       396.69
   69.77        2981.25           2587          90.00       383.61
   69.80        2981.50           2591          81.00       344.38
   69.83        2981.75           2594          94.00       401.05
   69.86        2982.00           2598          84.00       357.46
   69.89        2982.25           2601          83.00       353.10
   69.92        2982.50           2605          90.00       383.61
   69.95        2982.75           2609          83.00       353.10
   69.98        2983.00           2612          86.00       366.18
   70.01        2983.25           2616         108.00       462.08
   70.04        2983.50           2619          84.00       357.46
   70.07        2983.75           2623          78.00       331.30
   70.10        2984.00           2626          77.00       326.94
HS scan finished at 01:10:20
end
************************************************************
  HS Scan of (1) Internal mercury lamp
************************************************************
Integration time is 0.2294 seconds per sample
dh260518Reading 51.44 .94 3.86pr1000
************************************************************
Dead Time -------------------------  3.4E-08 
Number of Cycles Used -------------  4 
Starting Wavelength (Angstroms) ---  2950 
Final Wavelength (Angstoms) -------  2984 
Wavelength Increment (Angstroms) --  .25 
Filter Wheel #1 Position ---------- (1) Ground quartz diffuser (ND=2.32)
Filter Wheel #2 Position ---------- (1) Neutral Density 0.494



************************************************************
HS scan start time = 21:07:25
Dark Count =  6.5 


Time (GMT)  Wavelength (Ang)  Step Number  Raw Counts  Counts/Second

 1268.31        2950.00           2144          53.00       202.70
 1268.51        2950.25           2147          53.00       202.70
 1268.54        2950.50           2151          51.00       193.99
 1268.57        2950.75           2155          54.00       207.06
 1268.60        2951.00           2158          52.00       198.34
 1268.63        2951.25           2162          54.00       207.06
 1268.66        2951.50           2165          57.00       220.14
 1268.69        2951.75           2169          53.00       202.70
 1268.72        2952.00           2172          58.00       224.50
 1268.75        2952.25           2176          52.00       198.34
 1268.78        2952.50           2179          55.00       211.42
 1268.81        2952.75           2183          46.00       172.19
 1268.84        2953.00           2186          61.00       237.58
 1268.87        2953.25           2190          60.00       233.22
 1268.90        2953.50           2193          60.00       233.22
 1268.93        2953.75           2197          49.00       185.27
 1268.96        2954.00           2200          49.00       185.27
 1268.99        2954.25           2204          49.00       185.27
 1269.03        2954.50           2208          56.00       215.78
 1269.06        2954.75           2211          45.00       167.83
 1269.09        2955.00           2215          38.00       137.32
 1269.12        2955.25           2218          63.00       246.30
 1269.15        2955.50           2222          64.00       250.66
 1269.18        2955.75           2225          61.00       237.58
 1269.21        2956.00           2229          61.00       237.58
 1269.24        2956.25           2232          57.00       220.14
 1269.27        2956.50           2236          66.00       259.37
 1269.30        2956.75           2239          63.00       246.30
 1269.33        2957.00           2243          55.00       211.42
 1269.36        2957.25           2246          58.00       224.50
 1269.39        2957.50           2250          63.00       246.30
 1269.42        2957.75           2254          66.00       259.37
 1269.45        2958.00           2257          65.00       255.02
 1269.48        2958.25           2261          60.00       233.22
 1269.51        2958.50           2264          55.00       211.42
 1269.55        2958.75           2268          69.00       272.45
 1269.58        2959.00           2271          70.00       276.81
 1269.61        2959.25           2275          77.00       307.33
 1269.64        2959.50           2278          63.00       246.30
 1269.67        2959.75           2282          72.00       285.53
 1269.70        2960.00           2285          52.00       198.34
 1269.73        2960.25           2289          70.00       276.81
 1269.76        2960.50           2293          72.00       285.53
 1269.79        2960.75           2296          74.00       294.25
 1269.82        2961.00           2300          85.00       342.20
 1269.85        2961.25           2303         165.00       690.95
 1269.88        2961.50           2307         603.00      2600.49
 1269.91        2961.75           2310        1234.00      5351.89
 1269.94        2962.00           2314        2173.00      9447.24
 1269.97        2962.25           2317        2891.00     12579.49
 1270.00        2962.50           2321        3856.00     16790.32
 1270.03        2962.75           2324        4816.00     20980.52
 1270.07        2963.00           2328        5899.00     25709.04
 1270.10        2963.25           2331        6639.00     28940.85
 1270.13        2963.50           2335        7846.00     34213.71
 1270.16        2963.75           2339        8911.00     38867.81
 1270.19        2964.00           2342        9607.00     41910.16
 1270.22        2964.25           2346       10914.00     47625.01
 1270.25        2964.50           2349       11656.00     50870.39
 1270.28        2964.75           2353       13117.00     57262.65
 1270.31        2965.00           2356       13796.00     60234.39
 1270.34        2965.25           2360       14763.00     64467.66
 1270.37        2965.50           2363       15588.00     68080.25
 1270.41        2965.75           2367       16350.00     71417.76
 1270.44        2966.00           2370       17091.00     74664.02
 1270.48        2966.25           2374       18152.00     79313.43
 1270.51        2966.50           2378       18646.00     81478.68
 1270.54        2966.75           2381       18763.00     81991.55
 1270.57        2967.00           2385       18723.00     81816.21
 1270.60        2967.25           2388       18892.00     82557.04
 1270.63        2967.50           2392       18979.00     82938.43
 1270.66        2967.75           2395       18868.00     82451.83
 1270.69        2968.00           2399       18387.00     80343.41
 1270.72        2968.25           2402       17601.00     76898.70
 1270.75        2968.50           2406       16566.00     72363.97
 1270.78        2968.75           2409       15760.00     68833.53
 1270.81        2969.00           2413       14706.00     64218.10
 1270.84        2969.25           2417       13749.00     60028.67
 1270.87        2969.50           2420       13075.00     57078.84
 1270.90        2969.75           2424       11854.00     51736.53
 1270.93        2970.00           2427       10893.00     47533.17
 1270.97        2970.25           2431        9784.00     42683.96
 1271.00        2970.50           2434        8975.00     39147.54
 1271.03        2970.75           2438        7874.00     34336.06
 1271.06        2971.00           2441        7009.00     30557.01
 1271.09        2971.25           2445        5943.00     25901.18
 1271.12        2971.50           2449        5005.00     21805.61
 1271.15        2971.75           2452        4247.00     18496.81
 1271.18        2972.00           2456        3132.00     13630.99
 1271.21        2972.25           2459        2270.00      9870.36
 1271.24        2972.50           2463        1291.00      5600.46
 1271.27        2972.75           2466         730.00      3154.22
 1271.30        2973.00           2470         286.00      1218.45
 1271.33        2973.25           2473         164.00       686.59
 1271.36        2973.50           2477          87.00       350.92
 1271.39        2973.75           2481          81.00       324.76
 1271.42        2974.00           2484          82.00       329.12
 1271.45        2974.25           2488          71.00       281.17
 1271.49        2974.50           2491          74.00       294.25
 1271.52        2974.75           2495          81.00       324.76
 1271.55        2975.00           2498          77.00       307.33
 1271.58        2975.25           2502          73.00       289.89
 1271.61        2975.50           2505          67.00       263.73
 1271.64        2975.75           2509          71.00       281.17
 1271.67        2976.00           2512          73.00       289.89
 1271.70        2976.25           2516          62.00       241.94
 1271.73        2976.50           2520          64.00       250.66
 1271.76        2976.75           2523          61.00       237.58
 1271.79        2977.00           2527          65.00       255.02
 1271.82        2977.25           2530          70.00       276.81
 1271.85        2977.50           2534          60.00       233.22
 1271.88        2977.75           2537          67.00       263.73
 1271.91        2978.00           2541          60.00       233.22
 1271.94        2978.25           2544          61.00       237.58
 1271.97        2978.50           2548          60.00       233.22
 1272.01        2978.75           2552          57.00       220.14
 1272.04        2979.00           2555          53.00       202.70
 1272.07        2979.25           2559          46.00       172.19
 1272.10        2979.50           2562          52.00       198.34
 1272.13        2979.75           2566          57.00       220.14
 1272.16        2980.00           2569          57.00       220.14
 1272.19        2980.25           2573          56.00       215.78
 1272.22        2980.50           2577          55.00       211.42
 1272.25        2980.75           2580          58.00       224.50
 1272.28        2981.00           2584          56.00       215.78
 1272.31        2981.25           2587          53.00       202.70
 1272.34        2981.50           2591          58.00       224.50
 1272.37        2981.75           2594          57.00       220.14
 1272.40        2982.00           2598          52.00       198.34
 1272.43        2982.25           2601          55.00       211.42
 1272.46        2982.50           2605          50.00       189.63
 1272.49        2982.75           2609          55.00       211.42
 1272.53        2983.00           2612          54.00       207.06
 1272.56        2983.25           2616          56.00       215.78
 1272.59        2983.50           2619          55.00       211.42
 1272.62        2983.75           2623          51.00       193.99
 1272.65        2984.00           2626          48.00       180.91
HS scan finished at 21:12:52
end
