************************************************************
  HS Scan of (1) Internal mercury lamp
************************************************************
Integration time is 0.2294 seconds per sample
dh270518Reading 51.44 .94 3.54pr1000
************************************************************
Dead Time -------------------------  3.4E-08 
Number of Cycles Used -------------  4 
Starting Wavelength (Angstroms) ---  2950 
Final Wavelength (Angstoms) -------  2984 
Wavelength Increment (Angstroms) --  .25 
Filter Wheel #1 Position ---------- (1) Ground quartz diffuser (ND=2.32)
Filter Wheel #2 Position ---------- (1) Neutral Density 0.494



************************************************************
HS scan start time = 01:12:19
Dark Count =  2.8 


Time (GMT)  Wavelength (Ang)  Step Number  Raw Counts  Counts/Second

   73.21        2950.00           2144          72.00       301.66
   73.41        2950.25           2147          74.00       310.38
   73.44        2950.50           2151          82.00       345.25
   73.47        2950.75           2155          75.00       314.74
   73.50        2951.00           2158          75.00       314.74
   73.53        2951.25           2162          76.00       319.10
   73.56        2951.50           2165          82.00       345.25
   73.59        2951.75           2169          80.00       336.53
   73.62        2952.00           2172          76.00       319.10
   73.65        2952.25           2176          82.00       345.25
   73.68        2952.50           2179          81.00       340.89
   73.71        2952.75           2183          78.00       327.82
   73.74        2953.00           2186          69.00       288.58
   73.77        2953.25           2190          82.00       345.25
   73.81        2953.50           2193          78.00       327.82
   73.84        2953.75           2197          76.00       319.10
   73.87        2954.00           2200          70.00       292.94
   73.90        2954.25           2204          82.00       345.25
   73.93        2954.50           2208          81.00       340.89
   73.96        2954.75           2211          75.00       314.74
   73.99        2955.00           2215          73.00       306.02
   74.02        2955.25           2218          80.00       336.53
   74.05        2955.50           2222          80.00       336.53
   74.08        2955.75           2225          84.00       353.97
   74.11        2956.00           2229          80.00       336.53
   74.14        2956.25           2232          79.00       332.17
   74.17        2956.50           2236          83.00       349.61
   74.20        2956.75           2239          92.00       388.85
   74.23        2957.00           2243          85.00       358.33
   74.26        2957.25           2246          89.00       375.77
   74.30        2957.50           2250          89.00       375.77
   74.33        2957.75           2254         129.00       550.14
   74.36        2958.00           2257          86.00       362.69
   74.39        2958.25           2261         106.00       449.88
   74.42        2958.50           2264          98.00       415.00
   74.45        2958.75           2268         101.00       428.08
   74.48        2959.00           2271          96.00       406.28
   74.51        2959.25           2275         118.00       502.19
   74.54        2959.50           2278         102.00       432.44
   74.57        2959.75           2282         100.00       423.72
   74.60        2960.00           2285         101.00       428.08
   74.63        2960.25           2289         103.00       436.80
   74.66        2960.50           2293         108.00       458.59
   74.69        2960.75           2296         113.00       480.39
   74.72        2961.00           2300         164.00       702.72
   74.75        2961.25           2303         348.00      1504.87
   74.78        2961.50           2307        1249.00      5433.44
   74.82        2961.75           2310        2284.00      9947.57
   74.85        2962.00           2314        3938.00     17164.33
   74.88        2962.25           2317        5164.00     22515.92
   74.91        2962.50           2321        6661.00     29053.10
   74.94        2962.75           2324        7732.00     33731.78
   74.97        2963.00           2328        9391.00     40982.09
   75.00        2963.25           2331       10820.00     47230.10
   75.03        2963.50           2335       12667.00     55309.67
   75.06        2963.75           2339       14410.00     62938.38
   75.09        2964.00           2342       15669.00     68451.20
   75.12        2964.25           2346       17329.00     75723.04
   75.15        2964.50           2349       18518.00     80933.82
   75.18        2964.75           2353       20298.00     88738.11
   75.21        2965.00           2356       21826.00     95440.85
   75.24        2965.25           2360       23314.00    101971.10
   75.27        2965.50           2363       24669.00    107920.10
   75.30        2965.75           2367       26165.00    114491.00
   75.34        2966.00           2370       27178.00    118942.10
   75.37        2966.25           2374       28146.00    123196.70
   75.40        2966.50           2378       28400.00    124313.30
   75.43        2966.75           2381       28543.00    124942.00
   75.46        2967.00           2385       28656.00    125438.80
   75.49        2967.25           2388       28598.00    125183.80
   75.52        2967.50           2392       28435.00    124467.20
   75.55        2967.75           2395       28198.00    123425.30
   75.58        2968.00           2399       27236.00    119197.00
   75.61        2968.25           2402       26108.00    114240.60
   75.64        2968.50           2406       24722.00    108152.90
   75.67        2968.75           2409       23282.00    101830.60
   75.70        2969.00           2413       21726.00     95002.10
   75.73        2969.25           2417       20187.00     88251.33
   75.76        2969.50           2420       19044.00     83239.61
   75.79        2969.75           2424       17680.00     77261.10
   75.82        2970.00           2427       16405.00     71674.90
   75.86        2970.25           2431       14610.00     63813.99
   75.89        2970.50           2434       13264.00     57922.15
   75.92        2970.75           2438       11474.00     50090.48
   75.95        2971.00           2441       10173.00     44400.90
   75.98        2971.25           2445        8625.00     37634.01
   76.01        2971.50           2449        7026.00     30647.44
   76.04        2971.75           2452        5822.00     25388.95
   76.07        2972.00           2456        4348.00     18953.80
   76.10        2972.25           2459        3104.00     13524.96
   76.13        2972.50           2463        1645.00      7160.42
   76.16        2972.75           2466         739.00      3209.59
   76.19        2973.00           2470         221.00       951.21
   76.22        2973.25           2473         146.00       624.25
   76.25        2973.50           2477         128.00       545.78
   76.28        2973.75           2481         139.00       593.73
   76.31        2974.00           2484         101.00       428.08
   76.34        2974.25           2488         125.00       532.70
   76.37        2974.50           2491         125.00       532.70
   76.41        2974.75           2495         113.00       480.39
   76.44        2975.00           2498         103.00       436.80
   76.47        2975.25           2502         100.00       423.72
   76.50        2975.50           2505          99.00       419.36
   76.53        2975.75           2509         117.00       497.83
   76.56        2976.00           2512         125.00       532.70
   76.59        2976.25           2516          97.00       410.64
   76.62        2976.50           2520         141.00       602.45
   76.65        2976.75           2523          90.00       380.13
   76.68        2977.00           2527          88.00       371.41
   76.71        2977.25           2530          88.00       371.41
   76.74        2977.50           2534          93.00       393.20
   76.77        2977.75           2537          90.00       380.13
   76.80        2978.00           2541          82.00       345.25
   76.83        2978.25           2544          91.00       384.49
   76.86        2978.50           2548          94.00       397.56
   76.89        2978.75           2552          87.00       367.05
   76.93        2979.00           2555          82.00       345.25
   76.96        2979.25           2559          89.00       375.77
   76.99        2979.50           2562          92.00       388.85
   77.02        2979.75           2566          75.00       314.74
   77.05        2980.00           2569          86.00       362.69
   77.08        2980.25           2573          84.00       353.97
   77.11        2980.50           2577          77.00       323.46
   77.14        2980.75           2580          76.00       319.10
   77.17        2981.00           2584          81.00       340.89
   77.20        2981.25           2587          85.00       358.33
   77.23        2981.50           2591          81.00       340.89
   77.26        2981.75           2594          68.00       284.22
   77.29        2982.00           2598          74.00       310.38
   77.32        2982.25           2601          80.00       336.53
   77.35        2982.50           2605          80.00       336.53
   77.38        2982.75           2609          79.00       332.17
   77.41        2983.00           2612          77.00       323.46
   77.45        2983.25           2616          82.00       345.25
   77.48        2983.50           2619          74.00       310.38
   77.51        2983.75           2623          73.00       306.02
   77.54        2984.00           2626          75.00       314.74
HS scan finished at 01:17:46
end
************************************************************
  HS Scan of (1) Internal mercury lamp
************************************************************
Integration time is 0.2294 seconds per sample
dh270518Reading 51.44 .94 3.96pr1000
************************************************************
Dead Time -------------------------  3.4E-08 
Number of Cycles Used -------------  4 
Starting Wavelength (Angstroms) ---  2950 
Final Wavelength (Angstoms) -------  2984 
Wavelength Increment (Angstroms) --  .25 
Filter Wheel #1 Position ---------- (1) Ground quartz diffuser (ND=2.32)
Filter Wheel #2 Position ---------- (1) Neutral Density 0.494



************************************************************
HS scan start time = 21:07:23
Dark Count =  9.3 


Time (GMT)  Wavelength (Ang)  Step Number  Raw Counts  Counts/Second

 1268.28        2950.00           2144          37.00       120.75
 1268.47        2950.25           2147          41.00       138.19
 1268.50        2950.50           2151          40.00       133.83
 1268.53        2950.75           2155          37.00       120.75
 1268.56        2951.00           2158          35.00       112.03
 1268.59        2951.25           2162          38.00       125.11
 1268.62        2951.50           2165          35.00       112.03
 1268.65        2951.75           2169          38.00       125.11
 1268.68        2952.00           2172          42.00       142.55
 1268.71        2952.25           2176          36.00       116.39
 1268.74        2952.50           2179          40.00       133.83
 1268.78        2952.75           2183          40.00       133.83
 1268.81        2953.00           2186          37.00       120.75
 1268.84        2953.25           2190          40.00       133.83
 1268.87        2953.50           2193          41.00       138.19
 1268.90        2953.75           2197          42.00       142.55
 1268.93        2954.00           2200          42.00       142.55
 1268.96        2954.25           2204          39.00       129.47
 1268.99        2954.50           2208          45.00       155.62
 1269.02        2954.75           2211          42.00       142.55
 1269.05        2955.00           2215          38.00       125.11
 1269.08        2955.25           2218          42.00       142.55
 1269.11        2955.50           2222          38.00       125.11
 1269.14        2955.75           2225          42.00       142.55
 1269.17        2956.00           2229          44.00       151.26
 1269.20        2956.25           2232          39.00       129.47
 1269.23        2956.50           2236          45.00       155.62
 1269.26        2956.75           2239          42.00       142.55
 1269.30        2957.00           2243          43.00       146.91
 1269.33        2957.25           2246          42.00       142.55
 1269.36        2957.50           2250          41.00       138.19
 1269.39        2957.75           2254          42.00       142.55
 1269.42        2958.00           2257          43.00       146.91
 1269.45        2958.25           2261          50.00       177.42
 1269.48        2958.50           2264          40.00       133.83
 1269.51        2958.75           2268          38.00       125.11
 1269.54        2959.00           2271          39.00       129.47
 1269.57        2959.25           2275          52.00       186.14
 1269.60        2959.50           2278          44.00       151.26
 1269.63        2959.75           2282          53.00       190.50
 1269.66        2960.00           2285          55.00       199.22
 1269.69        2960.25           2289          51.00       181.78
 1269.72        2960.50           2293          59.00       216.65
 1269.75        2960.75           2296          54.00       194.86
 1269.78        2961.00           2300          62.00       229.73
 1269.82        2961.25           2303         145.00       591.56
 1269.85        2961.50           2307         518.00      2217.69
 1269.88        2961.75           2310         901.00      3887.61
 1269.91        2962.00           2314        1395.00      6041.78
 1269.94        2962.25           2317        1876.00      8139.57
 1269.97        2962.50           2321        2574.00     11184.29
 1270.00        2962.75           2324        3015.00     13108.28
 1270.03        2963.00           2328        3633.00     15804.92
 1270.06        2963.25           2331        4124.00     17947.74
 1270.09        2963.50           2335        4685.00     20396.44
 1270.12        2963.75           2339        8040.00     35049.16
 1270.15        2964.00           2342        6500.00     28321.51
 1270.18        2964.25           2346        6946.00     30269.59
 1270.21        2964.50           2349        7278.00     31719.90
 1270.24        2964.75           2353        7802.00     34009.22
 1270.27        2965.00           2356        8318.00     36263.95
 1270.30        2965.25           2360        8851.00     38593.33
 1270.34        2965.50           2363        9377.00     40892.47
 1270.37        2965.75           2367        9899.00     43174.49
 1270.40        2966.00           2370       10666.00     46528.22
 1270.43        2966.25           2374       11284.00     49230.99
 1270.46        2966.50           2378       11531.00     50311.36
 1270.49        2966.75           2381       11609.00     50652.55
 1270.53        2967.00           2385       11515.00     50241.38
 1270.56        2967.25           2388       11575.00     50503.83
 1270.59        2967.50           2392       11620.00     50700.67
 1270.62        2967.75           2395       11449.00     49952.69
 1270.65        2968.00           2399       10811.00     47162.32
 1270.68        2968.25           2402       10394.00     45338.80
 1270.71        2968.50           2406       14162.00     61824.24
 1270.74        2968.75           2409       10018.00     43694.78
 1270.77        2969.00           2413        9252.00     40346.07
 1270.80        2969.25           2417        8585.00     37430.79
 1270.83        2969.50           2420        7996.00     34856.90
 1270.86        2969.75           2424        7088.00     30889.88
 1270.89        2970.00           2427        6623.00     28858.73
 1270.92        2970.25           2431        5818.00     25343.10
 1270.95        2970.50           2434        5345.00     23277.79
 1270.98        2970.75           2438        4661.00     20291.68
 1271.01        2971.00           2441        4162.00     18113.60
 1271.05        2971.25           2445        3608.00     15695.82
 1271.08        2971.50           2449        2875.00     12497.46
 1271.11        2971.75           2452        2275.00      9879.95
 1271.14        2972.00           2456        1616.00      7005.59
 1271.17        2972.25           2459        1743.00      7559.48
 1271.20        2972.50           2463         806.00      3473.38
 1271.23        2972.75           2466         349.00      1480.89
 1271.26        2973.00           2470         111.00       443.34
 1271.29        2973.25           2473          69.00       260.25
 1271.32        2973.50           2477          62.00       229.73
 1271.35        2973.75           2481          57.00       207.94
 1271.38        2974.00           2484          59.00       216.65
 1271.41        2974.25           2488          65.00       242.81
 1271.44        2974.50           2491          67.00       251.53
 1271.47        2974.75           2495          54.00       194.86
 1271.50        2975.00           2498          47.00       164.34
 1271.53        2975.25           2502          54.00       194.86
 1271.56        2975.50           2505          51.00       181.78
 1271.60        2975.75           2509          55.00       199.22
 1271.63        2976.00           2512          48.00       168.70
 1271.66        2976.25           2516          45.00       155.62
 1271.69        2976.50           2520          58.00       212.29
 1271.72        2976.75           2523          51.00       181.78
 1271.75        2977.00           2527          45.00       155.62
 1271.78        2977.25           2530          42.00       142.55
 1271.81        2977.50           2534          47.00       164.34
 1271.84        2977.75           2537          42.00       142.55
 1271.87        2978.00           2541          64.00       238.45
 1271.90        2978.25           2544          52.00       186.14
 1271.93        2978.50           2548          39.00       129.47
 1271.96        2978.75           2552          46.00       159.98
 1271.99        2979.00           2555          46.00       159.98
 1272.02        2979.25           2559          42.00       142.55
 1272.05        2979.50           2562          55.00       199.22
 1272.08        2979.75           2566          50.00       177.42
 1272.12        2980.00           2569          41.00       138.19
 1272.15        2980.25           2573          41.00       138.19
 1272.18        2980.50           2577          47.00       164.34
 1272.21        2980.75           2580          38.00       125.11
 1272.24        2981.00           2584          38.00       125.11
 1272.27        2981.25           2587          46.00       159.98
 1272.30        2981.50           2591          56.00       203.58
 1272.33        2981.75           2594          43.00       146.91
 1272.36        2982.00           2598          43.00       146.91
 1272.39        2982.25           2601          46.00       159.98
 1272.42        2982.50           2605          41.00       138.19
 1272.45        2982.75           2609          41.00       138.19
 1272.48        2983.00           2612          43.00       146.91
 1272.51        2983.25           2616          45.00       155.62
 1272.54        2983.50           2619          40.00       133.83
 1272.57        2983.75           2623          40.00       133.83
 1272.61        2984.00           2626          38.00       125.11
HS scan finished at 21:12:50
end
