************************************************************
  HS Scan of (1) Internal mercury lamp
************************************************************
Integration time is 0.2294 seconds per sample
dh240518Reading 51.44 .94 3.39pr1000
************************************************************
Dead Time -------------------------  3.4E-08 
Number of Cycles Used -------------  4 
Starting Wavelength (Angstroms) ---  2950 
Final Wavelength (Angstoms) -------  2984 
Wavelength Increment (Angstroms) --  .25 
Filter Wheel #1 Position ---------- (1) Ground quartz diffuser (ND=2.32)
Filter Wheel #2 Position ---------- (1) Neutral Density 0.494



************************************************************
HS scan start time = 01:29:24
Dark Count =  2.2 


Time (GMT)  Wavelength (Ang)  Step Number  Raw Counts  Counts/Second

   90.30        2950.00           2144          80.00       339.15
   90.49        2950.25           2147          78.00       330.43
   90.52        2950.50           2151          83.00       352.23
   90.55        2950.75           2155          78.00       330.43
   90.58        2951.00           2158          79.00       334.79
   90.61        2951.25           2162          82.00       347.87
   90.64        2951.50           2165          80.00       339.15
   90.67        2951.75           2169          82.00       347.87
   90.70        2952.00           2172          84.00       356.59
   90.74        2952.25           2176          81.00       343.51
   90.77        2952.50           2179          82.00       347.87
   90.80        2952.75           2183          86.00       365.31
   90.83        2953.00           2186          82.00       347.87
   90.86        2953.25           2190          78.00       330.43
   90.89        2953.50           2193          84.00       356.59
   90.92        2953.75           2197          82.00       347.87
   90.95        2954.00           2200          86.00       365.31
   90.98        2954.25           2204          95.00       404.54
   91.01        2954.50           2208          73.00       308.63
   91.04        2954.75           2211          92.00       391.46
   91.07        2955.00           2215          76.00       321.71
   91.10        2955.25           2218          87.00       369.66
   91.13        2955.50           2222          81.00       343.51
   91.16        2955.75           2225          86.00       365.31
   91.19        2956.00           2229          85.00       360.95
   91.22        2956.25           2232          94.00       400.18
   91.25        2956.50           2236          93.00       395.82
   91.29        2956.75           2239          91.00       387.10
   91.32        2957.00           2243          86.00       365.31
   91.35        2957.25           2246          93.00       395.82
   91.38        2957.50           2250          88.00       374.02
   91.41        2957.75           2254          96.00       408.90
   91.44        2958.00           2257         124.00       530.96
   91.47        2958.25           2261          88.00       374.02
   91.50        2958.50           2264         109.00       465.57
   91.53        2958.75           2268          99.00       421.98
   91.56        2959.00           2271         117.00       500.44
   91.59        2959.25           2275         100.00       426.34
   91.62        2959.50           2278         100.00       426.34
   91.65        2959.75           2282          99.00       421.98
   91.68        2960.00           2285         106.00       452.49
   91.71        2960.25           2289         115.00       491.73
   91.74        2960.50           2293         134.00       574.55
   91.77        2960.75           2296         138.00       591.99
   91.81        2961.00           2300         174.00       748.93
   91.84        2961.25           2303         395.00      1712.39
   91.87        2961.50           2307        1200.00      5222.38
   91.90        2961.75           2310        2225.00      9692.82
   91.93        2962.00           2314        3812.00     16617.06
   91.96        2962.25           2317        5194.00     22649.52
   91.99        2962.50           2321        6892.00     30064.72
   92.02        2962.75           2324        8082.00     35263.70
   92.05        2963.00           2328        9644.00     42090.71
   92.08        2963.25           2331       10911.00     47630.69
   92.11        2963.50           2335       12881.00     56248.71
   92.14        2963.75           2339       14956.00     65331.53
   92.17        2964.00           2342       16445.00     71852.75
   92.20        2964.25           2346       18139.00     79275.30
   92.23        2964.50           2349       19463.00     85079.24
   92.26        2964.75           2353       21128.00     92381.26
   92.29        2965.00           2356       22535.00     98554.62
   92.33        2965.25           2360       24200.00    105863.40
   92.36        2965.50           2363       25706.00    112477.30
   92.39        2965.75           2367       27367.00    119775.40
   92.42        2966.00           2370       28387.00    124258.80
   92.45        2966.25           2374       29727.00    130151.00
   92.48        2966.50           2378       30250.00    132451.30
   92.51        2966.75           2381       30446.00    133313.50
   92.54        2967.00           2385       30521.00    133643.40
   92.57        2967.25           2388       30474.00    133436.60
   92.60        2967.50           2392       30209.00    132270.90
   92.63        2967.75           2395       30016.00    131422.00
   92.66        2968.00           2399       29106.00    127420.10
   92.69        2968.25           2402       28146.00    123199.40
   92.72        2968.50           2406       26454.00    115763.40
   92.75        2968.75           2409       25187.00    110197.60
   92.78        2969.00           2413       23428.00    102474.10
   92.81        2969.25           2417       21713.00     94947.69
   92.85        2969.50           2420       20389.00     89139.85
   92.88        2969.75           2424       18564.00     81138.10
   92.91        2970.00           2427       17357.00     75848.37
   92.94        2970.25           2431       15544.00     67906.38
   92.97        2970.50           2434       14280.00     62371.89
   93.00        2970.75           2438       12343.00     53894.66
   93.03        2971.00           2441       10929.00     47709.41
   93.06        2971.25           2445        9153.00     39944.36
   93.09        2971.50           2449        7421.00     32375.64
   93.12        2971.75           2452        6261.00     27308.69
   93.15        2972.00           2456        4710.00     20536.57
   93.19        2972.25           2459        3374.00     14705.69
   93.23        2972.50           2463        1768.00      7699.49
   93.26        2972.75           2466         780.00      3390.98
   93.29        2973.00           2470         232.00      1001.78
   93.32        2973.25           2473         141.00       605.07
   93.35        2973.50           2477         162.00       696.62
   93.38        2973.75           2481         134.00       574.55
   93.41        2974.00           2484         115.00       491.73
   93.44        2974.25           2488         110.00       469.93
   93.47        2974.50           2491         114.00       487.37
   93.50        2974.75           2495         113.00       483.01
   93.53        2975.00           2498         107.00       456.85
   93.56        2975.25           2502         115.00       491.73
   93.59        2975.50           2505         111.00       474.29
   93.63        2975.75           2509         115.00       491.73
   93.66        2976.00           2512         134.00       574.55
   93.69        2976.25           2516          95.00       404.54
   93.72        2976.50           2520         118.00       504.80
   93.75        2976.75           2523         117.00       500.44
   93.78        2977.00           2527         117.00       500.44
   93.81        2977.25           2530          95.00       404.54
   93.84        2977.50           2534          90.00       382.74
   93.87        2977.75           2537          90.00       382.74
   93.90        2978.00           2541          98.00       417.62
   93.93        2978.25           2544         101.00       430.70
   93.96        2978.50           2548         100.00       426.34
   93.99        2978.75           2552          91.00       387.10
   94.02        2979.00           2555          88.00       374.02
   94.05        2979.25           2559          86.00       365.31
   94.08        2979.50           2562          95.00       404.54
   94.11        2979.75           2566          89.00       378.38
   94.14        2980.00           2569          85.00       360.95
   94.18        2980.25           2573          88.00       374.02
   94.21        2980.50           2577          76.00       321.71
   94.24        2980.75           2580          89.00       378.38
   94.27        2981.00           2584          86.00       365.31
   94.30        2981.25           2587          78.00       330.43
   94.33        2981.50           2591          81.00       343.51
   94.36        2981.75           2594          81.00       343.51
   94.39        2982.00           2598          86.00       365.31
   94.42        2982.25           2601          81.00       343.51
   94.45        2982.50           2605          82.00       347.87
   94.48        2982.75           2609          71.00       299.92
   94.51        2983.00           2612          91.00       387.10
   94.54        2983.25           2616          76.00       321.71
   94.57        2983.50           2619          75.00       317.35
   94.60        2983.75           2623          71.00       299.92
   94.63        2984.00           2626          77.00       326.07
HS scan finished at 01:34:51
end
************************************************************
  HS Scan of (1) Internal mercury lamp
************************************************************
Integration time is 0.2294 seconds per sample
dh240518Reading 51.44 .94 3.43pr1000
************************************************************
Dead Time -------------------------  3.4E-08 
Number of Cycles Used -------------  4 
Starting Wavelength (Angstroms) ---  2950 
Final Wavelength (Angstoms) -------  2984 
Wavelength Increment (Angstroms) --  .25 
Filter Wheel #1 Position ---------- (1) Ground quartz diffuser (ND=2.32)
Filter Wheel #2 Position ---------- (1) Neutral Density 0.494



************************************************************
HS scan start time = 21:07:23
Dark Count =  2 


Time (GMT)  Wavelength (Ang)  Step Number  Raw Counts  Counts/Second

 1268.29        2950.00           2144          77.00       326.94
 1268.48        2950.25           2147          77.00       326.94
 1268.51        2950.50           2151          84.00       357.46
 1268.54        2950.75           2155          74.00       313.87
 1268.58        2951.00           2158          80.00       340.02
 1268.61        2951.25           2162          75.00       318.22
 1268.64        2951.50           2165          76.00       322.58
 1268.67        2951.75           2169          75.00       318.22
 1268.70        2952.00           2172          79.00       335.66
 1268.73        2952.25           2176          86.00       366.18
 1268.76        2952.50           2179          78.00       331.30
 1268.79        2952.75           2183          78.00       331.30
 1268.82        2953.00           2186          67.00       283.35
 1268.85        2953.25           2190          88.00       374.90
 1268.88        2953.50           2193          77.00       326.94
 1268.91        2953.75           2197          84.00       357.46
 1268.94        2954.00           2200          87.00       370.54
 1268.97        2954.25           2204          76.00       322.58
 1269.00        2954.50           2208          80.00       340.02
 1269.03        2954.75           2211          79.00       335.66
 1269.06        2955.00           2215          81.00       344.38
 1269.10        2955.25           2218          83.00       353.10
 1269.13        2955.50           2222          80.00       340.02
 1269.16        2955.75           2225          78.00       331.30
 1269.19        2956.00           2229          80.00       340.02
 1269.22        2956.25           2232          74.00       313.87
 1269.25        2956.50           2236          89.00       379.26
 1269.28        2956.75           2239          78.00       331.30
 1269.31        2957.00           2243          81.00       344.38
 1269.34        2957.25           2246          96.00       409.77
 1269.37        2957.50           2250          86.00       366.18
 1269.40        2957.75           2254          87.00       370.54
 1269.44        2958.00           2257          86.00       366.18
 1269.47        2958.25           2261          87.00       370.54
 1269.50        2958.50           2264          84.00       357.46
 1269.53        2958.75           2268          94.00       401.05
 1269.56        2959.00           2271         128.00       549.27
 1269.59        2959.25           2275          95.00       405.41
 1269.62        2959.50           2278         110.00       470.80
 1269.65        2959.75           2282          92.00       392.33
 1269.68        2960.00           2285          98.00       418.49
 1269.71        2960.25           2289          98.00       418.49
 1269.74        2960.50           2293         124.00       531.83
 1269.77        2960.75           2296         143.00       614.66
 1269.81        2961.00           2300         164.00       706.21
 1269.84        2961.25           2303         438.00      1900.73
 1269.87        2961.50           2307        1320.00      5746.55
 1269.90        2961.75           2310        2179.00      9493.04
 1269.93        2962.00           2314        3653.00     15924.05
 1269.96        2962.25           2317        4922.00     21462.91
 1269.99        2962.50           2321        6404.00     27934.10
 1270.02        2962.75           2324        7556.00     32966.31
 1270.05        2963.00           2328        9027.00     39394.49
 1270.08        2963.25           2331       10270.00     44828.52
 1270.11        2963.50           2335       11935.00     52110.56
 1270.14        2963.75           2339       13655.00     59636.93
 1270.17        2964.00           2342       14884.00     65017.15
 1270.20        2964.25           2346       16317.00     71292.91
 1270.23        2964.50           2349       17577.00     76813.26
 1270.26        2964.75           2353       19080.00     83400.95
 1270.29        2965.00           2356       20339.00     88921.44
 1270.33        2965.25           2360       21948.00     95979.66
 1270.36        2965.50           2363       23194.00    101447.80
 1270.39        2965.75           2367       24361.00    106571.20
 1270.42        2966.00           2370       25340.00    110870.50
 1270.45        2966.25           2374       26746.00    117047.30
 1270.48        2966.50           2378       27444.00    120114.60
 1270.51        2966.75           2381       27677.00    121138.70
 1270.54        2967.00           2385       27720.00    121327.70
 1270.57        2967.25           2388       27516.00    120431.10
 1270.60        2967.50           2392       27636.00    120958.50
 1270.64        2967.75           2395       27549.00    120576.10
 1270.67        2968.00           2399       26578.00    116309.10
 1270.70        2968.25           2402       25764.00    112732.90
 1270.73        2968.50           2406       24090.00    105381.30
 1270.76        2968.75           2409       22899.00    100153.00
 1270.79        2969.00           2413       21192.00     92662.88
 1270.82        2969.25           2417       19516.00     85312.50
 1270.85        2969.50           2420       18333.00     80126.46
 1270.88        2969.75           2424       16735.00     73124.04
 1270.91        2970.00           2427       15525.00     67824.06
 1270.94        2970.25           2431       13765.00     60118.40
 1270.97        2970.50           2434       12375.00     54035.54
 1271.00        2970.75           2438       10826.00     47259.84
 1271.03        2971.00           2441        9654.00     42135.30
 1271.06        2971.25           2445        7958.00     34722.75
 1271.09        2971.50           2449        6478.00     28257.30
 1271.13        2971.75           2452        5364.00     23392.62
 1271.16        2972.00           2456        3650.00     15910.96
 1271.19        2972.25           2459        2517.00     10967.47
 1271.22        2972.50           2463        1188.00      5170.92
 1271.25        2972.75           2466         521.00      2262.60
 1271.28        2973.00           2470         184.00       793.40
 1271.31        2973.25           2473         132.00       566.71
 1271.34        2973.50           2477         157.00       675.69
 1271.37        2973.75           2481         130.00       557.99
 1271.40        2974.00           2484         109.00       466.44
 1271.43        2974.25           2488         105.00       449.00
 1271.46        2974.50           2491         105.00       449.00
 1271.49        2974.75           2495          89.00       379.26
 1271.52        2975.00           2498          96.00       409.77
 1271.55        2975.25           2502         101.00       431.57
 1271.58        2975.50           2505         110.00       470.80
 1271.61        2975.75           2509          82.00       348.74
 1271.65        2976.00           2512          92.00       392.33
 1271.68        2976.25           2516          95.00       405.41
 1271.71        2976.50           2520          91.00       387.97
 1271.74        2976.75           2523          88.00       374.90
 1271.77        2977.00           2527          88.00       374.90
 1271.80        2977.25           2530          94.00       401.05
 1271.83        2977.50           2534          90.00       383.61
 1271.86        2977.75           2537          85.00       361.82
 1271.89        2978.00           2541          88.00       374.90
 1271.92        2978.25           2544          98.00       418.49
 1271.95        2978.50           2548          76.00       322.58
 1271.98        2978.75           2552          75.00       318.22
 1272.01        2979.00           2555          86.00       366.18
 1272.04        2979.25           2559          82.00       348.74
 1272.07        2979.50           2562          78.00       331.30
 1272.10        2979.75           2566          75.00       318.22
 1272.13        2980.00           2569          79.00       335.66
 1272.16        2980.25           2573          85.00       361.82
 1272.20        2980.50           2577          76.00       322.58
 1272.23        2980.75           2580          76.00       322.58
 1272.26        2981.00           2584          72.00       305.15
 1272.29        2981.25           2587          81.00       344.38
 1272.32        2981.50           2591          82.00       348.74
 1272.35        2981.75           2594          69.00       292.07
 1272.38        2982.00           2598          78.00       331.30
 1272.41        2982.25           2601          68.00       287.71
 1272.44        2982.50           2605          74.00       313.87
 1272.47        2982.75           2609          74.00       313.87
 1272.50        2983.00           2612          69.00       292.07
 1272.53        2983.25           2616          72.00       305.15
 1272.56        2983.50           2619          75.00       318.22
 1272.59        2983.75           2623          67.00       283.35
 1272.62        2984.00           2626          59.00       248.48
HS scan finished at 21:12:51
end
