************************************************************
  HS Scan of (1) Internal mercury lamp
************************************************************
Integration time is 0.2294 seconds per sample
dh210518Reading 51.44 .94 3.21pr1000
************************************************************
Dead Time -------------------------  3.4E-08 
Number of Cycles Used -------------  4 
Starting Wavelength (Angstroms) ---  2950 
Final Wavelength (Angstoms) -------  2984 
Wavelength Increment (Angstroms) --  .25 
Filter Wheel #1 Position ---------- (1) Ground quartz diffuser (ND=2.32)
Filter Wheel #2 Position ---------- (1) Neutral Density 0.494



************************************************************
HS scan start time = 01:15:10
Dark Count =  1 


Time (GMT)  Wavelength (Ang)  Step Number  Raw Counts  Counts/Second

   76.07        2950.00           2144          86.00       370.54
   76.27        2950.25           2147          77.00       331.30
   76.30        2950.50           2151          76.00       326.94
   76.33        2950.75           2155          84.00       361.82
   76.36        2951.00           2158          90.00       387.97
   76.39        2951.25           2162          79.00       340.02
   76.42        2951.50           2165          80.00       344.38
   76.45        2951.75           2169          83.00       357.46
   76.48        2952.00           2172          78.00       335.66
   76.51        2952.25           2176          75.00       322.58
   76.54        2952.50           2179          79.00       340.02
   76.57        2952.75           2183          84.00       361.82
   76.60        2953.00           2186          87.00       374.90
   76.63        2953.25           2190          84.00       361.82
   76.66        2953.50           2193          88.00       379.26
   76.69        2953.75           2197          87.00       374.90
   76.72        2954.00           2200          86.00       370.54
   76.76        2954.25           2204          91.00       392.33
   76.79        2954.50           2208          84.00       361.82
   76.82        2954.75           2211          86.00       370.54
   76.85        2955.00           2215          83.00       357.46
   76.88        2955.25           2218          91.00       392.33
   76.91        2955.50           2222          86.00       370.54
   76.94        2955.75           2225          90.00       387.97
   76.97        2956.00           2229          87.00       374.90
   77.00        2956.25           2232         100.00       431.57
   77.03        2956.50           2236          94.00       405.41
   77.06        2956.75           2239          91.00       392.33
   77.09        2957.00           2243          89.00       383.61
   77.12        2957.25           2246          88.00       379.26
   77.15        2957.50           2250          86.00       370.54
   77.18        2957.75           2254          97.00       418.49
   77.21        2958.00           2257          94.00       405.41
   77.24        2958.25           2261          98.00       422.85
   77.28        2958.50           2264          98.00       422.85
   77.31        2958.75           2268          94.00       405.41
   77.34        2959.00           2271         106.00       457.72
   77.37        2959.25           2275         100.00       431.57
   77.40        2959.50           2278         108.00       466.44
   77.43        2959.75           2282         115.00       496.96
   77.46        2960.00           2285         136.00       588.50
   77.49        2960.25           2289         127.00       549.27
   77.52        2960.50           2293         129.00       557.99
   77.55        2960.75           2296         110.00       475.16
   77.58        2961.00           2300         149.00       645.18
   77.61        2961.25           2303         244.00      1059.32
   77.64        2961.50           2307        1000.00      4355.48
   77.67        2961.75           2310        2012.00      8768.96
   77.70        2962.00           2314        3470.00     15129.84
   77.73        2962.25           2317        4692.00     20463.23
   77.76        2962.50           2321        6255.00     27287.73
   77.80        2962.75           2324        7641.00     33342.05
   77.83        2963.00           2328        9582.00     41824.91
   77.86        2963.25           2331       10986.00     47963.94
   77.89        2963.50           2335       12654.00     55260.67
   77.92        2963.75           2339       14595.00     63756.20
   77.95        2964.00           2342       15807.00     69063.47
   77.98        2964.25           2346       17537.00     76642.36
   78.01        2964.50           2349       19210.00     83975.26
   78.04        2964.75           2353       21052.00     92053.13
   78.07        2965.00           2356       22252.00     97317.99
   78.10        2965.25           2360       23678.00    103576.90
   78.13        2965.50           2363       25127.00    109939.40
   78.16        2965.75           2367       26889.00    117680.00
   78.19        2966.00           2370       27873.00    122004.60
   78.22        2966.25           2374       29460.00    128982.00
   78.25        2966.50           2378       30099.00    131792.40
   78.28        2966.75           2381       30201.00    132241.00
   78.31        2967.00           2385       30265.00    132522.50
   78.35        2967.25           2388       30098.00    131788.00
   78.38        2967.50           2392       30017.00    131431.70
   78.41        2967.75           2395       29866.00    130767.60
   78.44        2968.00           2399       28713.00    125697.40
   78.47        2968.25           2402       27895.00    122101.30
   78.50        2968.50           2406       26359.00    115351.30
   78.53        2968.75           2409       24972.00    109258.70
   78.56        2969.00           2413       23079.00    100947.50
   78.59        2969.25           2417       21787.00     95277.62
   78.62        2969.50           2420       20597.00     90057.37
   78.65        2969.75           2424       18724.00     81844.71
   78.68        2970.00           2427       17239.00     75336.58
   78.71        2970.25           2431       15337.00     67005.13
   78.74        2970.50           2434       14087.00     61532.26
   78.77        2970.75           2438       12333.00     53856.16
   78.80        2971.00           2441       11103.00     48475.65
   78.83        2971.25           2445        9274.00     40478.52
   78.87        2971.50           2449        7787.00     33979.95
   78.90        2971.75           2452        6395.00     27899.17
   78.93        2972.00           2456        4787.00     20877.94
   78.96        2972.25           2459        3490.00     15217.11
   78.99        2972.50           2463        1880.00      8193.22
   79.02        2972.75           2466         884.00      3849.68
   79.05        2973.00           2470         292.00      1268.58
   79.08        2973.25           2473         178.00       771.60
   79.11        2973.50           2477         137.00       592.86
   79.14        2973.75           2481         151.00       653.89
   79.17        2974.00           2484         128.00       553.63
   79.20        2974.25           2488         129.00       557.99
   79.23        2974.50           2491         120.00       518.75
   79.26        2974.75           2495         116.00       501.32
   79.29        2975.00           2498         137.00       592.86
   79.32        2975.25           2502         124.00       536.19
   79.35        2975.50           2505         108.00       466.44
   79.39        2975.75           2509         123.00       531.83
   79.42        2976.00           2512         102.00       440.29
   79.45        2976.25           2516         106.00       457.72
   79.48        2976.50           2520         106.00       457.72
   79.51        2976.75           2523         120.00       518.75
   79.54        2977.00           2527         101.00       435.93
   79.57        2977.25           2530          95.00       409.77
   79.60        2977.50           2534          95.00       409.77
   79.63        2977.75           2537         125.00       540.55
   79.66        2978.00           2541          93.00       401.05
   79.69        2978.25           2544          84.00       361.82
   79.72        2978.50           2548          90.00       387.97
   79.75        2978.75           2552          90.00       387.97
   79.78        2979.00           2555          85.00       366.18
   79.81        2979.25           2559          86.00       370.54
   79.84        2979.50           2562          83.00       357.46
   79.87        2979.75           2566          91.00       392.33
   79.91        2980.00           2569          94.00       405.41
   79.94        2980.25           2573          84.00       361.82
   79.97        2980.50           2577          82.00       353.10
   80.00        2980.75           2580          79.00       340.02
   80.03        2981.00           2584          89.00       383.61
   80.06        2981.25           2587          91.00       392.33
   80.09        2981.50           2591          90.00       387.97
   80.12        2981.75           2594          79.00       340.02
   80.15        2982.00           2598          84.00       361.82
   80.18        2982.25           2601          88.00       379.26
   80.21        2982.50           2605          78.00       335.66
   80.24        2982.75           2609          77.00       331.30
   80.27        2983.00           2612          85.00       366.18
   80.30        2983.25           2616          80.00       344.38
   80.33        2983.50           2619          77.00       331.30
   80.36        2983.75           2623          68.00       292.07
   80.39        2984.00           2626          80.00       344.38
HS scan finished at 01:20:37
end
************************************************************
  HS Scan of (1) Internal mercury lamp
************************************************************
Integration time is 0.2294 seconds per sample
dh210518Reading 51.44 .94 3.66pr1000
************************************************************
Dead Time -------------------------  3.4E-08 
Number of Cycles Used -------------  4 
Starting Wavelength (Angstroms) ---  2950 
Final Wavelength (Angstoms) -------  2984 
Wavelength Increment (Angstroms) --  .25 
Filter Wheel #1 Position ---------- (1) Ground quartz diffuser (ND=2.32)
Filter Wheel #2 Position ---------- (1) Neutral Density 0.494



************************************************************
HS scan start time = 21:07:24
Dark Count =  3.5 


Time (GMT)  Wavelength (Ang)  Step Number  Raw Counts  Counts/Second

 1268.29        2950.00           2144          73.00       302.97
 1268.49        2950.25           2147          63.00       259.37
 1268.52        2950.50           2151          72.00       298.61
 1268.55        2950.75           2155          70.00       289.89
 1268.58        2951.00           2158          67.00       276.81
 1268.61        2951.25           2162          66.00       272.45
 1268.64        2951.50           2165          66.00       272.45
 1268.67        2951.75           2169          71.00       294.25
 1268.70        2952.00           2172          70.00       289.89
 1268.73        2952.25           2176          69.00       285.53
 1268.76        2952.50           2179          67.00       276.81
 1268.79        2952.75           2183          65.00       268.09
 1268.82        2953.00           2186          72.00       298.61
 1268.85        2953.25           2190          73.00       302.97
 1268.88        2953.50           2193          72.00       298.61
 1268.92        2953.75           2197          66.00       272.45
 1268.95        2954.00           2200          70.00       289.89
 1268.98        2954.25           2204          76.00       316.05
 1269.01        2954.50           2208          67.00       276.81
 1269.04        2954.75           2211          73.00       302.97
 1269.07        2955.00           2215          68.00       281.17
 1269.10        2955.25           2218          76.00       316.05
 1269.13        2955.50           2222          68.00       281.17
 1269.16        2955.75           2225          69.00       285.53
 1269.19        2956.00           2229          75.00       311.69
 1269.22        2956.25           2232          70.00       289.89
 1269.25        2956.50           2236          80.00       333.48
 1269.28        2956.75           2239          77.00       320.40
 1269.31        2957.00           2243          78.00       324.76
 1269.34        2957.25           2246          67.00       276.81
 1269.37        2957.50           2250          86.00       359.64
 1269.40        2957.75           2254          75.00       311.69
 1269.43        2958.00           2257          86.00       359.64
 1269.47        2958.25           2261          78.00       324.76
 1269.50        2958.50           2264          86.00       359.64
 1269.53        2958.75           2268          84.00       350.92
 1269.56        2959.00           2271          81.00       337.84
 1269.59        2959.25           2275          83.00       346.56
 1269.62        2959.50           2278          86.00       359.64
 1269.65        2959.75           2282          92.00       385.79
 1269.68        2960.00           2285         100.00       420.67
 1269.71        2960.25           2289          96.00       403.23
 1269.74        2960.50           2293         103.00       433.75
 1269.77        2960.75           2296         100.00       420.67
 1269.81        2961.00           2300         129.00       547.09
 1269.84        2961.25           2303         198.00       847.89
 1269.87        2961.50           2307         768.00      3332.98
 1269.90        2961.75           2310        1576.00      6856.44
 1269.93        2962.00           2314        2800.00     12195.55
 1269.96        2962.25           2317        3769.00     16423.73
 1269.99        2962.50           2321        5094.00     22207.26
 1270.02        2962.75           2324        6122.00     26695.97
 1270.05        2963.00           2328        7614.00     33213.16
 1270.08        2963.25           2331        8914.00     38894.03
 1270.11        2963.50           2335       10349.00     45167.39
 1270.15        2963.75           2339       11835.00     51666.53
 1270.18        2964.00           2342       13044.00     56956.31
 1270.21        2964.25           2346       14725.00     64314.42
 1270.24        2964.50           2349       15794.00     68995.58
 1270.27        2964.75           2353       17302.00     75601.66
 1270.30        2965.00           2356       18300.00     79975.25
 1270.33        2965.25           2360       19539.00     85406.75
 1270.36        2965.50           2363       20903.00     91388.59
 1270.39        2965.75           2367       22148.00     96850.66
 1270.42        2966.00           2370       23014.00    100651.20
 1270.45        2966.25           2374       24164.00    105699.60
 1270.48        2966.50           2378       24803.00    108505.50
 1270.51        2966.75           2381       24691.00    108013.60
 1270.54        2967.00           2385       24631.00    107750.20
 1270.57        2967.25           2388       24812.00    108545.00
 1270.60        2967.50           2392       24827.00    108610.90
 1270.63        2967.75           2395       24909.00    108971.00
 1270.67        2968.00           2399       23855.00    104342.90
 1270.70        2968.25           2402       22801.00     99716.33
 1270.73        2968.50           2406       21245.00     92888.81
 1270.76        2968.75           2409       20274.00     88629.80
 1270.79        2969.00           2413       19006.00     83069.96
 1270.82        2969.25           2417       17703.00     77358.83
 1270.85        2969.50           2420       16735.00     73117.47
 1270.88        2969.75           2424       15088.00     65903.83
 1270.91        2970.00           2427       14007.00     61171.13
 1270.94        2970.25           2431       12524.00     54680.90
 1270.97        2970.50           2434       11348.00     49536.28
 1271.00        2970.75           2438        9819.00     42850.09
 1271.03        2971.00           2441        8647.00     37727.09
 1271.06        2971.25           2445        7177.00     31304.01
 1271.09        2971.50           2449        5769.00     25154.46
 1271.12        2971.75           2452        4803.00     20936.87
 1271.15        2972.00           2456        3372.00     14691.30
 1271.18        2972.25           2459        2331.00     10149.54
 1271.22        2972.50           2463        1140.00      4955.06
 1271.25        2972.75           2466         585.00      2535.09
 1271.28        2973.00           2470         174.00       743.26
 1271.31        2973.25           2473         144.00       612.48
 1271.34        2973.50           2477         104.00       438.11
 1271.37        2973.75           2481         101.00       425.03
 1271.40        2974.00           2484          99.00       416.31
 1271.43        2974.25           2488          89.00       372.72
 1271.46        2974.50           2491          90.00       377.08
 1271.49        2974.75           2495         109.00       459.90
 1271.52        2975.00           2498         107.00       451.18
 1271.55        2975.25           2502          84.00       350.92
 1271.58        2975.50           2505          79.00       329.12
 1271.61        2975.75           2509          88.00       368.36
 1271.64        2976.00           2512          91.00       381.43
 1271.67        2976.25           2516          88.00       368.36
 1271.70        2976.50           2520          79.00       329.12
 1271.74        2976.75           2523          86.00       359.64
 1271.77        2977.00           2527          84.00       350.92
 1271.80        2977.25           2530          81.00       337.84
 1271.83        2977.50           2534          68.00       281.17
 1271.86        2977.75           2537          82.00       342.20
 1271.89        2978.00           2541          73.00       302.97
 1271.92        2978.25           2544          74.00       307.33
 1271.95        2978.50           2548          82.00       342.20
 1271.98        2978.75           2552          77.00       320.40
 1272.01        2979.00           2555          80.00       333.48
 1272.04        2979.25           2559          77.00       320.40
 1272.07        2979.50           2562          73.00       302.97
 1272.10        2979.75           2566          65.00       268.09
 1272.13        2980.00           2569          77.00       320.40
 1272.16        2980.25           2573          72.00       298.61
 1272.19        2980.50           2577          70.00       289.89
 1272.22        2980.75           2580          70.00       289.89
 1272.26        2981.00           2584          63.00       259.37
 1272.29        2981.25           2587          66.00       272.45
 1272.32        2981.50           2591          70.00       289.89
 1272.35        2981.75           2594          67.00       276.81
 1272.38        2982.00           2598          76.00       316.05
 1272.41        2982.25           2601          66.00       272.45
 1272.44        2982.50           2605          65.00       268.09
 1272.47        2982.75           2609          63.00       259.37
 1272.50        2983.00           2612          65.00       268.09
 1272.53        2983.25           2616          67.00       276.81
 1272.56        2983.50           2619          74.00       307.33
 1272.59        2983.75           2623          61.00       250.66
 1272.62        2984.00           2626          70.00       289.89
HS scan finished at 21:12:51
end
