************************************************************
  HS Scan of (1) Internal mercury lamp
************************************************************
Integration time is 0.2294 seconds per sample
dh230518Reading 51.44 .94 3.49pr1000
************************************************************
Dead Time -------------------------  3.4E-08 
Number of Cycles Used -------------  4 
Starting Wavelength (Angstroms) ---  2950 
Final Wavelength (Angstoms) -------  2984 
Wavelength Increment (Angstroms) --  .25 
Filter Wheel #1 Position ---------- (1) Ground quartz diffuser (ND=2.32)
Filter Wheel #2 Position ---------- (1) Neutral Density 0.494



************************************************************
HS scan start time = 02:34:55
Dark Count =  2 


Time (GMT)  Wavelength (Ang)  Step Number  Raw Counts  Counts/Second

  155.82        2950.00           2144          74.00       313.87
  156.01        2950.25           2147          79.00       335.66
  156.04        2950.50           2151          80.00       340.02
  156.07        2950.75           2155          78.00       331.30
  156.10        2951.00           2158          74.00       313.87
  156.13        2951.25           2162          83.00       353.10
  156.16        2951.50           2165          78.00       331.30
  156.19        2951.75           2169          68.00       287.71
  156.22        2952.00           2172          75.00       318.22
  156.25        2952.25           2176          77.00       326.94
  156.28        2952.50           2179          82.00       348.74
  156.31        2952.75           2183          79.00       335.66
  156.35        2953.00           2186          85.00       361.82
  156.38        2953.25           2190          82.00       348.74
  156.41        2953.50           2193          79.00       335.66
  156.44        2953.75           2197          87.00       370.54
  156.47        2954.00           2200          77.00       326.94
  156.50        2954.25           2204          80.00       340.02
  156.53        2954.50           2208          81.00       344.38
  156.56        2954.75           2211          88.00       374.90
  156.59        2955.00           2215          88.00       374.90
  156.62        2955.25           2218          84.00       357.46
  156.65        2955.50           2222          85.00       361.82
  156.68        2955.75           2225          80.00       340.02
  156.71        2956.00           2229          88.00       374.90
  156.74        2956.25           2232          84.00       357.46
  156.77        2956.50           2236          88.00       374.90
  156.80        2956.75           2239          97.00       414.13
  156.83        2957.00           2243          84.00       357.46
  156.87        2957.25           2246         136.00       584.14
  156.90        2957.50           2250          91.00       387.97
  156.93        2957.75           2254          91.00       387.97
  156.96        2958.00           2257          95.00       405.41
  156.99        2958.25           2261         100.00       427.21
  157.02        2958.50           2264          94.00       401.05
  157.05        2958.75           2268         111.00       475.16
  157.08        2959.00           2271         115.00       492.60
  157.11        2959.25           2275          96.00       409.77
  157.14        2959.50           2278         102.00       435.93
  157.17        2959.75           2282         121.00       518.75
  157.20        2960.00           2285         149.00       640.82
  157.23        2960.25           2289         123.00       527.47
  157.26        2960.50           2293         164.00       706.21
  157.29        2960.75           2296         146.00       627.74
  157.32        2961.00           2300         158.00       680.05
  157.35        2961.25           2303         323.00      1399.37
  157.39        2961.50           2307        1100.00      4787.18
  157.42        2961.75           2310        2037.00      8873.64
  157.45        2962.00           2314        3553.00     15487.66
  157.48        2962.25           2317        4838.00     21096.21
  157.51        2962.50           2321        6546.00     28554.30
  157.54        2962.75           2324        7806.00     34058.60
  157.57        2963.00           2328        9399.00     41020.56
  157.60        2963.25           2331       10553.00     46065.99
  157.63        2963.50           2335       12226.00     53383.65
  157.66        2963.75           2339       14093.00     61554.15
  157.69        2964.00           2342       15626.00     68266.38
  157.72        2964.25           2346       17615.00     76979.77
  157.75        2964.50           2349       18705.00     81757.03
  157.78        2964.75           2353       20485.00     89561.77
  157.81        2965.00           2356       21728.00     95014.38
  157.84        2965.25           2360       23270.00    101781.40
  157.88        2965.50           2363       24523.00    107282.50
  157.91        2965.75           2367       26374.00    115412.80
  157.94        2966.00           2370       27630.00    120932.10
  157.97        2966.25           2374       29105.00    127416.50
  158.00        2966.50           2378       29889.00    130864.30
  158.03        2966.75           2381       29931.00    131049.10
  158.06        2967.00           2385       29926.00    131027.10
  158.09        2967.25           2388       29966.00    131203.00
  158.12        2967.50           2392       29841.00    130653.20
  158.15        2967.75           2395       29681.00    129949.50
  158.18        2968.00           2399       28479.00    124664.20
  158.21        2968.25           2402       27302.00    119490.60
  158.24        2968.50           2406       26017.00    113844.40
  158.27        2968.75           2409       24621.00    107712.80
  158.30        2969.00           2413       22927.00    100275.90
  158.34        2969.25           2417       21141.00     92439.16
  158.37        2969.50           2420       19940.00     87171.66
  158.40        2969.75           2424       17892.00     78193.66
  158.43        2970.00           2427       16786.00     73347.47
  158.46        2970.25           2431       14966.00     65376.20
  158.49        2970.50           2434       13520.00     59046.07
  158.53        2970.75           2438       11521.00     50299.55
  158.56        2971.00           2441       10272.00     44837.27
  158.59        2971.25           2445        8639.00     37698.68
  158.62        2971.50           2449        6934.00     30249.06
  158.65        2971.75           2452        5643.00     24610.82
  158.68        2972.00           2456        4049.00     17652.27
  158.71        2972.25           2459        2804.00     12219.55
  158.74        2972.50           2463        1470.00      6400.70
  158.77        2972.75           2466         643.00      2794.51
  158.80        2973.00           2470         200.00       863.15
  158.83        2973.25           2473         134.00       575.43
  158.86        2973.50           2477         127.00       544.91
  158.89        2973.75           2481         140.00       601.58
  158.92        2974.00           2484         132.00       566.71
  158.95        2974.25           2488         115.00       492.60
  158.98        2974.50           2491         133.00       571.07
  159.01        2974.75           2495         103.00       440.29
  159.05        2975.00           2498         101.00       431.57
  159.08        2975.25           2502         103.00       440.29
  159.11        2975.50           2505          95.00       405.41
  159.14        2975.75           2509          92.00       392.33
  159.17        2976.00           2512          98.00       418.49
  159.20        2976.25           2516         113.00       483.88
  159.23        2976.50           2520          98.00       418.49
  159.26        2976.75           2523         106.00       453.36
  159.29        2977.00           2527          94.00       401.05
  159.32        2977.25           2530          84.00       357.46
  159.35        2977.50           2534          86.00       366.18
  159.38        2977.75           2537          98.00       418.49
  159.41        2978.00           2541          97.00       414.13
  159.44        2978.25           2544          92.00       392.33
  159.47        2978.50           2548          89.00       379.26
  159.50        2978.75           2552          88.00       374.90
  159.53        2979.00           2555          86.00       366.18
  159.57        2979.25           2559          90.00       383.61
  159.60        2979.50           2562          88.00       374.90
  159.63        2979.75           2566          85.00       361.82
  159.66        2980.00           2569          86.00       366.18
  159.69        2980.25           2573          92.00       392.33
  159.72        2980.50           2577          80.00       340.02
  159.75        2980.75           2580          83.00       353.10
  159.79        2981.00           2584          80.00       340.02
  159.82        2981.25           2587          76.00       322.58
  159.85        2981.50           2591          80.00       340.02
  159.88        2981.75           2594          86.00       366.18
  159.91        2982.00           2598          73.00       309.51
  159.94        2982.25           2601          77.00       326.94
  159.97        2982.50           2605          78.00       331.30
  160.00        2982.75           2609          77.00       326.94
  160.03        2983.00           2612          78.00       331.30
  160.06        2983.25           2616          66.00       278.99
  160.09        2983.50           2619          74.00       313.87
  160.12        2983.75           2623          83.00       353.10
  160.15        2984.00           2626          73.00       309.51
HS scan finished at 02:40:23
end
************************************************************
  HS Scan of (1) Internal mercury lamp
************************************************************
Integration time is 0.2294 seconds per sample
dh230518Reading 51.44 .94 3.47pr1000
************************************************************
Dead Time -------------------------  3.4E-08 
Number of Cycles Used -------------  4 
Starting Wavelength (Angstroms) ---  2950 
Final Wavelength (Angstoms) -------  2984 
Wavelength Increment (Angstroms) --  .25 
Filter Wheel #1 Position ---------- (1) Ground quartz diffuser (ND=2.32)
Filter Wheel #2 Position ---------- (1) Neutral Density 0.494



************************************************************
HS scan start time = 21:07:23
Dark Count =  2.4 


Time (GMT)  Wavelength (Ang)  Step Number  Raw Counts  Counts/Second

 1268.27        2950.00           2144          98.00       416.75
 1268.47        2950.25           2147          74.00       312.12
 1268.50        2950.50           2151          80.00       338.28
 1268.53        2950.75           2155          70.00       294.68
 1268.56        2951.00           2158          72.00       303.40
 1268.59        2951.25           2162          74.00       312.12
 1268.62        2951.50           2165          74.00       312.12
 1268.65        2951.75           2169          75.00       316.48
 1268.68        2952.00           2172          74.00       312.12
 1268.71        2952.25           2176          79.00       333.92
 1268.74        2952.50           2179          86.00       364.43
 1268.77        2952.75           2183          79.00       333.92
 1268.80        2953.00           2186          72.00       303.40
 1268.83        2953.25           2190          69.00       290.33
 1268.86        2953.50           2193          70.00       294.68
 1268.89        2953.75           2197          79.00       333.92
 1268.92        2954.00           2200          86.00       364.43
 1268.96        2954.25           2204          80.00       338.28
 1268.99        2954.50           2208          79.00       333.92
 1269.02        2954.75           2211          85.00       360.07
 1269.05        2955.00           2215          91.00       386.23
 1269.08        2955.25           2218          76.00       320.84
 1269.11        2955.50           2222          79.00       333.92
 1269.14        2955.75           2225          83.00       351.36
 1269.17        2956.00           2229          85.00       360.07
 1269.20        2956.25           2232          82.00       347.00
 1269.23        2956.50           2236          81.00       342.64
 1269.26        2956.75           2239          86.00       364.43
 1269.29        2957.00           2243          87.00       368.79
 1269.32        2957.25           2246          82.00       347.00
 1269.35        2957.50           2250          91.00       386.23
 1269.38        2957.75           2254          89.00       377.51
 1269.41        2958.00           2257          90.00       381.87
 1269.44        2958.25           2261          89.00       377.51
 1269.48        2958.50           2264          94.00       399.31
 1269.51        2958.75           2268          91.00       386.23
 1269.55        2959.00           2271         100.00       425.46
 1269.58        2959.25           2275          97.00       412.39
 1269.61        2959.50           2278          92.00       390.59
 1269.64        2959.75           2282          96.00       408.03
 1269.67        2960.00           2285          95.00       403.67
 1269.70        2960.25           2289         100.00       425.46
 1269.73        2960.50           2293         146.00       625.99
 1269.76        2960.75           2296         129.00       551.88
 1269.79        2961.00           2300         139.00       595.48
 1269.82        2961.25           2303         286.00      1236.32
 1269.85        2961.50           2307         917.00      3987.46
 1269.88        2961.75           2310        1846.00      8038.81
 1269.91        2962.00           2314        3443.00     15005.91
 1269.94        2962.25           2317        4678.00     20396.01
 1269.97        2962.50           2321        6291.00     27438.84
 1270.00        2962.75           2324        7309.00     31885.47
 1270.03        2963.00           2328        8858.00     38654.08
 1270.07        2963.25           2331       10108.00     44118.44
 1270.10        2963.50           2335       11917.00     52030.06
 1270.13        2963.75           2339       13639.00     59565.15
 1270.16        2964.00           2342       14863.00     64923.45
 1270.19        2964.25           2346       16521.00     72184.78
 1270.22        2964.50           2349       17731.00     77486.35
 1270.25        2964.75           2353       19064.00     83329.04
 1270.28        2965.00           2356       20266.00     88599.55
 1270.31        2965.25           2360       21935.00     95920.87
 1270.34        2965.50           2363       23062.00    100866.70
 1270.37        2965.75           2367       24825.00    108606.90
 1270.40        2966.00           2370       25830.00    113021.10
 1270.43        2966.25           2374       26979.00    118069.40
 1270.46        2966.50           2378       27634.00    120948.00
 1270.49        2966.75           2381       27589.00    120750.20
 1270.52        2967.00           2385       27611.00    120846.90
 1270.57        2967.25           2388       27734.00    121387.50
 1270.60        2967.50           2392       27509.00    120398.60
 1270.63        2967.75           2395       27445.00    120117.30
 1270.66        2968.00           2399       26431.00    115661.50
 1270.69        2968.25           2402       25427.00    111250.90
 1270.72        2968.50           2406       24166.00    105713.20
 1270.75        2968.75           2409       23086.00    100972.00
 1270.78        2969.00           2413       21406.00     93599.92
 1270.81        2969.25           2417       19725.00     86227.14
 1270.84        2969.50           2420       18810.00     82215.56
 1270.88        2969.75           2424       17131.00     74857.24
 1270.91        2970.00           2427       15863.00     69302.60
 1270.94        2970.25           2431       14268.00     62318.48
 1270.97        2970.50           2434       13065.00     57053.02
 1271.00        2970.75           2438       11275.00     49221.80
 1271.03        2971.00           2441       10182.00     44441.99
 1271.06        2971.25           2445        8591.00     37487.16
 1271.09        2971.50           2449        6973.00     30417.67
 1271.13        2971.75           2452        5803.00     25307.73
 1271.17        2972.00           2456        4253.00     18540.89
 1271.20        2972.25           2459        3197.00     13932.49
 1271.23        2972.50           2463        1769.00      7702.98
 1271.26        2972.75           2466         926.00      4026.71
 1271.29        2973.00           2470         300.00      1297.35
 1271.32        2973.25           2473         145.00       621.63
 1271.35        2973.50           2477         113.00       482.14
 1271.38        2973.75           2481         103.00       438.54
 1271.41        2974.00           2484         122.00       521.37
 1271.44        2974.25           2488         123.00       525.73
 1271.47        2974.50           2491         106.00       451.62
 1271.50        2974.75           2495         119.00       508.29
 1271.53        2975.00           2498         104.00       442.90
 1271.56        2975.25           2502          96.00       408.03
 1271.59        2975.50           2505          92.00       390.59
 1271.63        2975.75           2509          92.00       390.59
 1271.66        2976.00           2512          96.00       408.03
 1271.69        2976.25           2516          84.00       355.71
 1271.72        2976.50           2520          85.00       360.07
 1271.75        2976.75           2523          91.00       386.23
 1271.78        2977.00           2527          98.00       416.75
 1271.81        2977.25           2530          95.00       403.67
 1271.84        2977.50           2534          88.00       373.15
 1271.87        2977.75           2537          78.00       329.56
 1271.90        2978.00           2541          81.00       342.64
 1271.93        2978.25           2544          83.00       351.36
 1271.96        2978.50           2548          79.00       333.92
 1271.99        2978.75           2552          84.00       355.71
 1272.02        2979.00           2555          78.00       329.56
 1272.05        2979.25           2559          88.00       373.15
 1272.08        2979.50           2562          89.00       377.51
 1272.11        2979.75           2566          77.00       325.20
 1272.14        2980.00           2569          77.00       325.20
 1272.18        2980.25           2573          78.00       329.56
 1272.21        2980.50           2577          74.00       312.12
 1272.24        2980.75           2580          83.00       351.36
 1272.27        2981.00           2584          73.00       307.76
 1272.30        2981.25           2587          74.00       312.12
 1272.33        2981.50           2591          80.00       338.28
 1272.36        2981.75           2594          74.00       312.12
 1272.39        2982.00           2598          74.00       312.12
 1272.42        2982.25           2601          73.00       307.76
 1272.45        2982.50           2605          82.00       347.00
 1272.48        2982.75           2609          81.00       342.64
 1272.51        2983.00           2612          71.00       299.04
 1272.54        2983.25           2616          74.00       312.12
 1272.57        2983.50           2619          73.00       307.76
 1272.60        2983.75           2623          74.00       312.12
 1272.63        2984.00           2626          70.00       294.68
HS scan finished at 21:12:51
end
