************************************************************
  HS Scan of (1) Internal mercury lamp
************************************************************
Integration time is 0.2294 seconds per sample
dh290518Reading 51.44 .94 3.6pr1000
************************************************************
Dead Time -------------------------  3.4E-08 
Number of Cycles Used -------------  4 
Starting Wavelength (Angstroms) ---  2950 
Final Wavelength (Angstoms) -------  2984 
Wavelength Increment (Angstroms) --  .25 
Filter Wheel #1 Position ---------- (1) Ground quartz diffuser (ND=2.32)
Filter Wheel #2 Position ---------- (1) Neutral Density 0.494



************************************************************
HS scan start time = 01:16:02
Dark Count =  3.2 


Time (GMT)  Wavelength (Ang)  Step Number  Raw Counts  Counts/Second

   76.93        2950.00           2144          53.00       217.09
   77.12        2950.25           2147          51.00       208.37
   77.15        2950.50           2151          50.00       204.01
   77.18        2950.75           2155          55.00       225.81
   77.22        2951.00           2158          55.00       225.81
   77.25        2951.25           2162          50.00       204.01
   77.28        2951.50           2165          53.00       217.09
   77.31        2951.75           2169          54.00       221.45
   77.34        2952.00           2172          54.00       221.45
   77.37        2952.25           2176          56.00       230.17
   77.40        2952.50           2179          52.00       212.73
   77.43        2952.75           2183          57.00       234.53
   77.46        2953.00           2186          54.00       221.45
   77.49        2953.25           2190          53.00       217.09
   77.52        2953.50           2193          60.00       247.60
   77.55        2953.75           2197          59.00       243.25
   77.58        2954.00           2200          55.00       225.81
   77.61        2954.25           2204          62.00       256.32
   77.64        2954.50           2208          61.00       251.96
   77.67        2954.75           2211          68.00       282.48
   77.70        2955.00           2215          57.00       234.53
   77.74        2955.25           2218          52.00       212.73
   77.77        2955.50           2222          62.00       256.32
   77.80        2955.75           2225          59.00       243.25
   77.83        2956.00           2229          60.00       247.60
   77.86        2956.25           2232          63.00       260.68
   77.89        2956.50           2236          63.00       260.68
   77.92        2956.75           2239          68.00       282.48
   77.95        2957.00           2243          66.00       273.76
   77.98        2957.25           2246          69.00       286.84
   78.01        2957.50           2250          62.00       256.32
   78.04        2957.75           2254          66.00       273.76
   78.07        2958.00           2257          67.00       278.12
   78.10        2958.25           2261          68.00       282.48
   78.13        2958.50           2264          69.00       286.84
   78.16        2958.75           2268          73.00       304.28
   78.19        2959.00           2271          66.00       273.76
   78.22        2959.25           2275          65.00       269.40
   78.26        2959.50           2278          70.00       291.20
   78.29        2959.75           2282          70.00       291.20
   78.32        2960.00           2285          77.00       321.71
   78.35        2960.25           2289          88.00       369.66
   78.38        2960.50           2293          85.00       356.59
   78.41        2960.75           2296          81.00       339.15
   78.44        2961.00           2300         112.00       474.29
   78.47        2961.25           2303         192.00       823.04
   78.50        2961.50           2307         656.00      2845.96
   78.53        2961.75           2310        1147.00      4986.90
   78.56        2962.00           2314        2205.00      9601.22
   78.59        2962.25           2317        2963.00     12908.02
   78.62        2962.50           2321        3946.00     17197.50
   78.65        2962.75           2324        4771.00     20798.49
   78.68        2963.00           2328        5986.00     26103.37
   78.71        2963.25           2331        6971.00     30405.43
   78.74        2963.50           2335        8114.00     35399.16
   78.78        2963.75           2339        9068.00     39568.45
   78.81        2964.00           2342       10053.00     43874.47
   78.84        2964.25           2346       11233.00     49034.60
   78.87        2964.50           2349       12012.00     52442.17
   78.90        2964.75           2353       13245.00     57837.25
   78.93        2965.00           2356       13888.00     60651.54
   78.96        2965.25           2360       14943.00     65270.24
   78.99        2965.50           2363       15812.00     69075.72
   79.02        2965.75           2367       25834.00    113035.20
   79.05        2966.00           2370       25971.00    113637.00
   79.08        2966.25           2374       19357.00     84610.10
   79.11        2966.50           2378       20257.00     88556.57
   79.14        2966.75           2381       20065.00     87714.56
   79.17        2967.00           2385       19671.00     85986.85
   79.20        2967.25           2388       19402.00     84807.40
   79.23        2967.50           2392       19378.00     84702.18
   79.26        2967.75           2395       18965.00     82891.53
   79.30        2968.00           2399       18474.00     80739.21
   79.33        2968.25           2402       17643.00     77097.21
   79.36        2968.50           2406       16692.00     72930.40
   79.39        2968.75           2409       15847.00     69229.02
   79.42        2969.00           2413       15155.00     66198.53
   79.45        2969.25           2417       13553.00     59185.24
   79.48        2969.50           2420       12796.00     55872.39
   79.51        2969.75           2424       11838.00     51680.97
   79.54        2970.00           2427       16578.00     72431.00
   79.57        2970.25           2431       14149.00     61794.04
   79.60        2970.50           2434       12781.00     55806.75
   79.63        2970.75           2438       10482.00     45750.28
   79.66        2971.00           2441        6788.00     29606.07
   79.69        2971.25           2445        5704.00     24871.94
   79.72        2971.50           2449        4548.00     19825.04
   79.75        2971.75           2452        3512.00     15303.52
   79.78        2972.00           2456        3591.00     15648.25
   79.82        2972.25           2459        1733.00      7542.47
   79.85        2972.50           2463         858.00      3726.71
   79.88        2972.75           2466         402.00      1738.55
   79.91        2973.00           2470         137.00       583.27
   79.94        2973.25           2473          89.00       374.02
   79.97        2973.50           2477          76.00       317.35
   80.00        2973.75           2481          92.00       387.10
   80.03        2974.00           2484          90.00       378.38
   80.06        2974.25           2488          76.00       317.35
   80.09        2974.50           2491          83.00       347.87
   80.12        2974.75           2495          76.00       317.35
   80.15        2975.00           2498          82.00       343.51
   80.18        2975.25           2502          76.00       317.35
   80.21        2975.50           2505          75.00       312.99
   80.24        2975.75           2509          86.00       360.95
   80.27        2976.00           2512          85.00       356.59
   80.30        2976.25           2516          80.00       334.79
   80.34        2976.50           2520          64.00       265.04
   80.37        2976.75           2523          76.00       317.35
   80.40        2977.00           2527          75.00       312.99
   80.43        2977.25           2530          72.00       299.92
   80.46        2977.50           2534          72.00       299.92
   80.49        2977.75           2537          71.00       295.56
   80.52        2978.00           2541          69.00       286.84
   80.55        2978.25           2544          69.00       286.84
   80.58        2978.50           2548          67.00       278.12
   80.61        2978.75           2552          65.00       269.40
   80.64        2979.00           2555          69.00       286.84
   80.67        2979.25           2559          64.00       265.04
   80.70        2979.50           2562          58.00       238.89
   80.73        2979.75           2566          64.00       265.04
   80.76        2980.00           2569          58.00       238.89
   80.79        2980.25           2573          59.00       243.25
   80.82        2980.50           2577          58.00       238.89
   80.86        2980.75           2580          59.00       243.25
   80.89        2981.00           2584          61.00       251.96
   80.92        2981.25           2587          52.00       212.73
   80.95        2981.50           2591          67.00       278.12
   80.98        2981.75           2594          52.00       212.73
   81.01        2982.00           2598          62.00       256.32
   81.04        2982.25           2601          57.00       234.53
   81.07        2982.50           2605          61.00       251.96
   81.10        2982.75           2609          61.00       251.96
   81.13        2983.00           2612          58.00       238.89
   81.16        2983.25           2616          59.00       243.25
   81.19        2983.50           2619          59.00       243.25
   81.22        2983.75           2623          58.00       238.89
   81.25        2984.00           2626          61.00       251.96
HS scan finished at 01:21:29
end
************************************************************
  HS Scan of (1) Internal mercury lamp
************************************************************
Integration time is 0.2294 seconds per sample
dh290518Reading 51.44 .94 3.39pr1000
************************************************************
Dead Time -------------------------  3.4E-08 
Number of Cycles Used -------------  4 
Starting Wavelength (Angstroms) ---  2950 
Final Wavelength (Angstoms) -------  2984 
Wavelength Increment (Angstroms) --  .25 
Filter Wheel #1 Position ---------- (1) Ground quartz diffuser (ND=2.32)
Filter Wheel #2 Position ---------- (1) Neutral Density 0.494



************************************************************
HS scan start time = 21:07:22
Dark Count =  2 


Time (GMT)  Wavelength (Ang)  Step Number  Raw Counts  Counts/Second

 1268.27        2950.00           2144          68.00       287.71
 1268.46        2950.25           2147          71.00       300.79
 1268.49        2950.50           2151          75.00       318.22
 1268.52        2950.75           2155          67.00       283.35
 1268.55        2951.00           2158          75.00       318.22
 1268.58        2951.25           2162          71.00       300.79
 1268.61        2951.50           2165          72.00       305.15
 1268.64        2951.75           2169          79.00       335.66
 1268.67        2952.00           2172          75.00       318.22
 1268.70        2952.25           2176          83.00       353.10
 1268.73        2952.50           2179          74.00       313.87
 1268.76        2952.75           2183          71.00       300.79
 1268.80        2953.00           2186          71.00       300.79
 1268.83        2953.25           2190          78.00       331.30
 1268.86        2953.50           2193          78.00       331.30
 1268.89        2953.75           2197          58.00       244.12
 1268.92        2954.00           2200          57.00       239.76
 1268.95        2954.25           2204          59.00       248.48
 1268.98        2954.50           2208          55.00       231.04
 1269.01        2954.75           2211          59.00       248.48
 1269.04        2955.00           2215          62.00       261.55
 1269.07        2955.25           2218          68.00       287.71
 1269.10        2955.50           2222          62.00       261.55
 1269.13        2955.75           2225          63.00       265.91
 1269.16        2956.00           2229          72.00       305.15
 1269.19        2956.25           2232          57.00       239.76
 1269.22        2956.50           2236          58.00       244.12
 1269.25        2956.75           2239          58.00       244.12
 1269.28        2957.00           2243          55.00       231.04
 1269.32        2957.25           2246          61.00       257.19
 1269.35        2957.50           2250          56.00       235.40
 1269.38        2957.75           2254          66.00       278.99
 1269.41        2958.00           2257          66.00       278.99
 1269.44        2958.25           2261          64.00       270.27
 1269.47        2958.50           2264          61.00       257.19
 1269.50        2958.75           2268          72.00       305.15
 1269.53        2959.00           2271          67.00       283.35
 1269.56        2959.25           2275          68.00       287.71
 1269.59        2959.50           2278          74.00       313.87
 1269.62        2959.75           2282          71.00       300.79
 1269.65        2960.00           2285          81.00       344.38
 1269.68        2960.25           2289          81.00       344.38
 1269.71        2960.50           2293          85.00       361.82
 1269.74        2960.75           2296          87.00       370.54
 1269.77        2961.00           2300         137.00       588.50
 1269.80        2961.25           2303         279.00      1207.55
 1269.83        2961.50           2307         904.00      3932.52
 1269.87        2961.75           2310        1504.00      6548.97
 1269.90        2962.00           2314        2462.00     10727.54
 1269.93        2962.25           2317        3217.00     14021.50
 1269.96        2962.50           2321        4127.00     17992.70
 1269.99        2962.75           2324        4980.00     21716.12
 1270.02        2963.00           2328        6050.00     26388.10
 1270.05        2963.25           2331        6884.00     30030.65
 1270.08        2963.50           2335        7959.00     34727.11
 1270.11        2963.75           2339        9026.00     39390.12
 1270.14        2964.00           2342        9744.00     42528.76
 1270.17        2964.25           2346       10677.00     46608.24
 1270.20        2964.50           2349       11516.00     50277.68
 1270.23        2964.75           2353       12539.00     54753.10
 1270.26        2965.00           2356       13255.00     57886.27
 1270.29        2965.25           2360       14227.00     62140.75
 1270.32        2965.50           2363       15180.00     66313.25
 1270.35        2965.75           2367       16151.00     70565.78
 1270.39        2966.00           2370       16611.00     72580.81
 1270.42        2966.25           2374       17996.00     78649.44
 1270.45        2966.50           2378       18474.00     80744.48
 1270.48        2966.75           2381       18415.00     80485.86
 1270.51        2967.00           2385       18459.00     80678.72
 1270.54        2967.25           2388       18445.00     80617.36
 1270.57        2967.50           2392       18448.00     80630.50
 1270.60        2967.75           2395       18168.00     79403.26
 1270.63        2968.00           2399       17563.00     76751.90
 1270.66        2968.25           2402       16828.00     73531.47
 1270.69        2968.50           2406       15771.00     68901.43
 1270.72        2968.75           2409       14987.00     65468.15
 1270.75        2969.00           2413       14102.00     61593.55
 1270.78        2969.25           2417       12824.00     56000.16
 1270.81        2969.50           2420       12028.00     52517.41
 1270.84        2969.75           2424       10783.00     47071.79
 1270.87        2970.00           2427        9963.00     43486.22
 1270.91        2970.25           2431        8774.00     38288.70
 1270.94        2970.50           2434        8065.00     35190.30
 1270.97        2970.75           2438        6998.00     30528.62
 1271.00        2971.00           2441        6193.00     27012.60
 1271.03        2971.25           2445        5063.00     22078.47
 1271.06        2971.50           2449        4097.00     17861.76
 1271.09        2971.75           2452        3404.00     14837.48
 1271.12        2972.00           2456        2365.00     10304.39
 1271.15        2972.25           2459        1585.00      6902.23
 1271.18        2972.50           2463         792.00      3444.17
 1271.21        2972.75           2466         376.00      1630.43
 1271.24        2973.00           2470         145.00       623.38
 1271.28        2973.25           2473         103.00       440.29
 1271.31        2973.50           2477          80.00       340.02
 1271.34        2973.75           2481          86.00       366.18
 1271.37        2974.00           2484          71.00       300.79
 1271.40        2974.25           2488          78.00       331.30
 1271.43        2974.50           2491          78.00       331.30
 1271.46        2974.75           2495          75.00       318.22
 1271.50        2975.00           2498          69.00       292.07
 1271.53        2975.25           2502          69.00       292.07
 1271.56        2975.50           2505          70.00       296.43
 1271.59        2975.75           2509          68.00       287.71
 1271.62        2976.00           2512          64.00       270.27
 1271.65        2976.25           2516          68.00       287.71
 1271.68        2976.50           2520          61.00       257.19
 1271.71        2976.75           2523          67.00       283.35
 1271.74        2977.00           2527          68.00       287.71
 1271.77        2977.25           2530          69.00       292.07
 1271.80        2977.50           2534          65.00       274.63
 1271.83        2977.75           2537          60.00       252.84
 1271.86        2978.00           2541          63.00       265.91
 1271.89        2978.25           2544          60.00       252.84
 1271.92        2978.50           2548          54.00       226.68
 1271.95        2978.75           2552          59.00       248.48
 1271.98        2979.00           2555          56.00       235.40
 1272.01        2979.25           2559          58.00       244.12
 1272.05        2979.50           2562          65.00       274.63
 1272.08        2979.75           2566          63.00       265.91
 1272.11        2980.00           2569          59.00       248.48
 1272.14        2980.25           2573          48.00       200.52
 1272.17        2980.50           2577          55.00       231.04
 1272.20        2980.75           2580          52.00       217.96
 1272.23        2981.00           2584          56.00       235.40
 1272.26        2981.25           2587          54.00       226.68
 1272.29        2981.50           2591          53.00       222.32
 1272.32        2981.75           2594          54.00       226.68
 1272.35        2982.00           2598          60.00       252.84
 1272.38        2982.25           2601          76.00       322.58
 1272.41        2982.50           2605          76.00       322.58
 1272.44        2982.75           2609          76.00       322.58
 1272.47        2983.00           2612          71.00       300.79
 1272.50        2983.25           2616          68.00       287.71
 1272.54        2983.50           2619          75.00       318.22
 1272.57        2983.75           2623          74.00       313.87
 1272.60        2984.00           2626          69.00       292.07
HS scan finished at 21:12:49
end
