************************************************************
  HS Scan of (1) Internal mercury lamp
************************************************************
Integration time is 0.2294 seconds per sample
dh260519Reading 51.44 .94 3.49pr1000
************************************************************
Dead Time -------------------------  3.4E-08 
Number of Cycles Used -------------  4 
Starting Wavelength (Angstroms) ---  2950 
Final Wavelength (Angstoms) -------  2984 
Wavelength Increment (Angstroms) --  .25 
Filter Wheel #1 Position ---------- (1) Ground quartz diffuser (ND=2.32)
Filter Wheel #2 Position ---------- (1) Neutral Density 0.494



************************************************************
HS scan start time = 01:04:54
Dark Count =  2.3 


Time (GMT)  Wavelength (Ang)  Step Number  Raw Counts  Counts/Second

   65.79        2950.00           2144        1353.00      5889.15
   65.98        2950.25           2147        1350.00      5876.07
   66.01        2950.50           2151        1385.00      6028.70
   66.05        2950.75           2155        1355.00      5897.87
   66.08        2951.00           2158        1357.00      5906.59
   66.11        2951.25           2162        1394.00      6067.95
   66.14        2951.50           2165        1347.00      5862.98
   66.17        2951.75           2169        1413.00      6150.81
   66.20        2952.00           2172        1375.00      5985.09
   66.23        2952.25           2176        1417.00      6168.25
   66.26        2952.50           2179        1449.00      6307.80
   66.29        2952.75           2183        1433.00      6238.03
   66.32        2953.00           2186        1401.00      6098.47
   66.35        2953.25           2190        1456.00      6338.33
   66.38        2953.50           2193        1388.00      6041.78
   66.41        2953.75           2197        1430.00      6224.94
   66.44        2954.00           2200        1469.00      6395.03
   66.47        2954.25           2204        1479.00      6438.64
   66.50        2954.50           2208        1491.00      6490.97
   66.53        2954.75           2211        1480.00      6443.00
   66.57        2955.00           2215        1457.00      6342.69
   66.60        2955.25           2218        1452.00      6320.89
   66.63        2955.50           2222        1509.00      6569.47
   66.66        2955.75           2225        1482.00      6451.72
   66.69        2956.00           2229        1516.00      6600.00
   66.72        2956.25           2232        1564.00      6809.34
   66.75        2956.50           2236        1535.00      6682.86
   66.78        2956.75           2239        1546.00      6730.83
   66.81        2957.00           2243        1583.00      6892.20
   66.84        2957.25           2246        1590.00      6922.73
   66.87        2957.50           2250        1578.00      6870.39
   66.90        2957.75           2254        1570.00      6835.50
   66.93        2958.00           2257        1620.00      7053.57
   66.96        2958.25           2261        1661.00      7232.38
   66.99        2958.50           2264        1659.00      7223.66
   67.02        2958.75           2268        1718.00      7480.98
   67.05        2959.00           2271        1664.00      7245.46
   67.09        2959.25           2275        1707.00      7433.00
   67.12        2959.50           2278        1803.00      7851.70
   67.15        2959.75           2282        1820.00      7925.85
   67.18        2960.00           2285        1819.00      7921.49
   67.21        2960.25           2289        1808.00      7873.51
   67.24        2960.50           2293        1859.00      8095.95
   67.27        2960.75           2296        2002.00      8719.67
   67.30        2961.00           2300        2474.00     10778.58
   67.33        2961.25           2303        4796.00     20911.55
   67.36        2961.50           2307       16133.00     70485.63
   67.39        2961.75           2310       30097.00    131777.90
   67.42        2962.00           2314       53608.00    235556.90
   67.45        2962.25           2317       72808.00    320855.70
   67.48        2962.50           2321       96363.00    426186.50
   67.51        2962.75           2324      114809.00    509205.20
   67.54        2963.00           2328      141520.00    630266.00
   67.57        2963.25           2331      163556.00    730902.60
   67.61        2963.50           2335      192180.00    862676.40
   67.64        2963.75           2339      218269.00    983832.90
   67.67        2964.00           2342      236735.00   1070206.00
   67.70        2964.25           2346      261650.00   1187570.00
   67.73        2964.50           2349      280486.00   1276937.00
   67.76        2964.75           2353      305750.00   1397681.00
   67.79        2965.00           2356      325292.00   1491779.00
   67.82        2965.25           2360      351058.00   1616800.00
   67.85        2965.50           2363      369166.00   1705322.00
   67.88        2965.75           2367      391251.00   1814035.00
   67.91        2966.00           2370      408815.00   1901089.00
   67.94        2966.25           2374      424150.00   1977534.00
   67.97        2966.50           2378      433112.00   2022401.00
   68.00        2966.75           2381      435771.00   2035740.00
   68.03        2967.00           2385      436422.00   2039008.00
   68.06        2967.25           2388      436482.00   2039309.00
   68.09        2967.50           2392      435263.00   2033191.00
   68.13        2967.75           2395      432198.00   2017819.00
   68.16        2968.00           2399      420277.00   1958189.00
   68.19        2968.25           2402      406202.00   1888104.00
   68.22        2968.50           2406      398892.00   1851841.00
   68.25        2968.75           2409      365141.00   1685598.00
   68.28        2969.00           2413      342003.00   1572739.00
   68.31        2969.25           2417      318875.00   1460812.00
   68.34        2969.50           2420      301575.00   1377657.00
   68.37        2969.75           2424      276718.00   1259015.00
   68.40        2970.00           2427      257800.00   1169372.00
   68.43        2970.25           2431      231442.00   1045396.00
   68.46        2970.50           2434      211209.00    950946.20
   68.49        2970.75           2438      183918.00    824518.30
   68.52        2971.00           2441      164040.00    733120.80
   68.55        2971.25           2445      137868.00    613654.70
   68.58        2971.50           2449      113158.00    501755.40
   68.61        2971.75           2452       95721.00    423305.60
   68.65        2972.00           2456       72013.00    317313.90
   68.68        2972.25           2459       53213.00    233807.30
   68.71        2972.50           2463       27318.00    119559.60
   68.74        2972.75           2466       12356.00     53951.10
   68.77        2973.00           2470        4163.00     18148.51
   68.80        2973.25           2473        2427.00     10573.55
   68.83        2973.50           2477        2057.00      8959.57
   68.86        2973.75           2481        1930.00      8405.63
   68.89        2974.00           2484        1898.00      8266.06
   68.92        2974.25           2488        1888.00      8222.44
   68.95        2974.50           2491        1771.00      7712.14
   68.98        2974.75           2495        1789.00      7790.64
   69.01        2975.00           2498        1802.00      7847.34
   69.04        2975.25           2502        1717.00      7476.62
   69.07        2975.50           2505        1717.00      7476.62
   69.10        2975.75           2509        1651.00      7188.77
   69.13        2976.00           2512        1639.00      7136.43
   69.17        2976.25           2516        1662.00      7236.74
   69.20        2976.50           2520        1636.00      7123.35
   69.23        2976.75           2523        1605.00      6988.15
   69.26        2977.00           2527        1565.00      6813.70
   69.29        2977.25           2530        1589.00      6918.37
   69.32        2977.50           2534        1525.00      6639.25
   69.35        2977.75           2537        1555.00      6770.08
   69.38        2978.00           2541        1522.00      6626.17
   69.41        2978.25           2544        1527.00      6647.97
   69.44        2978.50           2548        1522.00      6626.17
   69.47        2978.75           2552        1502.00      6538.94
   69.50        2979.00           2555        1508.00      6565.11
   69.53        2979.25           2559        1457.00      6342.69
   69.56        2979.50           2562        1431.00      6229.31
   69.59        2979.75           2566        1427.00      6211.86
   69.62        2980.00           2569        1431.00      6229.31
   69.65        2980.25           2573        1471.00      6403.75
   69.68        2980.50           2577        1412.00      6146.45
   69.72        2980.75           2580        1407.00      6124.64
   69.75        2981.00           2584        1415.00      6159.53
   69.78        2981.25           2587        1402.00      6102.84
   69.81        2981.50           2591        1382.00      6015.62
   69.84        2981.75           2594        1364.00      5937.12
   69.87        2982.00           2598        1363.00      5932.76
   69.90        2982.25           2601        1352.00      5884.79
   69.93        2982.50           2605        1326.00      5771.40
   69.96        2982.75           2609        1359.00      5915.31
   69.99        2983.00           2612        1354.00      5893.51
   70.02        2983.25           2616        1330.00      5788.85
   70.05        2983.50           2619        1340.00      5832.46
   70.08        2983.75           2623        1308.00      5692.91
   70.11        2984.00           2626        1326.00      5771.40
HS scan finished at 01:10:20
end
************************************************************
  HS Scan of (1) Internal mercury lamp
************************************************************
Integration time is 0.2294 seconds per sample
dh260519Reading 51.44 .94 3.47pr1000
************************************************************
Dead Time -------------------------  3.4E-08 
Number of Cycles Used -------------  4 
Starting Wavelength (Angstroms) ---  2950 
Final Wavelength (Angstoms) -------  2984 
Wavelength Increment (Angstroms) --  .25 
Filter Wheel #1 Position ---------- (1) Ground quartz diffuser (ND=2.32)
Filter Wheel #2 Position ---------- (1) Neutral Density 0.494



************************************************************
HS scan start time = 21:08:39
Dark Count =  2.5 


Time (GMT)  Wavelength (Ang)  Step Number  Raw Counts  Counts/Second

 1269.56        2950.00           2144        1214.00      5282.12
 1269.75        2950.25           2147        1205.00      5242.87
 1269.78        2950.50           2151        1256.00      5465.27
 1269.81        2950.75           2155        1263.00      5495.80
 1269.84        2951.00           2158        1235.00      5373.69
 1269.87        2951.25           2162        1267.00      5513.24
 1269.90        2951.50           2165        1240.00      5395.50
 1269.93        2951.75           2169        1248.00      5430.38
 1269.96        2952.00           2172        1271.00      5530.68
 1270.00        2952.25           2176        1269.00      5521.96
 1270.03        2952.50           2179        1251.00      5443.47
 1270.06        2952.75           2183        1266.00      5508.88
 1270.09        2953.00           2186        1290.00      5613.54
 1270.12        2953.25           2190        1280.00      5569.93
 1270.15        2953.50           2193        1309.00      5696.40
 1270.18        2953.75           2197        1306.00      5683.31
 1270.21        2954.00           2200        1301.00      5661.51
 1270.24        2954.25           2204        1324.00      5761.81
 1270.27        2954.50           2208        1300.00      5657.15
 1270.30        2954.75           2211        1308.00      5692.03
 1270.33        2955.00           2215        1340.00      5831.58
 1270.36        2955.25           2218        1298.00      5648.43
 1270.39        2955.50           2222        1334.00      5805.42
 1270.42        2955.75           2225        1352.00      5883.91
 1270.45        2956.00           2229        1351.00      5879.55
 1270.48        2956.25           2232        1359.00      5914.44
 1270.52        2956.50           2236        1358.00      5910.08
 1270.55        2956.75           2239        1347.00      5862.11
 1270.58        2957.00           2243        1400.00      6093.24
 1270.61        2957.25           2246        1389.00      6045.27
 1270.64        2957.50           2250        1431.00      6228.43
 1270.67        2957.75           2254        1429.00      6219.71
 1270.70        2958.00           2257        1454.00      6328.74
 1270.73        2958.25           2261        1427.00      6210.99
 1270.76        2958.50           2264        1442.00      6276.40
 1270.79        2958.75           2268        1518.00      6607.85
 1270.82        2959.00           2271        1542.00      6712.52
 1270.85        2959.25           2275        1511.00      6577.32
 1270.88        2959.50           2278        1552.00      6756.13
 1270.91        2959.75           2282        1533.00      6673.27
 1270.94        2960.00           2285        1596.00      6948.02
 1270.97        2960.25           2289        1678.00      7305.65
 1271.00        2960.50           2293        1697.00      7388.52
 1271.04        2960.75           2296        1685.00      7336.18
 1271.07        2961.00           2300        1853.00      8068.91
 1271.10        2961.25           2303        2257.00      9831.10
 1271.13        2961.50           2307        6514.00     28412.35
 1271.16        2961.75           2310       15111.00     66008.93
 1271.19        2962.00           2314       32154.00    140827.40
 1271.22        2962.25           2317       47038.00    206481.60
 1271.25        2962.50           2321       67681.00    298028.70
 1271.28        2962.75           2324       85062.00    375556.20
 1271.31        2963.00           2328      110101.00    487970.30
 1271.34        2963.25           2331      126787.00    563367.10
 1271.37        2963.50           2335      148548.00    662285.80
 1271.40        2963.75           2339      169279.00    757152.60
 1271.43        2964.00           2342      187093.00    839169.20
 1271.46        2964.25           2346      209838.00    944567.60
 1271.49        2964.50           2349      228590.00   1032044.00
 1271.52        2964.75           2353      250520.00   1135022.00
 1271.56        2965.00           2356      265346.00   1205061.00
 1271.59        2965.25           2360      286269.00   1304485.00
 1271.62        2965.50           2363      302513.00   1382152.00
 1271.65        2965.75           2367      322247.00   1477075.00
 1271.68        2966.00           2370      337648.00   1551595.00
 1271.71        2966.25           2374      358305.00   1652161.00
 1271.74        2966.50           2378      372198.00   1720197.00
 1271.77        2966.75           2381      376346.00   1740574.00
 1271.80        2967.00           2385      378767.00   1752480.00
 1271.83        2967.25           2388      379669.00   1756918.00
 1271.86        2967.50           2392      379361.00   1755403.00
 1271.89        2967.75           2395      379236.00   1754787.00
 1271.92        2968.00           2399      375312.00   1735491.00
 1271.95        2968.25           2402      365736.00   1688511.00
 1271.98        2968.50           2406      347714.00   1600512.00
 1272.01        2968.75           2409      334327.00   1535493.00
 1272.04        2969.00           2413      315334.00   1443751.00
 1272.07        2969.25           2417      295236.00   1347307.00
 1272.11        2969.50           2420      278111.00   1265637.00
 1272.14        2969.75           2424      255216.00   1157170.00
 1272.17        2970.00           2427      239263.00   1082070.00
 1272.20        2970.25           2431      215644.00    971595.60
 1272.23        2970.50           2434      199388.00    896047.90
 1272.26        2970.75           2438      176451.00    790117.10
 1272.29        2971.00           2441      158754.00    708911.90
 1272.32        2971.25           2445      134666.00    599104.90
 1272.35        2971.50           2449      110559.00    490034.60
 1272.38        2971.75           2452       92208.00    407550.40
 1272.41        2972.00           2456       68584.00    302046.40
 1272.44        2972.25           2459       52747.00    231742.50
 1272.47        2972.50           2463       32635.00    142944.60
 1272.50        2972.75           2466       19188.00     83872.23
 1272.53        2973.00           2470        6759.00     29482.46
 1272.56        2973.25           2473        3117.00     13582.99
 1272.59        2973.50           2477        1876.00      8169.23
 1272.63        2973.75           2481        1772.00      7715.63
 1272.66        2974.00           2484        1743.00      7589.14
 1272.69        2974.25           2488        1718.00      7480.11
 1272.72        2974.50           2491        1661.00      7231.51
 1272.75        2974.75           2495        1613.00      7022.16
 1272.78        2975.00           2498        1555.00      6769.21
 1272.81        2975.25           2502        1508.00      6564.24
 1272.84        2975.50           2505        1499.00      6524.99
 1272.87        2975.75           2509        1568.00      6825.91
 1272.90        2976.00           2512        1498.00      6520.63
 1272.93        2976.25           2516        1521.00      6620.93
 1272.96        2976.50           2520        1473.00      6411.60
 1272.99        2976.75           2523        1430.00      6224.07
 1273.02        2977.00           2527        1415.00      6158.66
 1273.05        2977.25           2530        1415.00      6158.66
 1273.08        2977.50           2534        1394.00      6067.08
 1273.11        2977.75           2537        1375.00      5984.22
 1273.15        2978.00           2541        1380.00      6006.02
 1273.18        2978.25           2544        1361.00      5923.16
 1273.21        2978.50           2548        1354.00      5892.64
 1273.24        2978.75           2552        1315.00      5722.56
 1273.27        2979.00           2555        1324.00      5761.81
 1273.30        2979.25           2559        1324.00      5761.81
 1273.33        2979.50           2562        1331.00      5792.34
 1273.36        2979.75           2566        1281.00      5574.29
 1273.39        2980.00           2569        1303.00      5670.23
 1273.42        2980.25           2573        1282.00      5578.65
 1273.45        2980.50           2577        1293.00      5626.62
 1273.48        2980.75           2580        1246.00      5421.66
 1273.51        2981.00           2584        1235.00      5373.69
 1273.54        2981.25           2587        1213.00      5277.76
 1273.57        2981.50           2591        1229.00      5347.53
 1273.60        2981.75           2594        1251.00      5443.47
 1273.63        2982.00           2598        1239.00      5391.14
 1273.67        2982.25           2601        1220.00      5308.28
 1273.70        2982.50           2605        1216.00      5290.84
 1273.73        2982.75           2609        1217.00      5295.20
 1273.76        2983.00           2612        1238.00      5386.78
 1273.79        2983.25           2616        1219.00      5303.92
 1273.82        2983.50           2619        1208.00      5255.95
 1273.85        2983.75           2623        1190.00      5177.46
 1273.88        2984.00           2626        1210.00      5264.67
HS scan finished at 21:14:06
end
