************************************************************
  HS Scan of (1) Internal mercury lamp
************************************************************
Integration time is 0.2294 seconds per sample
dh250518Reading 51.44 .94 3.41pr1000
************************************************************
Dead Time -------------------------  3.4E-08 
Number of Cycles Used -------------  4 
Starting Wavelength (Angstroms) ---  2950 
Final Wavelength (Angstoms) -------  2984 
Wavelength Increment (Angstroms) --  .25 
Filter Wheel #1 Position ---------- (1) Ground quartz diffuser (ND=2.32)
Filter Wheel #2 Position ---------- (1) Neutral Density 0.494



************************************************************
HS scan start time = 01:04:48
Dark Count =  1.9 


Time (GMT)  Wavelength (Ang)  Step Number  Raw Counts  Counts/Second

   65.70        2950.00           2144          81.00       344.82
   65.89        2950.25           2147          84.00       357.89
   65.92        2950.50           2151          76.00       323.02
   65.95        2950.75           2155          82.00       349.18
   65.98        2951.00           2158          78.00       331.74
   66.01        2951.25           2162          81.00       344.82
   66.04        2951.50           2165          84.00       357.89
   66.07        2951.75           2169          81.00       344.82
   66.10        2952.00           2172          75.00       318.66
   66.13        2952.25           2176          76.00       323.02
   66.17        2952.50           2179          80.00       340.46
   66.20        2952.75           2183          89.00       379.69
   66.23        2953.00           2186          82.00       349.18
   66.26        2953.25           2190          83.00       353.54
   66.30        2953.50           2193          81.00       344.82
   66.33        2953.75           2197          85.00       362.25
   66.36        2954.00           2200          77.00       327.38
   66.39        2954.25           2204          85.00       362.25
   66.43        2954.50           2208          85.00       362.25
   66.46        2954.75           2211          91.00       388.41
   66.49        2955.00           2215          83.00       353.54
   66.53        2955.25           2218          91.00       388.41
   66.56        2955.50           2222          92.00       392.77
   66.60        2955.75           2225          94.00       401.49
   66.63        2956.00           2229          91.00       388.41
   66.66        2956.25           2232          87.00       370.97
   66.69        2956.50           2236          99.00       423.28
   66.72        2956.75           2239          86.00       366.61
   66.75        2957.00           2243         108.00       462.52
   66.78        2957.25           2246          99.00       423.28
   66.81        2957.50           2250          93.00       397.13
   66.84        2957.75           2254         103.00       440.72
   66.87        2958.00           2257          94.00       401.49
   66.90        2958.25           2261          97.00       414.57
   66.93        2958.50           2264          96.00       410.21
   66.96        2958.75           2268         116.00       497.39
   66.99        2959.00           2271         118.00       506.11
   67.02        2959.25           2275         140.00       602.02
   67.05        2959.50           2278         122.00       523.55
   67.09        2959.75           2282         108.00       462.52
   67.12        2960.00           2285         106.00       453.80
   67.15        2960.25           2289         127.00       545.35
   67.18        2960.50           2293         116.00       497.39
   67.21        2960.75           2296         116.00       497.39
   67.24        2961.00           2300         170.00       732.80
   67.27        2961.25           2303         306.00      1325.69
   67.30        2961.50           2307        1083.00      4713.48
   67.33        2961.75           2310        2235.00      9737.75
   67.36        2962.00           2314        3942.00     17185.72
   67.39        2962.25           2317        5214.00     22738.15
   67.42        2962.50           2321        6795.00     29642.33
   67.45        2962.75           2324        7993.00     34876.12
   67.48        2963.00           2328        9738.00     42502.96
   67.51        2963.25           2331       11065.00     48305.52
   67.54        2963.50           2335       12829.00     56022.48
   67.57        2963.75           2339       14927.00     65205.87
   67.61        2964.00           2342       16167.00     70636.31
   67.64        2964.25           2346       18142.00     79289.76
   67.67        2964.50           2349       19451.00     85027.93
   67.70        2964.75           2353       21349.00     93352.06
   67.73        2965.00           2356       22680.00     99192.30
   67.76        2965.25           2360       24131.00    105561.70
   67.79        2965.50           2363       25407.00    111165.20
   67.82        2965.75           2367       27277.00    119381.10
   67.85        2966.00           2370       28668.00    125495.50
   67.88        2966.25           2374       30077.00    131691.60
   67.91        2966.50           2378       30764.00    134713.70
   67.94        2966.75           2381       31126.00    136306.40
   67.97        2967.00           2385       31175.00    136521.90
   68.00        2967.25           2388       31224.00    136737.50
   68.03        2967.50           2392       31084.00    136121.60
   68.06        2967.75           2395       30767.00    134726.90
   68.09        2968.00           2399       30066.00    131643.30
   68.12        2968.25           2402       28800.00    126075.90
   68.16        2968.50           2406       26956.00    117970.50
   68.19        2968.75           2409       25700.00    112452.20
   68.22        2969.00           2413       23847.00    104314.80
   68.25        2969.25           2417       22099.00     96642.66
   68.28        2969.50           2420       20824.00     91049.08
   68.31        2969.75           2424       18862.00     82445.70
   68.34        2970.00           2427       17331.00     75735.75
   68.37        2970.25           2431       15465.00     67561.74
   68.40        2970.50           2434       14330.00     62592.09
   68.43        2970.75           2438       12355.00     53948.47
   68.46        2971.00           2441       10813.00     47203.42
   68.49        2971.25           2445        8973.00     39158.90
   68.52        2971.50           2449        7266.00     31699.80
   68.55        2971.75           2452        6035.00     26323.03
   68.58        2972.00           2456        4379.00     19093.04
   68.61        2972.25           2459        3101.00     13515.80
   68.64        2972.50           2463        1475.00      6422.94
   68.68        2972.75           2466         639.00      2777.51
   68.71        2973.00           2470         232.00      1003.09
   68.74        2973.25           2473         145.00       623.81
   68.77        2973.50           2477         144.00       619.46
   68.80        2973.75           2481         122.00       523.55
   68.83        2974.00           2484         132.00       567.14
   68.86        2974.25           2488         118.00       506.11
   68.89        2974.50           2491         116.00       497.39
   68.92        2974.75           2495         114.00       488.67
   68.95        2975.00           2498         131.00       562.78
   68.98        2975.25           2502         118.00       506.11
   69.01        2975.50           2505         101.00       432.00
   69.04        2975.75           2509         102.00       436.36
   69.07        2976.00           2512         104.00       445.08
   69.10        2976.25           2516          97.00       414.57
   69.13        2976.50           2520         117.00       501.75
   69.16        2976.75           2523         100.00       427.64
   69.20        2977.00           2527          95.00       405.85
   69.23        2977.25           2530          94.00       401.49
   69.26        2977.50           2534          99.00       423.28
   69.29        2977.75           2537         112.00       479.96
   69.32        2978.00           2541          95.00       405.85
   69.35        2978.25           2544          97.00       414.57
   69.38        2978.50           2548         105.00       449.44
   69.41        2978.75           2552         100.00       427.64
   69.44        2979.00           2555          89.00       379.69
   69.47        2979.25           2559          90.00       384.05
   69.50        2979.50           2562          88.00       375.33
   69.53        2979.75           2566          94.00       401.49
   69.56        2980.00           2569          81.00       344.82
   69.59        2980.25           2573          92.00       392.77
   69.62        2980.50           2577          88.00       375.33
   69.65        2980.75           2580          82.00       349.18
   69.68        2981.00           2584         101.00       432.00
   69.72        2981.25           2587          87.00       370.97
   69.75        2981.50           2591          85.00       362.25
   69.78        2981.75           2594          87.00       370.97
   69.81        2982.00           2598          88.00       375.33
   69.84        2982.25           2601          83.00       353.54
   69.87        2982.50           2605          90.00       384.05
   69.90        2982.75           2609          84.00       357.89
   69.93        2983.00           2612          81.00       344.82
   69.96        2983.25           2616          82.00       349.18
   69.99        2983.50           2619          83.00       353.54
   70.02        2983.75           2623          81.00       344.82
   70.05        2984.00           2626          85.00       362.25
HS scan finished at 01:10:16
end
************************************************************
  HS Scan of (1) Internal mercury lamp
************************************************************
Integration time is 0.2294 seconds per sample
dh250518Reading 51.44 .94 3.6pr1000
************************************************************
Dead Time -------------------------  3.4E-08 
Number of Cycles Used -------------  4 
Starting Wavelength (Angstroms) ---  2950 
Final Wavelength (Angstoms) -------  2984 
Wavelength Increment (Angstroms) --  .25 
Filter Wheel #1 Position ---------- (1) Ground quartz diffuser (ND=2.32)
Filter Wheel #2 Position ---------- (1) Neutral Density 0.494



************************************************************
HS scan start time = 21:07:22
Dark Count =  3.3 


Time (GMT)  Wavelength (Ang)  Step Number  Raw Counts  Counts/Second

 1268.26        2950.00           2144          77.00       321.28
 1268.45        2950.25           2147          83.00       347.43
 1268.48        2950.50           2151          86.00       360.51
 1268.51        2950.75           2155          81.00       338.71
 1268.54        2951.00           2158          83.00       347.43
 1268.57        2951.25           2162          81.00       338.71
 1268.60        2951.50           2165          78.00       325.64
 1268.63        2951.75           2169          84.00       351.79
 1268.66        2952.00           2172          70.00       290.76
 1268.70        2952.25           2176          75.00       312.56
 1268.73        2952.50           2179          75.00       312.56
 1268.76        2952.75           2183          77.00       321.28
 1268.79        2953.00           2186          87.00       364.87
 1268.82        2953.25           2190          88.00       369.23
 1268.85        2953.50           2193          82.00       343.07
 1268.88        2953.75           2197          83.00       347.43
 1268.91        2954.00           2200          89.00       373.59
 1268.94        2954.25           2204          85.00       356.15
 1268.97        2954.50           2208          90.00       377.95
 1269.00        2954.75           2211          87.00       364.87
 1269.03        2955.00           2215          88.00       369.23
 1269.06        2955.25           2218          84.00       351.79
 1269.09        2955.50           2222          82.00       343.07
 1269.12        2955.75           2225          86.00       360.51
 1269.15        2956.00           2229          84.00       351.79
 1269.18        2956.25           2232          83.00       347.43
 1269.22        2956.50           2236         103.00       434.62
 1269.25        2956.75           2239          94.00       395.38
 1269.28        2957.00           2243          92.00       386.67
 1269.31        2957.25           2246          95.00       399.74
 1269.34        2957.50           2250          93.00       391.03
 1269.37        2957.75           2254          85.00       356.15
 1269.40        2958.00           2257          90.00       377.95
 1269.43        2958.25           2261          94.00       395.38
 1269.46        2958.50           2264          90.00       377.95
 1269.49        2958.75           2268          89.00       373.59
 1269.52        2959.00           2271         132.00       561.04
 1269.55        2959.25           2275         103.00       434.62
 1269.58        2959.50           2278          96.00       404.10
 1269.61        2959.75           2282         103.00       434.62
 1269.64        2960.00           2285         124.00       526.16
 1269.67        2960.25           2289         112.00       473.85
 1269.70        2960.50           2293         131.00       556.68
 1269.73        2960.75           2296         114.00       482.57
 1269.77        2961.00           2300         131.00       556.68
 1269.80        2961.25           2303         270.00      1162.64
 1269.83        2961.50           2307        1054.00      4580.92
 1269.86        2961.75           2310        2128.00      9264.91
 1269.89        2962.00           2314        3565.00     15534.36
 1269.92        2962.25           2317        4668.00     20348.43
 1269.95        2962.50           2321        6194.00     27011.28
 1269.98        2962.75           2324        7470.00     32584.91
 1270.01        2963.00           2328        9288.00     40529.66
 1270.04        2963.25           2331       10675.00     46593.82
 1270.07        2963.50           2335       12272.00     53579.21
 1270.10        2963.75           2339       13949.00     60918.12
 1270.13        2964.00           2342       15272.00     66710.43
 1270.16        2964.25           2346       17199.00     75151.24
 1270.19        2964.50           2349       18408.00     80449.49
 1270.22        2964.75           2353       20280.00     88656.99
 1270.26        2965.00           2356       21390.00     93525.78
 1270.29        2965.25           2360       23270.00    101775.70
 1270.32        2965.50           2363       24374.00    106622.50
 1270.35        2965.75           2367       25999.00    113759.60
 1270.38        2966.00           2370       26875.00    117608.40
 1270.41        2966.25           2374       28258.00    123686.90
 1270.44        2966.50           2378       28784.00    125999.40
 1270.47        2966.75           2381       29287.00    128211.10
 1270.50        2967.00           2385       29372.00    128584.90
 1270.53        2967.25           2388       29523.00    129249.00
 1270.56        2967.50           2392       29256.00    128074.80
 1270.59        2967.75           2395       28973.00    126830.40
 1270.62        2968.00           2399       28234.00    123581.40
 1270.65        2968.25           2402       27176.00    118931.10
 1270.68        2968.50           2406       25317.00    110763.80
 1270.71        2968.75           2409       24185.00    105792.70
 1270.74        2969.00           2413       22484.00     98325.99
 1270.77        2969.25           2417       21092.00     92218.50
 1270.81        2969.50           2420       19852.00     86780.08
 1270.84        2969.75           2424       18314.00     80037.47
 1270.87        2970.00           2427       16638.00     72693.40
 1270.90        2970.25           2431       14954.00     65317.96
 1270.93        2970.50           2434       13739.00     59998.91
 1270.96        2970.75           2438       12032.00     52529.22
 1270.99        2971.00           2441       10882.00     47499.06
 1271.02        2971.25           2445        9259.00     40402.89
 1271.05        2971.50           2449        7729.00     33716.49
 1271.08        2971.75           2452        6375.00     27801.77
 1271.11        2972.00           2456        4645.00     20248.02
 1271.14        2972.25           2459        3327.00     14495.81
 1271.17        2972.50           2463        1827.00      7952.02
 1271.20        2972.75           2466         929.00      4035.86
 1271.23        2973.00           2470         299.00      1289.07
 1271.26        2973.25           2473         164.00       700.54
 1271.29        2973.50           2477         166.00       709.26
 1271.33        2973.75           2481         109.00       460.77
 1271.36        2974.00           2484         112.00       473.85
 1271.39        2974.25           2488         118.00       500.01
 1271.42        2974.50           2491         130.00       552.32
 1271.45        2974.75           2495         106.00       447.70
 1271.48        2975.00           2498         126.00       534.88
 1271.51        2975.25           2502          92.00       386.67
 1271.54        2975.50           2505          95.00       399.74
 1271.57        2975.75           2509          94.00       395.38
 1271.60        2976.00           2512         114.00       482.57
 1271.63        2976.25           2516          96.00       404.10
 1271.66        2976.50           2520          87.00       364.87
 1271.69        2976.75           2523          87.00       364.87
 1271.72        2977.00           2527          93.00       391.03
 1271.75        2977.25           2530          94.00       395.38
 1271.78        2977.50           2534          92.00       386.67
 1271.81        2977.75           2537          87.00       364.87
 1271.85        2978.00           2541          87.00       364.87
 1271.88        2978.25           2544          86.00       360.51
 1271.91        2978.50           2548          87.00       364.87
 1271.94        2978.75           2552          78.00       325.64
 1271.97        2979.00           2555          86.00       360.51
 1272.00        2979.25           2559          85.00       356.15
 1272.03        2979.50           2562          73.00       303.84
 1272.06        2979.75           2566          81.00       338.71
 1272.09        2980.00           2569          87.00       364.87
 1272.12        2980.25           2573          82.00       343.07
 1272.15        2980.50           2577          80.00       334.35
 1272.18        2980.75           2580          81.00       338.71
 1272.21        2981.00           2584          80.00       334.35
 1272.24        2981.25           2587          79.00       329.99
 1272.27        2981.50           2591          79.00       329.99
 1272.30        2981.75           2594          83.00       347.43
 1272.33        2982.00           2598          84.00       351.79
 1272.37        2982.25           2601          71.00       295.12
 1272.40        2982.50           2605          79.00       329.99
 1272.43        2982.75           2609          79.00       329.99
 1272.46        2983.00           2612          69.00       286.40
 1272.49        2983.25           2616          72.00       299.48
 1272.52        2983.50           2619          80.00       334.35
 1272.55        2983.75           2623          85.00       356.15
 1272.58        2984.00           2626          72.00       299.48
HS scan finished at 21:12:48
end
