************************************************************
  HS Scan of (1) Internal mercury lamp
************************************************************
Integration time is 0.2294 seconds per sample
dh240519Reading 51.44 .94 3.25pr1000
************************************************************
Dead Time -------------------------  3.4E-08 
Number of Cycles Used -------------  4 
Starting Wavelength (Angstroms) ---  2950 
Final Wavelength (Angstoms) -------  2984 
Wavelength Increment (Angstroms) --  .25 
Filter Wheel #1 Position ---------- (1) Ground quartz diffuser (ND=2.32)
Filter Wheel #2 Position ---------- (1) Neutral Density 0.494



************************************************************
HS scan start time = 01:26:46
Dark Count =  1.2 


Time (GMT)  Wavelength (Ang)  Step Number  Raw Counts  Counts/Second

   87.67        2950.00           2144        1329.00      5789.28
   87.86        2950.25           2147        1334.00      5811.09
   87.89        2950.50           2151        1366.00      5950.64
   87.92        2950.75           2155        1323.00      5763.12
   87.95        2951.00           2158        1346.00      5863.42
   87.98        2951.25           2162        1313.00      5719.51
   88.01        2951.50           2165        1333.00      5806.73
   88.04        2951.75           2169        1387.00      6042.22
   88.07        2952.00           2172        1367.00      5955.00
   88.10        2952.25           2176        1412.00      6151.24
   88.13        2952.50           2179        1372.00      5976.80
   88.17        2952.75           2183        1407.00      6129.44
   88.20        2953.00           2186        1407.00      6129.44
   88.23        2953.25           2190        1453.00      6330.05
   88.26        2953.50           2193        1414.00      6159.97
   88.29        2953.75           2197        1460.00      6360.57
   88.32        2954.00           2200        1457.00      6347.49
   88.35        2954.25           2204        1470.00      6404.18
   88.38        2954.50           2208        1491.00      6495.77
   88.41        2954.75           2211        1513.00      6591.71
   88.44        2955.00           2215        1546.00      6735.63
   88.47        2955.25           2218        1546.00      6735.63
   88.50        2955.50           2222        1566.00      6822.86
   88.53        2955.75           2225        1560.00      6796.69
   88.56        2956.00           2229        1628.00      7093.25
   88.59        2956.25           2232        1578.00      6875.19
   88.62        2956.50           2236        1590.00      6927.53
   88.65        2956.75           2239        1570.00      6840.30
   88.68        2957.00           2243        1645.00      7167.40
   88.72        2957.25           2246        1631.00      7106.34
   88.75        2957.50           2250        1655.00      7211.01
   88.78        2957.75           2254        1674.00      7293.88
   88.81        2958.00           2257        1663.00      7245.90
   88.84        2958.25           2261        1707.00      7437.80
   88.87        2958.50           2264        1737.00      7568.64
   88.90        2958.75           2268        1712.00      7459.61
   88.93        2959.00           2271        1765.00      7690.76
   88.96        2959.25           2275        1803.00      7856.50
   88.99        2959.50           2278        1780.00      7756.19
   89.02        2959.75           2282        1828.00      7965.54
   89.05        2960.00           2285        1854.00      8078.94
   89.08        2960.25           2289        1911.00      8327.55
   89.11        2960.50           2293        1977.00      8615.43
   89.14        2960.75           2296        1990.00      8672.13
   89.17        2961.00           2300        2443.00     10648.15
   89.20        2961.25           2303        4412.00     19240.13
   89.24        2961.50           2307       15387.00     67223.22
   89.27        2961.75           2310       29427.00    128836.00
   89.30        2962.00           2314       49109.00    215646.00
   89.33        2962.25           2317       66910.00    294604.90
   89.36        2962.50           2321       93563.00    413630.80
   89.39        2962.75           2324      114268.00    506768.50
   89.42        2963.00           2328      142008.00    632492.10
   89.45        2963.25           2331      162473.00    725945.30
   89.48        2963.50           2335      187197.00    839655.30
   89.51        2963.75           2339      215445.00    970674.40
   89.54        2964.00           2342      236958.00   1071258.00
   89.57        2964.25           2346      264919.00   1203045.00
   89.60        2964.50           2349      284412.00   1295639.00
   89.63        2964.75           2353      308054.00   1408748.00
   89.66        2965.00           2356      326419.00   1497230.00
   89.69        2965.25           2360      351093.00   1616976.00
   89.72        2965.50           2363      369209.00   1705538.00
   89.76        2965.75           2367      392600.00   1820708.00
   89.79        2966.00           2370      407958.00   1896835.00
   89.82        2966.25           2374      427276.00   1993174.00
   89.85        2966.50           2378      438785.00   2050881.00
   89.88        2966.75           2381      440087.00   2057425.00
   89.92        2967.00           2385      440321.00   2058601.00
   89.95        2967.25           2388      440637.00   2060190.00
   89.98        2967.50           2392      439479.00   2054369.00
   90.01        2967.75           2395      436833.00   2041077.00
   90.04        2968.00           2399      423591.00   1974746.00
   90.07        2968.25           2402      407924.00   1896666.00
   90.10        2968.50           2406      386695.00   1791545.00
   90.13        2968.75           2409      371778.00   1718142.00
   90.16        2969.00           2413      349031.00   1606931.00
   90.19        2969.25           2417      322437.00   1477999.00
   90.23        2969.50           2420      302516.00   1382173.00
   90.26        2969.75           2424      276554.00   1258241.00
   90.29        2970.00           2427      256093.00   1161316.00
   90.32        2970.25           2431      231507.00   1045706.00
   90.35        2970.50           2434      212447.00    956712.80
   90.38        2970.75           2438      185117.00    830054.60
   90.41        2971.00           2441      165152.00    738223.50
   90.44        2971.25           2445      140482.00    625547.70
   90.47        2971.50           2449      115755.00    513480.50
   90.50        2971.75           2452       96009.00    424602.70
   90.53        2972.00           2456       67904.00    299026.50
   90.56        2972.25           2459       49127.00    215725.60
   90.59        2972.50           2463       27582.00    120724.70
   90.62        2972.75           2466       14152.00     61815.92
   90.65        2973.00           2470        4830.00     21064.78
   90.68        2973.25           2473        2590.00     11289.43
   90.71        2973.50           2477        2104.00      9169.38
   90.75        2973.75           2481        1992.00      8680.85
   90.78        2974.00           2484        2009.00      8755.00
   90.81        2974.25           2488        1918.00      8358.09
   90.84        2974.50           2491        1914.00      8340.64
   90.87        2974.75           2495        1842.00      8026.60
   90.90        2975.00           2498        1822.00      7939.37
   90.93        2975.25           2502        1798.00      7834.69
   90.96        2975.50           2505        1804.00      7860.86
   90.99        2975.75           2509        1722.00      7503.22
   91.02        2976.00           2512        1777.00      7743.10
   91.05        2976.25           2516        1758.00      7660.23
   91.08        2976.50           2520        1711.00      7455.25
   91.11        2976.75           2523        1695.00      7385.46
   91.14        2977.00           2527        1664.00      7250.26
   91.17        2977.25           2530        1644.00      7163.03
   91.20        2977.50           2534        1607.00      7001.67
   91.23        2977.75           2537        1615.00      7036.56
   91.27        2978.00           2541        1588.00      6918.80
   91.30        2978.25           2544        1580.00      6883.91
   91.33        2978.50           2548        1532.00      6674.58
   91.36        2978.75           2552        1560.00      6796.69
   91.39        2979.00           2555        1555.00      6774.88
   91.42        2979.25           2559        1513.00      6591.71
   91.45        2979.50           2562        1505.00      6556.82
   91.48        2979.75           2566        1469.00      6399.82
   91.51        2980.00           2569        1467.00      6391.10
   91.54        2980.25           2573        1462.00      6369.30
   91.57        2980.50           2577        1488.00      6482.68
   91.60        2980.75           2580        1479.00      6443.43
   91.63        2981.00           2584        1493.00      6504.49
   91.66        2981.25           2587        1463.00      6373.66
   91.69        2981.50           2591        1440.00      6273.35
   91.72        2981.75           2594        1445.00      6295.16
   91.75        2982.00           2598        1473.00      6417.27
   91.79        2982.25           2601        1453.00      6330.05
   91.82        2982.50           2605        1416.00      6168.69
   91.85        2982.75           2609        1422.00      6194.85
   91.88        2983.00           2612        1413.00      6155.60
   91.91        2983.25           2616        1394.00      6072.74
   91.94        2983.50           2619        1400.00      6098.91
   91.97        2983.75           2623        1380.00      6011.69
   92.00        2984.00           2626        1381.00      6016.05
HS scan finished at 01:32:13
end
************************************************************
  HS Scan of (1) Internal mercury lamp
************************************************************
Integration time is 0.2294 seconds per sample
dh240519Reading 51.44 .94 3.54pr1000
************************************************************
Dead Time -------------------------  3.4E-08 
Number of Cycles Used -------------  4 
Starting Wavelength (Angstroms) ---  2950 
Final Wavelength (Angstoms) -------  2984 
Wavelength Increment (Angstroms) --  .25 
Filter Wheel #1 Position ---------- (1) Ground quartz diffuser (ND=2.32)
Filter Wheel #2 Position ---------- (1) Neutral Density 0.494



************************************************************
HS scan start time = 21:08:38
Dark Count =  3.1 


Time (GMT)  Wavelength (Ang)  Step Number  Raw Counts  Counts/Second

 1269.53        2950.00           2144        1172.00      5096.35
 1269.72        2950.25           2147        1184.00      5148.68
 1269.75        2950.50           2151        1210.00      5262.06
 1269.78        2950.75           2155        1191.00      5179.20
 1269.82        2951.00           2158        1213.00      5275.14
 1269.85        2951.25           2162        1200.00      5218.45
 1269.88        2951.50           2165        1157.00      5030.94
 1269.91        2951.75           2169        1221.00      5310.03
 1269.94        2952.00           2172        1201.00      5222.81
 1269.97        2952.25           2176        1206.00      5244.61
 1270.00        2952.50           2179        1209.00      5257.70
 1270.03        2952.75           2183        1202.00      5227.17
 1270.06        2953.00           2186        1216.00      5288.22
 1270.09        2953.25           2190        1229.00      5344.91
 1270.12        2953.50           2193        1259.00      5475.74
 1270.15        2953.75           2197        1240.00      5392.88
 1270.18        2954.00           2200        1240.00      5392.88
 1270.21        2954.25           2204        1266.00      5506.26
 1270.24        2954.50           2208        1258.00      5471.38
 1270.27        2954.75           2211        1261.00      5484.46
 1270.30        2955.00           2215        1304.00      5671.97
 1270.34        2955.25           2218        1264.00      5497.54
 1270.37        2955.50           2222        1288.00      5602.20
 1270.40        2955.75           2225        1304.00      5671.97
 1270.43        2956.00           2229        1298.00      5645.81
 1270.46        2956.25           2232        1295.00      5632.73
 1270.49        2956.50           2236        1307.00      5685.06
 1270.52        2956.75           2239        1347.00      5859.49
 1270.55        2957.00           2243        1338.00      5820.25
 1270.58        2957.25           2246        1348.00      5863.85
 1270.61        2957.50           2250        1361.00      5920.55
 1270.64        2957.75           2254        1391.00      6051.38
 1270.67        2958.00           2257        1386.00      6029.57
 1270.70        2958.25           2261        1426.00      6204.01
 1270.73        2958.50           2264        1431.00      6225.82
 1270.76        2958.75           2268        1505.00      6548.54
 1270.79        2959.00           2271        1469.00      6391.54
 1270.82        2959.25           2275        1486.00      6465.68
 1270.86        2959.50           2278        1524.00      6631.40
 1270.89        2959.75           2282        1544.00      6718.62
 1270.92        2960.00           2285        1538.00      6692.46
 1270.95        2960.25           2289        1616.00      7032.63
 1270.98        2960.50           2293        1616.00      7032.63
 1271.01        2960.75           2296        1686.00      7337.93
 1271.04        2961.00           2300        1775.00      7726.09
 1271.07        2961.25           2303        2578.00     11228.79
 1271.10        2961.50           2307        9075.00     39599.49
 1271.13        2961.75           2310       19713.00     86171.46
 1271.16        2962.00           2314       37813.00    165752.30
 1271.19        2962.25           2317       53194.00    233719.50
 1271.22        2962.50           2321       73997.00    326150.80
 1271.25        2962.75           2324       88816.00    392352.20
 1271.28        2963.00           2328      110075.00    487850.40
 1271.31        2963.25           2331      126561.00    562340.50
 1271.34        2963.50           2335      150829.00    672690.80
 1271.38        2963.75           2339      173673.00    777337.00
 1271.41        2964.00           2342      190013.00    852654.60
 1271.44        2964.25           2346      208220.00    937041.80
 1271.47        2964.50           2349      224015.00   1010650.00
 1271.50        2964.75           2353      247130.00   1119053.00
 1271.53        2965.00           2356      265385.00   1205243.00
 1271.56        2965.25           2360      287492.00   1310315.00
 1271.59        2965.50           2363      301987.00   1379628.00
 1271.62        2965.75           2367      320708.00   1469647.00
 1271.65        2966.00           2370      336109.00   1544128.00
 1271.68        2966.25           2374      355055.00   1636289.00
 1271.71        2966.50           2378      368956.00   1704288.00
 1271.74        2966.75           2381      373705.00   1727594.00
 1271.77        2967.00           2385      374995.00   1733931.00
 1271.80        2967.25           2388      375819.00   1737980.00
 1271.83        2967.50           2392      375142.00   1734653.00
 1271.86        2967.75           2395      374903.00   1733479.00
 1271.90        2968.00           2399      369869.00   1708766.00
 1271.93        2968.25           2402      361575.00   1668142.00
 1271.96        2968.50           2406      344257.00   1583690.00
 1271.99        2968.75           2409      329139.00   1510373.00
 1272.02        2969.00           2413      307576.00   1406443.00
 1272.05        2969.25           2417      286387.00   1305045.00
 1272.08        2969.50           2420      270034.00   1227276.00
 1272.11        2969.75           2424      247990.00   1123102.00
 1272.14        2970.00           2427      231642.00   1046329.00
 1272.17        2970.25           2431      206566.00    929355.40
 1272.20        2970.50           2434      187874.00    842772.80
 1272.23        2970.75           2438      164767.00    736449.80
 1272.26        2971.00           2441      148828.00    663560.30
 1272.29        2971.25           2445      126983.00    564252.30
 1272.32        2971.50           2449      104563.00    463029.70
 1272.35        2971.75           2452       87817.00    387880.00
 1272.38        2972.00           2456       67088.00    295388.10
 1272.41        2972.25           2459       49716.00    218323.00
 1272.45        2972.50           2463       27720.00    121322.90
 1272.48        2972.75           2466       14181.00     61934.56
 1272.51        2973.00           2470        4721.00     20580.66
 1272.54        2973.25           2473        2446.00     10652.94
 1272.57        2973.50           2477        1811.00      7883.11
 1272.60        2973.75           2481        1703.00      7412.07
 1272.63        2974.00           2484        1676.00      7294.31
 1272.66        2974.25           2488        1627.00      7080.61
 1272.69        2974.50           2491        1598.00      6954.13
 1272.72        2974.75           2495        1571.00      6836.38
 1272.75        2975.00           2498        1530.00      6657.57
 1272.78        2975.25           2502        1506.00      6552.90
 1272.82        2975.50           2505        1526.00      6640.12
 1272.86        2975.75           2509        1465.00      6374.09
 1272.89        2976.00           2512        1433.00      6234.54
 1272.92        2976.25           2516        1463.00      6365.37
 1272.95        2976.50           2520        1423.00      6190.93
 1272.98        2976.75           2523        1398.00      6081.90
 1273.01        2977.00           2527        1390.00      6047.02
 1273.04        2977.25           2530        1353.00      5885.66
 1273.07        2977.50           2534        1320.00      5741.75
 1273.10        2977.75           2537        1314.00      5715.58
 1273.13        2978.00           2541        1327.00      5772.28
 1273.16        2978.25           2544        1305.00      5676.34
 1273.20        2978.50           2548        1308.00      5689.42
 1273.23        2978.75           2552        1312.00      5706.86
 1273.26        2979.00           2555        1286.00      5593.48
 1273.29        2979.25           2559        1278.00      5558.59
 1273.32        2979.50           2562        1231.00      5353.63
 1273.35        2979.75           2566        1255.00      5458.29
 1273.38        2980.00           2569        1242.00      5401.60
 1273.41        2980.25           2573        1264.00      5497.54
 1273.44        2980.50           2577        1218.00      5296.94
 1273.47        2980.75           2580        1235.00      5371.08
 1273.50        2981.00           2584        1227.00      5336.19
 1273.53        2981.25           2587        1223.00      5318.75
 1273.56        2981.50           2591        1190.00      5174.84
 1273.59        2981.75           2594        1178.00      5122.51
 1273.62        2982.00           2598        1207.00      5248.98
 1273.65        2982.25           2601        1184.00      5148.68
 1273.68        2982.50           2605        1191.00      5179.20
 1273.71        2982.75           2609        1164.00      5061.46
 1273.75        2983.00           2612        1165.00      5065.82
 1273.78        2983.25           2616        1155.00      5022.22
 1273.81        2983.50           2619        1167.00      5074.55
 1273.84        2983.75           2623        1172.00      5096.35
 1273.87        2984.00           2626        1158.00      5035.30
HS scan finished at 21:14:06
end
