************************************************************
  HS Scan of 
************************************************************
Integration time is 0.2294 seconds per sample
dh260517Reading 51.44 .94 3.37pr1000
************************************************************
Dead Time -------------------------  3.4E-08 
Number of Cycles Used -------------  4 
Starting Wavelength (Angstroms) ---  2950 
Final Wavelength (Angstoms) -------  2984 
Wavelength Increment (Angstroms) --  .25 
Filter Wheel #1 Position ---------- (1) Ground quartz diffuser (ND=2.32)
Filter Wheel #2 Position ---------- (1) Neutral Density 0.494



************************************************************
HS scan start time = 01:05:01
Dark Count =  1.8 


Time (GMT)  Wavelength (Ang)  Step Number  Raw Counts  Counts/Second

   65.92        2950.00           2144         485.00      2106.52
   66.12        2950.25           2147         485.00      2106.52
   66.15        2950.50           2151         492.00      2137.03
   66.18        2950.75           2155         466.00      2023.68
   66.21        2951.00           2158         479.00      2080.36
   66.24        2951.25           2162         502.00      2180.63
   66.27        2951.50           2165         468.00      2032.40
   66.30        2951.75           2169         495.00      2150.11
   66.33        2952.00           2172         492.00      2137.03
   66.36        2952.25           2176         491.00      2132.67
   66.39        2952.50           2179         498.00      2163.19
   66.42        2952.75           2183         534.00      2320.15
   66.45        2953.00           2186         502.00      2180.63
   66.48        2953.25           2190         489.00      2123.95
   66.51        2953.50           2193         498.00      2163.19
   66.54        2953.75           2197         522.00      2267.83
   66.57        2954.00           2200         520.00      2259.11
   66.60        2954.25           2204         492.00      2137.03
   66.64        2954.50           2208         545.00      2368.11
   66.67        2954.75           2211         538.00      2337.59
   66.70        2955.00           2215         549.00      2385.55
   66.73        2955.25           2218         521.00      2263.47
   66.76        2955.50           2222         550.00      2389.91
   66.79        2955.75           2225         539.00      2341.95
   66.82        2956.00           2229         540.00      2346.31
   66.85        2956.25           2232         529.00      2298.35
   66.88        2956.50           2236         564.00      2450.95
   66.91        2956.75           2239         587.00      2551.22
   66.94        2957.00           2243         554.00      2407.35
   66.97        2957.25           2246         575.00      2498.90
   67.00        2957.50           2250         591.00      2568.66
   67.04        2957.75           2254         570.00      2477.11
   67.07        2958.00           2257         588.00      2555.58
   67.10        2958.25           2261         577.00      2507.62
   67.13        2958.50           2264         601.00      2612.26
   67.16        2958.75           2268         570.00      2477.11
   67.19        2959.00           2271         596.00      2590.46
   67.22        2959.25           2275         603.00      2620.98
   67.25        2959.50           2278         626.00      2721.26
   67.28        2959.75           2282         651.00      2830.26
   67.31        2960.00           2285         677.00      2943.63
   67.35        2960.25           2289         684.00      2974.15
   67.38        2960.50           2293         708.00      3078.79
   67.41        2960.75           2296         711.00      3091.87
   67.44        2961.00           2300         744.00      3235.75
   67.47        2961.25           2303         960.00      4177.58
   67.50        2961.50           2307        2999.00     13071.20
   67.53        2961.75           2310        7531.00     32857.96
   67.56        2962.00           2314       15830.00     69160.70
   67.59        2962.25           2317       22911.00    100206.60
   67.62        2962.50           2321       32668.00    143092.90
   67.65        2962.75           2324       39691.00    174039.90
   67.68        2963.00           2328       49238.00    216214.00
   67.71        2963.25           2331       56067.00    246455.90
   67.74        2963.50           2335       66216.00    291515.90
   67.77        2963.75           2339       76335.00    336581.40
   67.80        2964.00           2342       84291.00    372111.50
   67.83        2964.25           2346       95271.00    421288.80
   67.86        2964.50           2349      102954.00    455798.20
   67.90        2964.75           2353      112700.00    499691.60
   67.93        2965.00           2356      119434.00    530097.10
   67.96        2965.25           2360      129139.00    574029.40
   67.99        2965.50           2363      136497.00    607425.80
   68.02        2965.75           2367      146403.00    652508.50
   68.05        2966.00           2370      153723.00    685912.30
   68.08        2966.25           2374      162447.00    725823.50
   68.11        2966.50           2378      168669.00    754355.60
   68.14        2966.75           2381      171053.00    765302.60
   68.17        2967.00           2385      171953.00    769437.50
   68.20        2967.25           2388      171616.00    767889.10
   68.23        2967.50           2392      171856.00    768991.80
   68.26        2967.75           2395      171712.00    768330.10
   68.29        2968.00           2399      167538.00    749165.00
   68.32        2968.25           2402      162055.00    724027.80
   68.35        2968.50           2406      153936.00    686885.50
   68.38        2968.75           2409      147906.00    659361.00
   68.42        2969.00           2413      138696.00    617421.50
   68.45        2969.25           2417      128651.00    571817.10
   68.48        2969.50           2420      120900.00    536724.90
   68.51        2969.75           2424      110019.00    487603.90
   68.54        2970.00           2427      102220.00    452497.80
   68.57        2970.25           2431       92172.00    407392.20
   68.60        2970.50           2434       84812.00    374441.30
   68.63        2970.75           2438       73878.00    325626.20
   68.66        2971.00           2441       65960.00    290377.60
   68.69        2971.25           2445       56424.00    248038.50
   68.72        2971.50           2449       47190.00    207156.60
   68.75        2971.75           2452       39753.00    174313.40
   68.78        2972.00           2456       29549.00    129369.90
   68.81        2972.25           2459       22364.00     97805.96
   68.84        2972.50           2463       13139.00     57379.49
   68.87        2972.75           2466        6946.00     30302.35
   68.90        2973.00           2470        2008.00      8748.02
   68.94        2973.25           2473        1038.00      4517.70
   68.97        2973.50           2477         799.00      3475.56
   69.00        2973.75           2481         741.00      3222.67
   69.03        2974.00           2484         746.00      3244.47
   69.06        2974.25           2488         687.00      2987.23
   69.09        2974.50           2491         692.00      3009.03
   69.12        2974.75           2495         683.00      2969.79
   69.15        2975.00           2498         639.00      2777.94
   69.18        2975.25           2502         637.00      2769.22
   69.21        2975.50           2505         652.00      2834.62
   69.24        2975.75           2509         657.00      2856.42
   69.27        2976.00           2512         651.00      2830.26
   69.30        2976.25           2516         601.00      2612.26
   69.33        2976.50           2520         613.00      2664.58
   69.36        2976.75           2523         597.00      2594.82
   69.39        2977.00           2527         589.00      2559.94
   69.42        2977.25           2530         563.00      2446.59
   69.46        2977.50           2534         595.00      2586.10
   69.49        2977.75           2537         578.00      2511.98
   69.52        2978.00           2541         550.00      2389.91
   69.55        2978.25           2544         558.00      2424.79
   69.58        2978.50           2548         539.00      2341.95
   69.61        2978.75           2552         548.00      2381.19
   69.64        2979.00           2555         542.00      2355.03
   69.67        2979.25           2559         535.00      2324.51
   69.70        2979.50           2562         559.00      2429.15
   69.73        2979.75           2566         496.00      2154.47
   69.76        2980.00           2569         539.00      2341.95
   69.79        2980.25           2573         530.00      2302.71
   69.82        2980.50           2577         505.00      2193.71
   69.85        2980.75           2580         501.00      2176.27
   69.88        2981.00           2584         520.00      2259.11
   69.91        2981.25           2587         515.00      2237.31
   69.94        2981.50           2591         498.00      2163.19
   69.98        2981.75           2594         497.00      2158.83
   70.01        2982.00           2598         510.00      2215.51
   70.04        2982.25           2601         488.00      2119.60
   70.07        2982.50           2605         479.00      2080.36
   70.10        2982.75           2609         469.00      2036.76
   70.13        2983.00           2612         484.00      2102.16
   70.16        2983.25           2616         466.00      2023.68
   70.19        2983.50           2619         468.00      2032.40
   70.22        2983.75           2623         434.00      1884.17
   70.25        2984.00           2626         474.00      2058.56
HS scan finished at 01:10:28
end
