************************************************************
  HS Scan of 
************************************************************
Integration time is 0.2294 seconds per sample
dh220517Reading 51.44 .94 3.21pr1000
************************************************************
Dead Time -------------------------  3.4E-08 
Number of Cycles Used -------------  4 
Starting Wavelength (Angstroms) ---  2950 
Final Wavelength (Angstoms) -------  2984 
Wavelength Increment (Angstroms) --  .25 
Filter Wheel #1 Position ---------- (1) Ground quartz diffuser (ND=2.32)
Filter Wheel #2 Position ---------- (1) Neutral Density 0.494



************************************************************
HS scan start time = 01:12:39
Dark Count =  1.4 


Time (GMT)  Wavelength (Ang)  Step Number  Raw Counts  Counts/Second

   73.55        2950.00           2144         362.00      1572.01
   73.75        2950.25           2147         380.00      1650.49
   73.78        2950.50           2151         409.00      1776.92
   73.81        2950.75           2155         375.00      1628.69
   73.84        2951.00           2158         367.00      1593.81
   73.87        2951.25           2162         382.00      1659.20
   73.90        2951.50           2165         405.00      1759.48
   73.93        2951.75           2169         370.00      1606.89
   73.96        2952.00           2172         370.00      1606.89
   73.99        2952.25           2176         410.00      1781.28
   74.02        2952.50           2179         372.00      1615.61
   74.05        2952.75           2183         392.00      1702.80
   74.08        2953.00           2186         390.00      1694.08
   74.11        2953.25           2190         374.00      1624.33
   74.14        2953.50           2193         398.00      1728.96
   74.18        2953.75           2197         392.00      1702.80
   74.21        2954.00           2200         409.00      1776.92
   74.24        2954.25           2204         380.00      1650.49
   74.27        2954.50           2208         407.00      1768.20
   74.30        2954.75           2211         397.00      1724.60
   74.33        2955.00           2215         411.00      1785.64
   74.36        2955.25           2218         397.00      1724.60
   74.39        2955.50           2222         386.00      1676.64
   74.42        2955.75           2225         411.00      1785.64
   74.45        2956.00           2229         428.00      1859.75
   74.48        2956.25           2232         418.00      1816.15
   74.51        2956.50           2236         430.00      1868.47
   74.54        2956.75           2239         426.00      1851.03
   74.57        2957.00           2243         431.00      1872.83
   74.60        2957.25           2246         435.00      1890.27
   74.63        2957.50           2250         423.00      1837.95
   74.67        2957.75           2254         446.00      1938.23
   74.70        2958.00           2257         468.00      2034.14
   74.73        2958.25           2261         445.00      1933.87
   74.76        2958.50           2264         454.00      1973.11
   74.79        2958.75           2268         458.00      1990.54
   74.82        2959.00           2271         468.00      2034.14
   74.85        2959.25           2275         489.00      2125.70
   74.88        2959.50           2278         475.00      2064.66
   74.91        2959.75           2282         490.00      2130.06
   74.94        2960.00           2285         515.00      2239.05
   74.97        2960.25           2289         539.00      2343.69
   75.00        2960.50           2293         524.00      2278.29
   75.03        2960.75           2296         515.00      2239.05
   75.06        2961.00           2300         607.00      2640.17
   75.09        2961.25           2303         872.00      3795.61
   75.12        2961.50           2307        3112.00     13565.98
   75.15        2961.75           2310        6728.00     29351.86
   75.18        2962.00           2314       12902.00     56344.10
   75.22        2962.25           2317       18338.00     80151.00
   75.25        2962.50           2321       25490.00    111532.00
   75.28        2962.75           2324       30876.00    135208.60
   75.31        2963.00           2328       38264.00    167748.30
   75.34        2963.25           2331       43634.00    191445.30
   75.37        2963.50           2335       50383.00    221282.00
   75.40        2963.75           2339       57487.00    252753.90
   75.43        2964.00           2342       63441.00    279183.30
   75.46        2964.25           2346       72514.00    319549.80
   75.49        2964.50           2349       78645.00    346890.30
   75.52        2964.75           2353       86699.00    382884.10
   75.55        2965.00           2356       91615.00    404897.70
   75.58        2965.25           2360       99030.00    438164.50
   75.61        2965.50           2363      104284.00    461782.10
   75.64        2965.75           2367      111933.00    496234.30
   75.67        2966.00           2370      116815.00    518266.10
   75.70        2966.25           2374      123518.00    548570.10
   75.74        2966.50           2378      127690.00    567463.50
   75.77        2966.75           2381      128535.00    571293.10
   75.80        2967.00           2385      129093.00    573822.60
   75.83        2967.25           2388      128687.00    571982.10
   75.86        2967.50           2392      128805.00    572517.00
   75.89        2967.75           2395      128063.00    569153.80
   75.92        2968.00           2399      123848.00    550063.60
   75.95        2968.25           2402      119361.00    529769.00
   75.98        2968.50           2406      113004.00    501064.70
   76.01        2968.75           2409      108487.00    480702.90
   76.04        2969.00           2413      101820.00    450701.30
   76.07        2969.25           2417       94364.00    417222.00
   76.10        2969.50           2420       88519.00    391030.10
   76.13        2969.75           2424       80605.00    355641.50
   76.16        2970.00           2427       74553.00    328636.80
   76.19        2970.25           2431       67101.00    295453.50
   76.23        2970.50           2434       61508.00    270597.60
   76.26        2970.75           2438       53307.00    234227.60
   76.29        2971.00           2441       47365.00    207932.10
   76.32        2971.25           2445       40075.00    175735.70
   76.35        2971.50           2449       32724.00    143341.20
   76.38        2971.75           2452       26959.00    117985.90
   76.41        2972.00           2456       19725.00     86231.52
   76.44        2972.25           2459       14435.00     63053.95
   76.47        2972.50           2463        8140.00     35520.64
   76.50        2972.75           2466        4042.00     17624.33
   76.53        2973.00           2470        1194.00      5199.70
   76.56        2973.25           2473         698.00      3036.93
   76.59        2973.50           2477         583.00      2535.53
   76.62        2973.75           2481         565.00      2457.05
   76.65        2974.00           2484         542.00      2356.77
   76.68        2974.25           2488         562.00      2443.97
   76.71        2974.50           2491         536.00      2330.61
   76.74        2974.75           2495         525.00      2282.65
   76.78        2975.00           2498         532.00      2313.17
   76.81        2975.25           2502         516.00      2243.41
   76.84        2975.50           2505         525.00      2282.65
   76.87        2975.75           2509         472.00      2051.58
   76.90        2976.00           2512         482.00      2095.18
   76.93        2976.25           2516         453.00      1968.75
   76.96        2976.50           2520         475.00      2064.66
   76.99        2976.75           2523         471.00      2047.22
   77.02        2977.00           2527         431.00      1872.83
   77.05        2977.25           2530         446.00      1938.23
   77.08        2977.50           2534         448.00      1946.95
   77.11        2977.75           2537         449.00      1951.31
   77.14        2978.00           2541         437.00      1898.99
   77.17        2978.25           2544         441.00      1916.43
   77.20        2978.50           2548         437.00      1898.99
   77.23        2978.75           2552         440.00      1912.07
   77.27        2979.00           2555         428.00      1859.75
   77.30        2979.25           2559         438.00      1903.35
   77.33        2979.50           2562         427.00      1855.39
   77.36        2979.75           2566         430.00      1868.47
   77.39        2980.00           2569         408.00      1772.56
   77.42        2980.25           2573         406.00      1763.84
   77.45        2980.50           2577         397.00      1724.60
   77.48        2980.75           2580         402.00      1746.40
   77.51        2981.00           2584         392.00      1702.80
   77.54        2981.25           2587         404.00      1755.12
   77.57        2981.50           2591         399.00      1733.32
   77.60        2981.75           2594         403.00      1750.76
   77.63        2982.00           2598         396.00      1720.24
   77.66        2982.25           2601         412.00      1790.00
   77.69        2982.50           2605         388.00      1685.36
   77.72        2982.75           2609         395.00      1715.88
   77.75        2983.00           2612         398.00      1728.96
   77.78        2983.25           2616         421.00      1829.23
   77.82        2983.50           2619         365.00      1585.09
   77.85        2983.75           2623         355.00      1541.49
   77.88        2984.00           2626         375.00      1628.69
HS scan finished at 01:18:06
end
************************************************************
  HS Scan of 
************************************************************
Integration time is 0.2294 seconds per sample
dh220517Reading 51.44 .94 3.68pr1000
************************************************************
Dead Time -------------------------  3.4E-08 
Number of Cycles Used -------------  4 
Starting Wavelength (Angstroms) ---  2950 
Final Wavelength (Angstoms) -------  2984 
Wavelength Increment (Angstroms) --  .25 
Filter Wheel #1 Position ---------- (1) Ground quartz diffuser (ND=2.32)
Filter Wheel #2 Position ---------- (1) Neutral Density 0.494



************************************************************
HS scan start time = 21:07:27
Dark Count =  4.3 


Time (GMT)  Wavelength (Ang)  Step Number  Raw Counts  Counts/Second

 1268.35        2950.00           2144         292.00      1254.19
 1268.54        2950.25           2147         294.00      1262.91
 1268.57        2950.50           2151         308.00      1323.95
 1268.60        2950.75           2155         289.00      1241.12
 1268.63        2951.00           2158         309.00      1328.31
 1268.66        2951.25           2162         301.00      1293.43
 1268.69        2951.50           2165         309.00      1328.31
 1268.73        2951.75           2169         319.00      1371.90
 1268.76        2952.00           2172         304.00      1306.51
 1268.79        2952.25           2176         292.00      1254.19
 1268.82        2952.50           2179         310.00      1332.67
 1268.85        2952.75           2183         305.00      1310.87
 1268.88        2953.00           2186         304.00      1306.51
 1268.91        2953.25           2190         308.00      1323.95
 1268.94        2953.50           2193         316.00      1358.83
 1268.97        2953.75           2197         323.00      1389.34
 1269.00        2954.00           2200         334.00      1437.30
 1269.03        2954.25           2204         321.00      1380.62
 1269.06        2954.50           2208         327.00      1406.78
 1269.09        2954.75           2211         331.00      1424.22
 1269.12        2955.00           2215         324.00      1393.70
 1269.15        2955.25           2218         335.00      1441.66
 1269.18        2955.50           2222         364.00      1568.09
 1269.21        2955.75           2225         336.00      1446.02
 1269.25        2956.00           2229         359.00      1546.29
 1269.28        2956.25           2232         339.00      1459.10
 1269.31        2956.50           2236         335.00      1441.66
 1269.34        2956.75           2239         361.00      1555.01
 1269.37        2957.00           2243         365.00      1572.45
 1269.40        2957.25           2246         381.00      1642.20
 1269.43        2957.50           2250         371.00      1598.60
 1269.46        2957.75           2254         364.00      1568.09
 1269.49        2958.00           2257         344.00      1480.89
 1269.52        2958.25           2261         367.00      1581.17
 1269.55        2958.50           2264         402.00      1733.76
 1269.58        2958.75           2268         367.00      1581.17
 1269.61        2959.00           2271         409.00      1764.27
 1269.64        2959.25           2275         398.00      1716.32
 1269.67        2959.50           2278         376.00      1620.40
 1269.70        2959.75           2282         432.00      1864.55
 1269.73        2960.00           2285         402.00      1733.76
 1269.77        2960.25           2289         418.00      1803.51
 1269.80        2960.50           2293         429.00      1851.47
 1269.83        2960.75           2296         446.00      1925.58
 1269.86        2961.00           2300         492.00      2126.13
 1269.89        2961.25           2303         744.00      3224.85
 1269.92        2961.50           2307        2625.00     11428.59
 1269.95        2961.75           2310        6090.00     26552.74
 1269.98        2962.00           2314       11986.00     52323.61
 1270.01        2962.25           2317       16742.00     73144.63
 1270.04        2962.50           2321       23105.00    101047.10
 1270.07        2962.75           2324       27375.00    119801.30
 1270.10        2963.00           2328       33474.00    146630.20
 1270.13        2963.25           2331       38114.00    167074.10
 1270.16        2963.50           2335       44963.00    197303.00
 1270.19        2963.75           2339       51492.00    226177.70
 1270.22        2964.00           2342       56244.00    247229.50
 1270.25        2964.25           2346       62793.00    276291.70
 1270.29        2964.50           2349       67018.00    295071.50
 1270.32        2964.75           2353       73597.00    324362.70
 1270.35        2965.00           2356       78232.00    345034.10
 1270.38        2965.25           2360       84827.00    374497.20
 1270.41        2965.50           2363       89293.00    394482.80
 1270.44        2965.75           2367       94890.00    419568.40
 1270.47        2966.00           2370       99345.00    439566.40
 1270.50        2966.25           2374      104403.00    462304.50
 1270.53        2966.50           2378      107364.00    475632.10
 1270.56        2966.75           2381      108196.00    479379.10
 1270.59        2967.00           2385      108395.00    480275.50
 1270.62        2967.25           2388      108427.00    480419.60
 1270.65        2967.50           2392      108543.00    480942.10
 1270.68        2967.75           2395      107728.00    477271.30
 1270.71        2968.00           2399      105219.00    465976.20
 1270.74        2968.25           2402      101650.00    449924.10
 1270.77        2968.50           2406       96557.00    427048.20
 1270.81        2968.75           2409       92285.00    407887.50
 1270.84        2969.00           2413       85986.00    379681.20
 1270.87        2969.25           2417       80080.00    353284.00
 1270.90        2969.50           2420       75371.00    332271.00
 1270.93        2969.75           2424       69402.00    305678.90
 1270.96        2970.00           2427       65343.00    287623.40
 1270.99        2970.25           2431       58783.00    258489.80
 1271.02        2970.50           2434       53739.00    236128.30
 1271.05        2970.75           2438       46867.00    205717.60
 1271.08        2971.00           2441       41870.00    183643.90
 1271.11        2971.25           2445       35624.00    156099.60
 1271.14        2971.50           2449       29502.00    129152.20
 1271.17        2971.75           2452       25003.00    109380.30
 1271.20        2972.00           2456       19077.00     83377.70
 1271.23        2972.25           2459       14827.00     64757.51
 1271.26        2972.50           2463        8669.00     37819.75
 1271.29        2972.75           2466        4653.00     20278.58
 1271.32        2973.00           2470        1357.00      5897.87
 1271.36        2973.25           2473         687.00      2976.33
 1271.39        2973.50           2477         489.00      2113.06
 1271.42        2973.75           2481         499.00      2156.65
 1271.45        2974.00           2484         441.00      1903.79
 1271.48        2974.25           2488         433.00      1868.91
 1271.51        2974.50           2491         425.00      1834.03
 1271.54        2974.75           2495         418.00      1803.51
 1271.57        2975.00           2498         420.00      1812.23
 1271.60        2975.25           2502         417.00      1799.15
 1271.63        2975.50           2505         384.00      1655.28
 1271.66        2975.75           2509         398.00      1716.32
 1271.69        2976.00           2512         396.00      1707.60
 1271.72        2976.25           2516         400.00      1725.04
 1271.75        2976.50           2520         394.00      1698.88
 1271.78        2976.75           2523         402.00      1733.76
 1271.81        2977.00           2527         370.00      1594.25
 1271.84        2977.25           2530         360.00      1550.65
 1271.88        2977.50           2534         384.00      1655.28
 1271.91        2977.75           2537         354.00      1524.49
 1271.94        2978.00           2541         368.00      1585.53
 1271.97        2978.25           2544         376.00      1620.40
 1272.00        2978.50           2548         327.00      1406.78
 1272.03        2978.75           2552         349.00      1502.69
 1272.06        2979.00           2555         354.00      1524.49
 1272.09        2979.25           2559         324.00      1393.70
 1272.12        2979.50           2562         322.00      1384.98
 1272.15        2979.75           2566         328.00      1411.14
 1272.18        2980.00           2569         350.00      1507.05
 1272.21        2980.25           2573         327.00      1406.78
 1272.24        2980.50           2577         324.00      1393.70
 1272.27        2980.75           2580         323.00      1389.34
 1272.30        2981.00           2584         301.00      1293.43
 1272.33        2981.25           2587         319.00      1371.90
 1272.37        2981.50           2591         320.00      1376.26
 1272.40        2981.75           2594         312.00      1341.39
 1272.43        2982.00           2598         326.00      1402.42
 1272.46        2982.25           2601         296.00      1271.63
 1272.49        2982.50           2605         300.00      1289.07
 1272.52        2982.75           2609         308.00      1323.95
 1272.55        2983.00           2612         314.00      1350.11
 1272.58        2983.25           2616         308.00      1323.95
 1272.61        2983.50           2619         301.00      1293.43
 1272.64        2983.75           2623         299.00      1284.71
 1272.67        2984.00           2626         296.00      1271.63
HS scan finished at 21:12:54
end
