************************************************************
  HS Scan of (1) Internal mercury lamp
************************************************************
Integration time is 0.2294 seconds per sample
dh250519Reading 51.44 .94 3.47pr1000
************************************************************
Dead Time -------------------------  3.4E-08 
Number of Cycles Used -------------  4 
Starting Wavelength (Angstroms) ---  2950 
Final Wavelength (Angstoms) -------  2984 
Wavelength Increment (Angstroms) --  .25 
Filter Wheel #1 Position ---------- (1) Ground quartz diffuser (ND=2.32)
Filter Wheel #2 Position ---------- (1) Neutral Density 0.494



************************************************************
HS scan start time = 01:04:49
Dark Count =  1.8 


Time (GMT)  Wavelength (Ang)  Step Number  Raw Counts  Counts/Second

   65.72        2950.00           2144        1337.00      5821.55
   65.91        2950.25           2147        1358.00      5913.13
   65.94        2950.50           2151        1382.00      6017.80
   65.97        2950.75           2155        1338.00      5825.91
   66.00        2951.00           2158        1420.00      6183.51
   66.03        2951.25           2162        1385.00      6030.88
   66.07        2951.50           2165        1388.00      6043.96
   66.10        2951.75           2169        1389.00      6048.32
   66.13        2952.00           2172        1349.00      5873.88
   66.16        2952.25           2176        1373.00      5978.55
   66.19        2952.50           2179        1437.00      6257.65
   66.22        2952.75           2183        1412.00      6148.63
   66.25        2953.00           2186        1425.00      6205.32
   66.28        2953.25           2190        1394.00      6070.13
   66.31        2953.50           2193        1424.00      6200.96
   66.34        2953.75           2197        1404.00      6113.74
   66.37        2954.00           2200        1419.00      6179.15
   66.40        2954.25           2204        1458.00      6349.23
   66.43        2954.50           2208        1449.00      6309.99
   66.46        2954.75           2211        1451.00      6318.71
   66.49        2955.00           2215        1451.00      6318.71
   66.52        2955.25           2218        1499.00      6528.04
   66.55        2955.50           2222        1507.00      6562.93
   66.59        2955.75           2225        1512.00      6584.73
   66.62        2956.00           2229        1517.00      6606.54
   66.65        2956.25           2232        1505.00      6554.21
   66.68        2956.50           2236        1536.00      6689.40
   66.71        2956.75           2239        1548.00      6741.74
   66.74        2957.00           2243        1589.00      6920.55
   66.78        2957.25           2246        1575.00      6859.49
   66.81        2957.50           2250        1563.00      6807.16
   66.84        2957.75           2254        1647.00      7173.50
   66.87        2958.00           2257        1630.00      7099.36
   66.90        2958.25           2261        1635.00      7121.17
   66.93        2958.50           2264        1655.00      7208.39
   66.96        2958.75           2268        1719.00      7487.52
   66.99        2959.00           2271        1695.00      7382.85
   67.02        2959.25           2275        1740.00      7579.11
   67.05        2959.50           2278        1762.00      7675.06
   67.08        2959.75           2282        1769.00      7705.59
   67.11        2960.00           2285        1798.00      7832.08
   67.14        2960.25           2289        1870.00      8146.11
   67.17        2960.50           2293        1914.00      8338.02
   67.20        2960.75           2296        1932.00      8416.53
   67.23        2961.00           2300        2369.00     10322.72
   67.26        2961.25           2303        4900.00     21367.75
   67.30        2961.50           2307       15884.00     69397.21
   67.33        2961.75           2310       28766.00    125926.90
   67.36        2962.00           2314       50512.00    221851.10
   67.39        2962.25           2317       69285.00    305169.20
   67.42        2962.50           2321       93937.00    415305.30
   67.45        2962.75           2324      113498.00    503291.50
   67.48        2963.00           2328      139681.00    621901.20
   67.51        2963.25           2331      160893.00    718706.10
   67.54        2963.50           2335      188588.00    846076.60
   67.57        2963.75           2339      214335.00    965500.90
   67.60        2964.00           2342      232136.00   1048649.00
   67.63        2964.25           2346      256892.00   1165085.00
   67.66        2964.50           2349      277335.00   1261951.00
   67.69        2964.75           2353      302679.00   1382952.00
   67.72        2965.00           2356      321274.00   1472384.00
   67.75        2965.25           2360      344118.00   1583021.00
   67.78        2965.50           2363      359336.00   1657202.00
   67.82        2965.75           2367      381266.00   1764784.00
   67.85        2966.00           2370      399771.00   1856199.00
   67.88        2966.25           2374      421590.00   1964746.00
   67.91        2966.50           2378      432405.00   2018859.00
   67.94        2966.75           2381      435604.00   2034905.00
   67.97        2967.00           2385      436141.00   2037600.00
   68.00        2967.25           2388      437003.00   2041928.00
   68.03        2967.50           2392      436429.00   2039046.00
   68.06        2967.75           2395      434862.00   2031181.00
   68.09        2968.00           2399      424971.00   1981641.00
   68.12        2968.25           2402      412655.00   1920196.00
   68.15        2968.50           2406      391498.00   1815258.00
   68.18        2968.75           2409      372892.00   1723608.00
   68.21        2969.00           2413      346360.00   1593925.00
   68.24        2969.25           2417      324332.00   1487145.00
   68.27        2969.50           2420      305147.00   1394789.00
   68.30        2969.75           2424      280551.00   1277249.00
   68.33        2970.00           2427      259379.00   1176835.00
   68.37        2970.25           2431      231647.00   1046358.00
   68.40        2970.50           2434      212038.00    954806.30
   68.43        2970.75           2438      185850.00    833434.50
   68.46        2971.00           2441      167473.00    748866.70
   68.49        2971.25           2445      139078.00    619158.60
   68.52        2971.50           2449      111584.00    494658.70
   68.55        2971.75           2452       91414.00    403995.20
   68.58        2972.00           2456       65055.00    286354.20
   68.61        2972.25           2459       46083.00    202263.30
   68.64        2972.50           2463       23657.00    103481.10
   68.67        2972.75           2466       10646.00     46473.55
   68.70        2973.00           2470        3772.00     16444.24
   68.73        2973.25           2473        2426.00     10571.37
   68.76        2973.50           2477        2015.00      8778.56
   68.79        2973.75           2481        1967.00      8569.19
   68.82        2974.00           2484        1875.00      8167.92
   68.85        2974.25           2488        1853.00      8071.96
   68.89        2974.50           2491        1790.00      7797.18
   68.92        2974.75           2495        1780.00      7753.57
   68.95        2975.00           2498        1783.00      7766.65
   68.98        2975.25           2502        1704.00      7422.10
   69.01        2975.50           2505        1679.00      7313.06
   69.04        2975.75           2509        1721.00      7496.24
   69.07        2976.00           2512        1679.00      7313.06
   69.10        2976.25           2516        1634.00      7116.80
   69.13        2976.50           2520        1634.00      7116.80
   69.16        2976.75           2523        1580.00      6881.30
   69.19        2977.00           2527        1591.00      6929.27
   69.22        2977.25           2530        1598.00      6959.80
   69.25        2977.50           2534        1599.00      6964.16
   69.28        2977.75           2537        1538.00      6698.13
   69.31        2978.00           2541        1536.00      6689.40
   69.34        2978.25           2544        1526.00      6645.79
   69.37        2978.50           2548        1521.00      6623.99
   69.41        2978.75           2552        1465.00      6379.76
   69.44        2979.00           2555        1461.00      6362.32
   69.47        2979.25           2559        1482.00      6453.90
   69.50        2979.50           2562        1438.00      6262.01
   69.53        2979.75           2566        1429.00      6222.76
   69.56        2980.00           2569        1436.00      6253.29
   69.59        2980.25           2573        1416.00      6166.07
   69.62        2980.50           2577        1396.00      6078.85
   69.65        2980.75           2580        1384.00      6026.52
   69.68        2981.00           2584        1433.00      6240.21
   69.71        2981.25           2587        1371.00      5969.83
   69.74        2981.50           2591        1407.00      6126.82
   69.77        2981.75           2594        1417.00      6170.43
   69.80        2982.00           2598        1384.00      6026.52
   69.83        2982.25           2601        1335.00      5812.83
   69.86        2982.50           2605        1350.00      5878.25
   69.89        2982.75           2609        1320.00      5747.42
   69.93        2983.00           2612        1344.00      5852.08
   69.96        2983.25           2616        1341.00      5839.00
   69.99        2983.50           2619        1317.00      5734.34
   70.02        2983.75           2623        1396.00      6078.85
   70.05        2984.00           2626        1328.00      5782.30
HS scan finished at 01:10:16
end
************************************************************
  HS Scan of (1) Internal mercury lamp
************************************************************
Integration time is 0.2294 seconds per sample
dh250519Reading 51.44 .94 3.7pr1000
************************************************************
Dead Time -------------------------  3.4E-08 
Number of Cycles Used -------------  4 
Starting Wavelength (Angstroms) ---  2950 
Final Wavelength (Angstoms) -------  2984 
Wavelength Increment (Angstroms) --  .25 
Filter Wheel #1 Position ---------- (1) Ground quartz diffuser (ND=2.32)
Filter Wheel #2 Position ---------- (1) Neutral Density 0.494



************************************************************
HS scan start time = 21:07:25
Dark Count =  4.3 


Time (GMT)  Wavelength (Ang)  Step Number  Raw Counts  Counts/Second

 1268.32        2950.00           2144        1294.00      5623.13
 1268.51        2950.25           2147        1319.00      5732.16
 1268.54        2950.50           2151        1343.00      5836.82
 1268.57        2950.75           2155        1332.00      5788.85
 1268.60        2951.00           2158        1348.00      5858.62
 1268.64        2951.25           2162        1341.00      5828.09
 1268.67        2951.50           2165        1309.00      5688.55
 1268.70        2951.75           2169        1336.00      5806.29
 1268.73        2952.00           2172        1379.00      5993.81
 1268.76        2952.25           2176        1370.00      5954.56
 1268.79        2952.50           2179        1332.00      5788.85
 1268.82        2952.75           2183        1361.00      5915.31
 1268.85        2953.00           2186        1360.00      5910.95
 1268.88        2953.25           2190        1386.00      6024.34
 1268.91        2953.50           2193        1398.00      6076.67
 1268.94        2953.75           2197        1347.00      5854.26
 1268.97        2954.00           2200        1427.00      6203.14
 1269.00        2954.25           2204        1398.00      6076.67
 1269.03        2954.50           2208        1388.00      6033.06
 1269.06        2954.75           2211        1424.00      6190.06
 1269.09        2955.00           2215        1401.00      6089.75
 1269.12        2955.25           2218        1423.00      6185.69
 1269.15        2955.50           2222        1436.00      6242.39
 1269.19        2955.75           2225        1460.00      6347.05
 1269.22        2956.00           2229        1464.00      6364.50
 1269.25        2956.25           2232        1457.00      6333.97
 1269.28        2956.50           2236        1456.00      6329.61
 1269.31        2956.75           2239        1473.00      6403.75
 1269.34        2957.00           2243        1508.00      6556.39
 1269.37        2957.25           2246        1499.00      6517.14
 1269.40        2957.50           2250        1509.00      6560.75
 1269.43        2957.75           2254        1544.00      6713.39
 1269.46        2958.00           2257        1503.00      6534.58
 1269.50        2958.25           2261        1605.00      6979.42
 1269.53        2958.50           2264        1582.00      6879.11
 1269.56        2958.75           2268        1617.00      7031.76
 1269.59        2959.00           2271        1618.00      7036.12
 1269.62        2959.25           2275        1659.00      7214.93
 1269.65        2959.50           2278        1676.00      7289.08
 1269.68        2959.75           2282        1704.00      7411.20
 1269.71        2960.00           2285        1746.00      7594.38
 1269.74        2960.25           2289        1750.00      7611.82
 1269.77        2960.50           2293        1790.00      7786.28
 1269.80        2960.75           2296        1860.00      8091.59
 1269.83        2961.00           2300        1902.00      8274.78
 1269.87        2961.25           2303        2400.00     10447.04
 1269.90        2961.50           2307        6620.00     28867.47
 1269.93        2961.75           2310       16856.00     73644.06
 1269.96        2962.00           2314       37352.00    163714.80
 1269.99        2962.25           2317       54741.00    240567.80
 1270.02        2962.50           2321       78133.00    344592.20
 1270.05        2962.75           2324       95674.00    423085.70
 1270.08        2963.00           2328      121026.00    537283.30
 1270.11        2963.25           2331      139889.00    622835.90
 1270.14        2963.50           2335      169502.00    758168.10
 1270.17        2963.75           2339      194585.00    873793.50
 1270.20        2964.00           2342      212820.00    958434.70
 1270.23        2964.25           2346      237690.00   1074678.00
 1270.26        2964.50           2349      256222.00   1161910.00
 1270.29        2964.75           2353      279663.00   1273011.00
 1270.32        2965.00           2356      300295.00   1371514.00
 1270.35        2965.25           2360      325066.00   1490678.00
 1270.38        2965.50           2363      342992.00   1577535.00
 1270.42        2965.75           2367      366746.00   1693450.00
 1270.45        2966.00           2370      383538.00   1775963.00
 1270.48        2966.25           2374      404136.00   1877836.00
 1270.51        2966.50           2378      414139.00   1927573.00
 1270.54        2966.75           2381      422512.00   1969339.00
 1270.57        2967.00           2385      423768.00   1975615.00
 1270.60        2967.25           2388      425156.00   1982553.00
 1270.63        2967.50           2392      425302.00   1983284.00
 1270.66        2967.75           2395      423119.00   1972372.00
 1270.69        2968.00           2399      418150.00   1947565.00
 1270.72        2968.25           2402      406989.00   1892004.00
 1270.75        2968.50           2406      385898.00   1787598.00
 1270.78        2968.75           2409      368513.00   1702110.00
 1270.81        2969.00           2413      347259.00   1598288.00
 1270.84        2969.25           2417      325612.00   1493315.00
 1270.87        2969.50           2420      309611.00   1416214.00
 1270.90        2969.75           2424      286707.00   1306565.00
 1270.94        2970.00           2427      270064.00   1227412.00
 1270.97        2970.25           2431      242772.00   1098547.00
 1271.00        2970.50           2434      222247.00   1002387.00
 1271.03        2970.75           2438      195787.00    879357.60
 1271.06        2971.00           2441      177133.00    793247.40
 1271.09        2971.25           2445      152454.00    680104.40
 1271.12        2971.50           2449      128455.00    570917.40
 1271.15        2971.75           2452      108991.00    482960.40
 1271.18        2972.00           2456       84564.00    373321.10
 1271.21        2972.25           2459       66443.00    292514.30
 1271.24        2972.50           2463       40721.00    178573.10
 1271.27        2972.75           2466       24015.00    105041.90
 1271.30        2973.00           2470        7950.00     34677.74
 1271.33        2973.25           2473        3607.00     15713.28
 1271.36        2973.50           2477        2142.00      9321.61
 1271.39        2973.75           2481        1911.00      8314.03
 1271.42        2974.00           2484        1916.00      8335.84
 1271.46        2974.25           2488        1819.00      7912.76
 1271.49        2974.50           2491        1793.00      7799.37
 1271.52        2974.75           2495        1763.00      7668.52
 1271.55        2975.00           2498        1714.00      7454.81
 1271.58        2975.25           2502        1710.00      7437.36
 1271.61        2975.50           2505        1697.00      7380.67
 1271.64        2975.75           2509        1634.00      7105.90
 1271.67        2976.00           2512        1602.00      6966.34
 1271.70        2976.25           2516        1575.00      6848.59
 1271.73        2976.50           2520        1612.00      7009.95
 1271.76        2976.75           2523        1579.00      6866.03
 1271.79        2977.00           2527        1554.00      6757.00
 1271.82        2977.25           2530        1527.00      6639.25
 1271.85        2977.50           2534        1521.00      6613.08
 1271.88        2977.75           2537        1510.00      6565.11
 1271.91        2978.00           2541        1497.00      6508.41
 1271.94        2978.25           2544        1500.00      6521.50
 1271.98        2978.50           2548        1474.00      6408.11
 1272.01        2978.75           2552        1399.00      6081.03
 1272.04        2979.00           2555        1444.00      6277.28
 1272.07        2979.25           2559        1414.00      6146.45
 1272.10        2979.50           2562        1377.00      5985.09
 1272.13        2979.75           2566        1419.00      6168.25
 1272.16        2980.00           2569        1391.00      6046.14
 1272.19        2980.25           2573        1396.00      6067.95
 1272.22        2980.50           2577        1360.00      5910.95
 1272.25        2980.75           2580        1345.00      5845.54
 1272.28        2981.00           2584        1344.00      5841.18
 1272.31        2981.25           2587        1341.00      5828.09
 1272.34        2981.50           2591        1328.00      5771.40
 1272.37        2981.75           2594        1322.00      5745.24
 1272.40        2982.00           2598        1322.00      5745.24
 1272.43        2982.25           2601        1351.00      5871.70
 1272.46        2982.50           2605        1323.00      5749.60
 1272.50        2982.75           2609        1313.00      5705.99
 1272.53        2983.00           2612        1301.00      5653.66
 1272.56        2983.25           2616        1312.00      5701.63
 1272.59        2983.50           2619        1323.00      5749.60
 1272.62        2983.75           2623        1237.00      5374.57
 1272.65        2984.00           2626        1301.00      5653.66
HS scan finished at 21:12:52
end
