************************************************************
  HS Scan of (1) Internal mercury lamp
************************************************************
Integration time is 0.2294 seconds per sample
dh220519Reading 51.44 .94 3.29pr1000
************************************************************
Dead Time -------------------------  3.4E-08 
Number of Cycles Used -------------  4 
Starting Wavelength (Angstroms) ---  2950 
Final Wavelength (Angstoms) -------  2984 
Wavelength Increment (Angstroms) --  .25 
Filter Wheel #1 Position ---------- (1) Ground quartz diffuser (ND=2.32)
Filter Wheel #2 Position ---------- (1) Neutral Density 0.494



************************************************************
HS scan start time = 01:12:33
Dark Count =  1.6 


Time (GMT)  Wavelength (Ang)  Step Number  Raw Counts  Counts/Second

   73.45        2950.00           2144        1429.00      6223.64
   73.64        2950.25           2147        1435.00      6249.80
   73.67        2950.50           2151        1438.00      6262.89
   73.70        2950.75           2155        1420.00      6184.39
   73.73        2951.00           2158        1435.00      6249.80
   73.76        2951.25           2162        1449.00      6310.86
   73.79        2951.50           2165        1463.00      6371.91
   73.82        2951.75           2169        1478.00      6437.33
   73.85        2952.00           2172        1426.00      6210.55
   73.88        2952.25           2176        1497.00      6520.19
   73.91        2952.50           2179        1468.00      6393.72
   73.94        2952.75           2183        1459.00      6354.47
   73.98        2953.00           2186        1486.00      6472.22
   74.01        2953.25           2190        1501.00      6537.64
   74.04        2953.50           2193        1484.00      6463.50
   74.07        2953.75           2197        1517.00      6607.41
   74.10        2954.00           2200        1507.00      6563.80
   74.13        2954.25           2204        1526.00      6646.66
   74.16        2954.50           2208        1516.00      6603.05
   74.19        2954.75           2211        1517.00      6607.41
   74.22        2955.00           2215        1543.00      6720.80
   74.25        2955.25           2218        1546.00      6733.89
   74.28        2955.50           2222        1591.00      6930.14
   74.31        2955.75           2225        1548.00      6742.61
   74.34        2956.00           2229        1610.00      7013.01
   74.37        2956.25           2232        1634.00      7117.68
   74.40        2956.50           2236        1605.00      6991.20
   74.43        2956.75           2239        1609.00      7008.65
   74.46        2957.00           2243        1649.00      7183.10
   74.50        2957.25           2246        1650.00      7187.46
   74.53        2957.50           2250        1685.00      7340.11
   74.56        2957.75           2254        1701.00      7409.89
   74.59        2958.00           2257        1715.00      7470.95
   74.62        2958.25           2261        1718.00      7484.03
   74.65        2958.50           2264        1768.00      7702.10
   74.68        2958.75           2268        1786.00      7780.61
   74.71        2959.00           2271        1786.00      7780.61
   74.74        2959.25           2275        1854.00      8077.20
   74.77        2959.50           2278        1814.00      7902.73
   74.80        2959.75           2282        1855.00      8081.56
   74.83        2960.00           2285        1878.00      8181.88
   74.87        2960.25           2289        1874.00      8164.43
   74.90        2960.50           2293        1956.00      8522.09
   74.93        2960.75           2296        2015.00      8779.43
   74.96        2961.00           2300        2383.00     10384.66
   74.99        2961.25           2303        4433.00     19330.05
   75.02        2961.50           2307       14952.00     65316.65
   75.05        2961.75           2310       28158.00    123254.80
   75.08        2962.00           2314       49844.00    218896.00
   75.11        2962.25           2317       68340.00    300964.70
   75.14        2962.50           2321       92477.00    408760.10
   75.17        2962.75           2324      112640.00    499421.90
   75.21        2963.00           2328      140683.00    626460.50
   75.24        2963.25           2331      161783.00    722782.90
   75.27        2963.50           2335      186091.00    834547.80
   75.30        2963.75           2339      211802.00    953709.00
   75.33        2964.00           2342      231057.00   1043596.00
   75.36        2964.25           2346      258311.00   1171789.00
   75.39        2964.50           2349      278896.00   1269375.00
   75.42        2964.75           2353      303366.00   1386247.00
   75.45        2965.00           2356      321971.00   1475748.00
   75.48        2965.25           2360      346803.00   1596082.00
   75.51        2965.50           2363      365450.00   1687115.00
   75.54        2965.75           2367      387092.00   1793502.00
   75.57        2966.00           2370      403635.00   1875363.00
   75.60        2966.25           2374      426874.00   1991160.00
   75.63        2966.50           2378      438902.00   2051467.00
   75.66        2966.75           2381      441312.00   2063582.00
   75.69        2967.00           2385      443492.00   2074549.00
   75.73        2967.25           2388      443299.00   2073577.00
   75.76        2967.50           2392      442677.00   2070448.00
   75.79        2967.75           2395      441362.00   2063833.00
   75.82        2968.00           2399      433166.00   2022675.00
   75.85        2968.25           2402      418084.00   1947250.00
   75.88        2968.50           2406      398426.00   1849536.00
   75.91        2968.75           2409      380960.00   1763278.00
   75.94        2969.00           2413      354719.00   1634656.00
   75.97        2969.25           2417      331101.00   1519874.00
   76.00        2969.50           2420      312683.00   1430997.00
   76.03        2969.75           2424      287602.00   1310847.00
   76.06        2970.00           2427      266370.00   1209915.00
   76.09        2970.25           2431      236824.00   1070627.00
   76.12        2970.50           2434      216677.00    976413.90
   76.15        2970.75           2438      189010.00    848027.10
   76.18        2971.00           2441      168314.00    752727.00
   76.21        2971.25           2445      140354.00    624963.60
   76.25        2971.50           2449      113352.00    502633.70
   76.28        2971.75           2452       92136.00    407231.70
   76.31        2972.00           2456       65544.00    288528.90
   76.34        2972.25           2459       46934.00    206025.80
   76.37        2972.50           2463       25447.00    111342.20
   76.40        2972.75           2466       12111.00     52882.27
   76.43        2973.00           2470        4144.00     18068.64
   76.46        2973.25           2473        2553.00     11126.27
   76.49        2973.50           2477        2102.00      9158.91
   76.52        2973.75           2481        2024.00      8818.69
   76.55        2974.00           2484        1984.00      8644.21
   76.58        2974.25           2488        1941.00      8456.66
   76.61        2974.50           2491        1916.00      8347.62
   76.64        2974.75           2495        1853.00      8072.84
   76.67        2975.00           2498        1860.00      8103.37
   76.70        2975.25           2502        1850.00      8059.75
   76.73        2975.50           2505        1786.00      7780.61
   76.77        2975.75           2509        1754.00      7641.04
   76.80        2976.00           2512        1749.00      7619.24
   76.83        2976.25           2516        1718.00      7484.03
   76.86        2976.50           2520        1721.00      7497.12
   76.89        2976.75           2523        1732.00      7545.09
   76.92        2977.00           2527        1667.00      7261.60
   76.95        2977.25           2530        1682.00      7327.02
   76.98        2977.50           2534        1626.00      7082.79
   77.01        2977.75           2537        1620.00      7056.62
   77.04        2978.00           2541        1578.00      6873.45
   77.07        2978.25           2544        1589.00      6921.42
   77.10        2978.50           2548        1556.00      6777.50
   77.13        2978.75           2552        1588.00      6917.06
   77.16        2979.00           2555        1516.00      6603.05
   77.19        2979.25           2559        1525.00      6642.30
   77.22        2979.50           2562        1532.00      6672.83
   77.25        2979.75           2566        1484.00      6463.50
   77.29        2980.00           2569        1513.00      6589.97
   77.32        2980.25           2573        1450.00      6315.22
   77.35        2980.50           2577        1461.00      6363.19
   77.38        2980.75           2580        1471.00      6406.80
   77.41        2981.00           2584        1453.00      6328.30
   77.44        2981.25           2587        1476.00      6428.61
   77.47        2981.50           2591        1451.00      6319.58
   77.50        2981.75           2594        1448.00      6306.50
   77.53        2982.00           2598        1437.00      6258.52
   77.56        2982.25           2601        1434.00      6245.44
   77.59        2982.50           2605        1402.00      6105.89
   77.62        2982.75           2609        1448.00      6306.50
   77.65        2983.00           2612        1395.00      6075.36
   77.68        2983.25           2616        1414.00      6158.22
   77.71        2983.50           2619        1444.00      6289.05
   77.74        2983.75           2623        1395.00      6075.36
   77.77        2984.00           2626        1403.00      6110.25
HS scan finished at 01:18:00
end
************************************************************
  HS Scan of (1) Internal mercury lamp
************************************************************
Integration time is 0.2294 seconds per sample
dh220519Reading 51.44 .94 3.47pr1000
************************************************************
Dead Time -------------------------  3.4E-08 
Number of Cycles Used -------------  4 
Starting Wavelength (Angstroms) ---  2950 
Final Wavelength (Angstoms) -------  2984 
Wavelength Increment (Angstroms) --  .25 
Filter Wheel #1 Position ---------- (1) Ground quartz diffuser (ND=2.32)
Filter Wheel #2 Position ---------- (1) Neutral Density 0.494



************************************************************
HS scan start time = 21:08:41
Dark Count =  2.4 


Time (GMT)  Wavelength (Ang)  Step Number  Raw Counts  Counts/Second

 1269.58        2950.00           2144        1208.00      5256.39
 1269.78        2950.25           2147        1242.00      5404.66
 1269.81        2950.50           2151        1271.00      5531.12
 1269.84        2950.75           2155        1254.00      5456.99
 1269.87        2951.00           2158        1226.00      5334.88
 1269.90        2951.25           2162        1235.00      5374.13
 1269.93        2951.50           2165        1278.00      5561.64
 1269.96        2951.75           2169        1270.00      5526.76
 1269.99        2952.00           2172        1244.00      5413.38
 1270.02        2952.25           2176        1287.00      5600.89
 1270.05        2952.50           2179        1260.00      5483.15
 1270.08        2952.75           2183        1261.00      5487.51
 1270.11        2953.00           2186        1303.00      5670.67
 1270.14        2953.25           2190        1316.00      5727.36
 1270.17        2953.50           2193        1313.00      5714.28
 1270.21        2953.75           2197        1308.00      5692.47
 1270.24        2954.00           2200        1282.00      5579.09
 1270.27        2954.25           2204        1309.00      5696.83
 1270.30        2954.50           2208        1340.00      5832.02
 1270.33        2954.75           2211        1300.00      5657.58
 1270.36        2955.00           2215        1337.00      5818.94
 1270.39        2955.25           2218        1347.00      5862.55
 1270.42        2955.50           2222        1386.00      6032.62
 1270.45        2955.75           2225        1343.00      5845.10
 1270.48        2956.00           2229        1337.00      5818.94
 1270.51        2956.25           2232        1413.00      6150.37
 1270.54        2956.50           2236        1442.00      6276.84
 1270.57        2956.75           2239        1381.00      6010.82
 1270.60        2957.00           2243        1435.00      6246.31
 1270.63        2957.25           2246        1447.00      6298.65
 1270.66        2957.50           2250        1419.00      6176.54
 1270.69        2957.75           2254        1404.00      6111.12
 1270.73        2958.00           2257        1482.00      6451.28
 1270.76        2958.25           2261        1473.00      6412.03
 1270.79        2958.50           2264        1528.00      6651.90
 1270.82        2958.75           2268        1557.00      6778.37
 1270.85        2959.00           2271        1499.00      6525.42
 1270.88        2959.25           2275        1551.00      6752.20
 1270.91        2959.50           2278        1560.00      6791.45
 1270.94        2959.75           2282        1636.00      7122.91
 1270.97        2960.00           2285        1672.00      7279.92
 1271.00        2960.25           2289        1639.00      7135.99
 1271.03        2960.50           2293        1735.00      7554.69
 1271.06        2960.75           2296        1738.00      7567.77
 1271.09        2961.00           2300        1803.00      7851.27
 1271.12        2961.25           2303        2318.00     10097.63
 1271.16        2961.50           2307        7107.00     31003.02
 1271.19        2961.75           2310       16495.00     72070.90
 1271.22        2962.00           2314       33006.00    144578.20
 1271.25        2962.25           2317       47970.00    210602.90
 1271.28        2962.50           2321       70860.00    312178.30
 1271.31        2962.75           2324       89009.00    393219.50
 1271.34        2963.00           2328      112767.00    499991.10
 1271.37        2963.25           2331      128812.00    572544.30
 1271.40        2963.50           2335      151865.00    677423.50
 1271.43        2963.75           2339      174823.00    782628.20
 1271.47        2964.00           2342      195132.00    876334.10
 1271.50        2964.25           2346      218668.00    985693.30
 1271.53        2964.50           2349      235689.00   1065299.00
 1271.56        2964.75           2353      257618.00   1168512.00
 1271.59        2965.00           2356      273193.00   1242269.00
 1271.62        2965.25           2360      293839.00   1340628.00
 1271.65        2965.50           2363      308514.00   1410952.00
 1271.68        2965.75           2367      329678.00   1512983.00
 1271.71        2966.00           2370      346942.00   1596754.00
 1271.74        2966.25           2374      366370.00   1691617.00
 1271.77        2966.50           2378      379388.00   1755536.00
 1271.80        2966.75           2381      384140.00   1778940.00
 1271.83        2967.00           2385      386193.00   1789063.00
 1271.86        2967.25           2388      387260.00   1794327.00
 1271.89        2967.50           2392      386092.00   1788565.00
 1271.92        2967.75           2395      386531.00   1790730.00
 1271.96        2968.00           2399      382283.00   1769789.00
 1271.99        2968.25           2402      372323.00   1720811.00
 1272.02        2968.50           2406      353731.00   1629832.00
 1272.05        2968.75           2409      339476.00   1560467.00
 1272.08        2969.00           2413      321809.00   1474962.00
 1272.11        2969.25           2417      299910.00   1369679.00
 1272.14        2969.50           2420      282474.00   1286401.00
 1272.17        2969.75           2424      258903.00   1174583.00
 1272.20        2970.00           2427      242366.00   1096648.00
 1272.23        2970.25           2431      219911.00    991491.90
 1272.26        2970.50           2434      204531.00    919907.10
 1272.29        2970.75           2438      180827.00    810267.60
 1272.32        2971.00           2441      162189.00    724638.80
 1272.35        2971.25           2445      137989.00    614204.30
 1272.38        2971.50           2449      113691.00    504159.50
 1272.41        2971.75           2452       95969.00    424417.90
 1272.44        2972.00           2456       72575.00    319817.10
 1272.47        2972.25           2459       54933.00    241427.00
 1272.51        2972.50           2463       32014.00    140211.70
 1272.54        2972.75           2466       18045.00     78862.44
 1272.57        2973.00           2470        6162.00     26875.46
 1272.60        2973.25           2473        2932.00     12776.26
 1272.63        2973.50           2477        1897.00      8261.26
 1272.66        2973.75           2481        1783.00      7764.04
 1272.69        2974.00           2484        1755.00      7641.92
 1272.72        2974.25           2488        1723.00      7502.35
 1272.75        2974.50           2491        1700.00      7402.04
 1272.78        2974.75           2495        1618.00      7044.41
 1272.81        2975.00           2498        1613.00      7022.60
 1272.84        2975.25           2502        1584.00      6896.12
 1272.87        2975.50           2505        1551.00      6752.20
 1272.90        2975.75           2509        1532.00      6669.34
 1272.93        2976.00           2512        1525.00      6638.81
 1272.96        2976.25           2516        1476.00      6425.12
 1273.00        2976.50           2520        1464.00      6372.78
 1273.03        2976.75           2523        1501.00      6534.15
 1273.06        2977.00           2527        1437.00      6255.04
 1273.09        2977.25           2530        1432.00      6233.23
 1273.12        2977.50           2534        1413.00      6150.37
 1273.15        2977.75           2537        1407.00      6124.20
 1273.18        2978.00           2541        1367.00      5949.76
 1273.21        2978.25           2544        1377.00      5993.38
 1273.24        2978.50           2548        1384.00      6023.90
 1273.27        2978.75           2552        1372.00      5971.57
 1273.30        2979.00           2555        1341.00      5836.38
 1273.33        2979.25           2559        1320.00      5744.80
 1273.36        2979.50           2562        1337.00      5818.94
 1273.39        2979.75           2566        1296.00      5640.14
 1273.42        2980.00           2569        1293.00      5627.06
 1273.45        2980.25           2573        1317.00      5731.72
 1273.48        2980.50           2577        1308.00      5692.47
 1273.52        2980.75           2580        1262.00      5491.87
 1273.55        2981.00           2584        1298.00      5648.86
 1273.58        2981.25           2587        1252.00      5448.26
 1273.61        2981.50           2591        1279.00      5566.01
 1273.64        2981.75           2594        1288.00      5605.25
 1273.67        2982.00           2598        1295.00      5635.78
 1273.70        2982.25           2601        1258.00      5474.43
 1273.73        2982.50           2605        1273.00      5539.84
 1273.76        2982.75           2609        1219.00      5304.36
 1273.79        2983.00           2612        1235.00      5374.13
 1273.82        2983.25           2616        1216.00      5291.27
 1273.85        2983.50           2619        1254.00      5456.99
 1273.88        2983.75           2623        1215.00      5286.91
 1273.91        2984.00           2626        1188.00      5169.17
HS scan finished at 21:14:08
end
