************************************************************
  HS Scan of (1) Internal mercury lamp
************************************************************
Integration time is 0.2294 seconds per sample
dh200518Reading 51.44 .94 3.15pr1000
************************************************************
Dead Time -------------------------  3.4E-08 
Number of Cycles Used -------------  4 
Starting Wavelength (Angstroms) ---  2950 
Final Wavelength (Angstoms) -------  2984 
Wavelength Increment (Angstroms) --  .25 
Filter Wheel #1 Position ---------- (1) Ground quartz diffuser (ND=2.32)
Filter Wheel #2 Position ---------- (1) Neutral Density 0.494



************************************************************
HS scan start time = 01:09:12
Dark Count =  1.1 


Time (GMT)  Wavelength (Ang)  Step Number  Raw Counts  Counts/Second

   70.10        2950.00           2144          80.00       343.94
   70.29        2950.25           2147         105.00       452.93
   70.32        2950.50           2151          84.00       361.38
   70.35        2950.75           2155          86.00       370.10
   70.38        2951.00           2158          84.00       361.38
   70.41        2951.25           2162          86.00       370.10
   70.44        2951.50           2165          81.00       348.30
   70.47        2951.75           2169          86.00       370.10
   70.51        2952.00           2172         102.00       439.85
   70.54        2952.25           2176         101.00       435.49
   70.57        2952.50           2179          94.00       404.98
   70.60        2952.75           2183          85.00       365.74
   70.63        2953.00           2186          94.00       404.98
   70.66        2953.25           2190          93.00       400.62
   70.69        2953.50           2193          89.00       383.18
   70.72        2953.75           2197          92.00       396.26
   70.75        2954.00           2200         110.00       474.72
   70.78        2954.25           2204          89.00       383.18
   70.81        2954.50           2208          98.00       422.41
   70.84        2954.75           2211          85.00       365.74
   70.87        2955.00           2215          87.00       374.46
   70.90        2955.25           2218          89.00       383.18
   70.93        2955.50           2222          98.00       422.41
   70.96        2955.75           2225          95.00       409.33
   70.99        2956.00           2229          91.00       391.90
   71.03        2956.25           2232          99.00       426.77
   71.06        2956.50           2236         134.00       579.35
   71.09        2956.75           2239          87.00       374.46
   71.12        2957.00           2243          96.00       413.69
   71.15        2957.25           2246          99.00       426.77
   71.18        2957.50           2250         125.00       540.11
   71.21        2957.75           2254         140.00       605.51
   71.24        2958.00           2257         115.00       496.52
   71.27        2958.25           2261         115.00       496.52
   71.30        2958.50           2264         103.00       444.21
   71.33        2958.75           2268         106.00       457.29
   71.36        2959.00           2271         122.00       527.04
   71.39        2959.25           2275         123.00       531.40
   71.42        2959.50           2278          99.00       426.77
   71.45        2959.75           2282         116.00       500.88
   71.48        2960.00           2285         130.00       561.91
   71.51        2960.25           2289         122.00       527.04
   71.54        2960.50           2293         161.00       697.05
   71.58        2960.75           2296         129.00       557.55
   71.61        2961.00           2300         190.00       823.48
   71.64        2961.25           2303         423.00      1839.26
   71.67        2961.50           2307        1261.00      5493.18
   71.70        2961.75           2310        2361.00     10290.87
   71.73        2962.00           2314        3931.00     17141.20
   71.76        2962.25           2317        5194.00     22654.32
   71.79        2962.50           2321        6995.00     30519.45
   71.82        2962.75           2324        8542.00     37278.70
   71.85        2963.00           2328       10423.00     45501.47
   71.88        2963.25           2331       11794.00     51497.68
   71.91        2963.50           2335       13664.00     59680.27
   71.94        2963.75           2339       15547.00     67924.34
   71.97        2964.00           2342       16819.00     73495.98
   72.00        2964.25           2346       18966.00     82905.12
   72.03        2964.50           2349       20342.00     88938.56
   72.06        2964.75           2353       22102.00     96659.34
   72.10        2965.00           2356       23211.00    101526.40
   72.13        2965.25           2360       25128.00    109943.40
   72.16        2965.50           2363       26268.00    114951.00
   72.19        2965.75           2367       27944.00    122316.30
   72.22        2966.00           2370       29479.00    129065.10
   72.25        2966.25           2374       30656.00    134242.10
   72.28        2966.50           2378       31420.00    137603.50
   72.31        2966.75           2381       31723.00    138936.80
   72.34        2967.00           2385       31693.00    138804.80
   72.37        2967.25           2388       31550.00    138175.50
   72.40        2967.50           2392       31751.00    139060.10
   72.43        2967.75           2395       31688.00    138782.80
   72.46        2968.00           2399       30541.00    133736.20
   72.49        2968.25           2402       29269.00    128141.60
   72.52        2968.50           2406       27559.00    120624.00
   72.55        2968.75           2409       26440.00    115706.70
   72.58        2969.00           2413       24841.00    108682.90
   72.62        2969.25           2417       23070.00    100907.50
   72.65        2969.50           2420       21634.00     94605.91
   72.68        2969.75           2424       19563.00     85522.52
   72.71        2970.00           2427       18168.00     79407.22
   72.74        2970.25           2431       16257.00     71034.04
   72.77        2970.50           2434       14928.00     65213.75
   72.80        2970.75           2438       12800.00     55899.08
   72.83        2971.00           2441       11372.00     49651.76
   72.86        2971.25           2445        9486.00     41404.81
   72.89        2971.50           2449        7595.00     33140.63
   72.92        2971.75           2452        6117.00     26684.62
   72.95        2972.00           2456        4396.00     19170.73
   72.98        2972.25           2459        3062.00     13349.13
   73.01        2972.50           2463        1552.00      6762.24
   73.04        2972.75           2466         731.00      3182.12
   73.07        2973.00           2470         276.00      1198.39
   73.10        2973.25           2473         155.00       670.90
   73.14        2973.50           2477         148.00       640.38
   73.17        2973.75           2481         141.00       609.86
   73.20        2974.00           2484         122.00       527.04
   73.23        2974.25           2488         159.00       688.33
   73.26        2974.50           2491         117.00       505.24
   73.29        2974.75           2495         147.00       636.02
   73.32        2975.00           2498         142.00       614.22
   73.35        2975.25           2502         130.00       561.91
   73.38        2975.50           2505         112.00       483.44
   73.41        2975.75           2509         110.00       474.72
   73.44        2976.00           2512         103.00       444.21
   73.47        2976.25           2516         113.00       487.80
   73.50        2976.50           2520         116.00       500.88
   73.53        2976.75           2523         109.00       470.37
   73.56        2977.00           2527         100.00       431.13
   73.59        2977.25           2530         117.00       505.24
   73.62        2977.50           2534          96.00       413.69
   73.66        2977.75           2537         145.00       627.30
   73.69        2978.00           2541          97.00       418.05
   73.72        2978.25           2544          99.00       426.77
   73.75        2978.50           2548          92.00       396.26
   73.78        2978.75           2552         102.00       439.85
   73.81        2979.00           2555          93.00       400.62
   73.84        2979.25           2559          95.00       409.33
   73.87        2979.50           2562          85.00       365.74
   73.90        2979.75           2566         120.00       518.32
   73.93        2980.00           2569          91.00       391.90
   73.96        2980.25           2573          96.00       413.69
   73.99        2980.50           2577          92.00       396.26
   74.02        2980.75           2580          95.00       409.33
   74.05        2981.00           2584          95.00       409.33
   74.08        2981.25           2587          84.00       361.38
   74.11        2981.50           2591          92.00       396.26
   74.14        2981.75           2594          84.00       361.38
   74.18        2982.00           2598          90.00       387.54
   74.21        2982.25           2601          80.00       343.94
   74.24        2982.50           2605          83.00       357.02
   74.27        2982.75           2609          90.00       387.54
   74.30        2983.00           2612          78.00       335.23
   74.33        2983.25           2616          87.00       374.46
   74.36        2983.50           2619          79.00       339.59
   74.39        2983.75           2623          79.00       339.59
   74.42        2984.00           2626          79.00       339.59
HS scan finished at 01:14:38
end
************************************************************
  HS Scan of (1) Internal mercury lamp
************************************************************
Integration time is 0.2294 seconds per sample
dh200518Reading 51.44 .94 3.7pr1000
************************************************************
Dead Time -------------------------  3.4E-08 
Number of Cycles Used -------------  4 
Starting Wavelength (Angstroms) ---  2950 
Final Wavelength (Angstoms) -------  2984 
Wavelength Increment (Angstroms) --  .25 
Filter Wheel #1 Position ---------- (1) Ground quartz diffuser (ND=2.32)
Filter Wheel #2 Position ---------- (1) Neutral Density 0.494



************************************************************
HS scan start time = 20:37:25
Dark Count =  5 


Time (GMT)  Wavelength (Ang)  Step Number  Raw Counts  Counts/Second

 1238.32        2950.00           2144          51.00       200.52
 1238.51        2950.25           2147          56.00       222.32
 1238.54        2950.50           2151          58.00       231.04
 1238.57        2950.75           2155          53.00       209.24
 1238.60        2951.00           2158          50.00       196.17
 1238.64        2951.25           2162          50.00       196.17
 1238.67        2951.50           2165          52.00       204.88
 1238.70        2951.75           2169          58.00       231.04
 1238.73        2952.00           2172          53.00       209.24
 1238.76        2952.25           2176          54.00       213.60
 1238.79        2952.50           2179          59.00       235.40
 1238.82        2952.75           2183          58.00       231.04
 1238.85        2953.00           2186          56.00       222.32
 1238.88        2953.25           2190          57.00       226.68
 1238.91        2953.50           2193          54.00       213.60
 1238.94        2953.75           2197          56.00       222.32
 1238.97        2954.00           2200          51.00       200.52
 1239.00        2954.25           2204          66.00       265.91
 1239.03        2954.50           2208          59.00       235.40
 1239.06        2954.75           2211          60.00       239.76
 1239.09        2955.00           2215          56.00       222.32
 1239.12        2955.25           2218          58.00       231.04
 1239.16        2955.50           2222          59.00       235.40
 1239.19        2955.75           2225          59.00       235.40
 1239.22        2956.00           2229          68.00       274.63
 1239.25        2956.25           2232          67.00       270.27
 1239.28        2956.50           2236          66.00       265.91
 1239.31        2956.75           2239          60.00       239.76
 1239.34        2957.00           2243          61.00       244.12
 1239.37        2957.25           2246          63.00       252.84
 1239.40        2957.50           2250          67.00       270.27
 1239.43        2957.75           2254          63.00       252.84
 1239.46        2958.00           2257          64.00       257.19
 1239.49        2958.25           2261          67.00       270.27
 1239.52        2958.50           2264          62.00       248.48
 1239.55        2958.75           2268          68.00       274.63
 1239.58        2959.00           2271          69.00       278.99
 1239.61        2959.25           2275          72.00       292.07
 1239.64        2959.50           2278          73.00       296.43
 1239.68        2959.75           2282          69.00       278.99
 1239.71        2960.00           2285          72.00       292.07
 1239.74        2960.25           2289          78.00       318.22
 1239.77        2960.50           2293          80.00       326.94
 1239.80        2960.75           2296          90.00       370.54
 1239.83        2961.00           2300          97.00       401.05
 1239.86        2961.25           2303         261.00      1116.00
 1239.89        2961.50           2307         898.00      3893.28
 1239.92        2961.75           2310        1587.00      6897.87
 1239.95        2962.00           2314        2567.00     11172.51
 1239.98        2962.25           2317        3371.00     14680.39
 1240.01        2962.50           2321        4445.00     19367.59
 1240.04        2962.75           2324        5290.00     23056.43
 1240.07        2963.00           2328        6429.00     28030.19
 1240.10        2963.25           2331        7184.00     31328.03
 1240.13        2963.50           2335        8311.00     36252.16
 1240.16        2963.75           2339        9482.00     41370.27
 1240.20        2964.00           2342       10628.00     46380.85
 1240.23        2964.25           2346       11744.00     51261.89
 1240.26        2964.50           2349       12662.00     55278.17
 1240.29        2964.75           2353       13661.00     59650.06
 1240.32        2965.00           2356       14590.00     63716.79
 1240.35        2965.25           2360       15666.00     68428.41
 1240.38        2965.50           2363       16516.00     72151.50
 1240.41        2965.75           2367       17593.00     76870.22
 1240.44        2966.00           2370       18139.00     79263.02
 1240.47        2966.25           2374       19214.00     83975.26
 1240.50        2966.50           2378       19424.00     84895.96
 1240.53        2966.75           2381       19484.00     85159.04
 1240.56        2967.00           2385       19495.00     85207.25
 1240.59        2967.25           2388       19482.00     85150.27
 1240.62        2967.50           2392       19648.00     85878.11
 1240.65        2967.75           2395       19201.00     83918.27
 1240.68        2968.00           2399       18383.00     80332.46
 1240.71        2968.25           2402       17574.00     76786.96
 1240.75        2968.50           2406       16568.00     72379.30
 1240.78        2968.75           2409       15726.00     68691.19
 1240.81        2969.00           2413       14828.00     64758.82
 1240.84        2969.25           2417       13767.00     60114.03
 1240.87        2969.50           2420       12966.00     56608.42
 1240.90        2969.75           2424       11711.00     51117.54
 1240.93        2970.00           2427       10780.00     47045.55
 1240.96        2970.25           2431        9716.00     42393.24
 1240.99        2970.50           2434        8860.00     38651.46
 1241.02        2970.75           2438        7786.00     33958.10
 1241.05        2971.00           2441        7014.00     30585.41
 1241.08        2971.25           2445        5969.00     26021.27
 1241.11        2971.50           2449        4857.00     21166.06
 1241.14        2971.75           2452        4025.00     17534.43
 1241.17        2972.00           2456        2855.00     12428.97
 1241.20        2972.25           2459        2011.00      8747.15
 1241.24        2972.50           2463        1013.00      4394.73
 1241.27        2972.75           2466         550.00      2375.96
 1241.30        2973.00           2470         179.00       758.52
 1241.33        2973.25           2473         122.00       510.03
 1241.36        2973.50           2477          87.00       357.46
 1241.39        2973.75           2481          76.00       309.51
 1241.42        2974.00           2484          78.00       318.22
 1241.45        2974.25           2488          71.00       287.71
 1241.48        2974.50           2491          74.00       300.79
 1241.51        2974.75           2495          80.00       326.94
 1241.54        2975.00           2498          68.00       274.63
 1241.57        2975.25           2502          76.00       309.51
 1241.60        2975.50           2505          71.00       287.71
 1241.63        2975.75           2509          68.00       274.63
 1241.66        2976.00           2512          64.00       257.19
 1241.69        2976.25           2516          64.00       257.19
 1241.72        2976.50           2520          63.00       252.84
 1241.76        2976.75           2523          62.00       248.48
 1241.79        2977.00           2527          64.00       257.19
 1241.82        2977.25           2530          65.00       261.55
 1241.85        2977.50           2534          59.00       235.40
 1241.88        2977.75           2537          62.00       248.48
 1241.91        2978.00           2541          64.00       257.19
 1241.94        2978.25           2544          71.00       287.71
 1241.97        2978.50           2548          61.00       244.12
 1242.00        2978.75           2552          62.00       248.48
 1242.03        2979.00           2555          65.00       261.55
 1242.06        2979.25           2559          55.00       217.96
 1242.09        2979.50           2562          54.00       213.60
 1242.12        2979.75           2566          61.00       244.12
 1242.15        2980.00           2569          59.00       235.40
 1242.18        2980.25           2573          60.00       239.76
 1242.21        2980.50           2577          59.00       235.40
 1242.24        2980.75           2580          65.00       261.55
 1242.27        2981.00           2584          56.00       222.32
 1242.31        2981.25           2587          57.00       226.68
 1242.34        2981.50           2591          59.00       235.40
 1242.37        2981.75           2594          53.00       209.24
 1242.40        2982.00           2598          61.00       244.12
 1242.43        2982.25           2601          57.00       226.68
 1242.46        2982.50           2605          54.00       213.60
 1242.49        2982.75           2609          50.00       196.17
 1242.52        2983.00           2612          60.00       239.76
 1242.55        2983.25           2616          54.00       213.60
 1242.58        2983.50           2619          62.00       248.48
 1242.61        2983.75           2623          57.00       226.68
 1242.64        2984.00           2626          57.00       226.68
HS scan finished at 20:42:52
end
