************************************************************
  HS Scan of (1) Internal mercury lamp
************************************************************
Integration time is 0.2294 seconds per sample
dh270519Reading 51.44 .94 3.13pr1000
************************************************************
Dead Time -------------------------  3.4E-08 
Number of Cycles Used -------------  4 
Starting Wavelength (Angstroms) ---  2950 
Final Wavelength (Angstoms) -------  2984 
Wavelength Increment (Angstroms) --  .25 
Filter Wheel #1 Position ---------- (1) Ground quartz diffuser (ND=2.32)
Filter Wheel #2 Position ---------- (1) Neutral Density 0.494



************************************************************
HS scan start time = 01:09:46
Dark Count =  1.1 


Time (GMT)  Wavelength (Ang)  Step Number  Raw Counts  Counts/Second

   70.67        2950.00           2144        1471.00      6408.98
   70.86        2950.25           2147        1476.00      6430.79
   70.89        2950.50           2151        1466.00      6387.18
   70.92        2950.75           2155        1471.00      6408.98
   70.95        2951.00           2158        1469.00      6400.26
   70.98        2951.25           2162        1523.00      6635.76
   71.01        2951.50           2165        1483.00      6461.32
   71.04        2951.75           2169        1496.00      6518.01
   71.07        2952.00           2172        1511.00      6583.43
   71.10        2952.25           2176        1586.00      6910.52
   71.13        2952.50           2179        1529.00      6661.93
   71.17        2952.75           2183        1553.00      6766.60
   71.20        2953.00           2186        1557.00      6784.04
   71.23        2953.25           2190        1558.00      6788.40
   71.26        2953.50           2193        1516.00      6605.23
   71.29        2953.75           2197        1561.00      6801.49
   71.32        2954.00           2200        1560.00      6797.12
   71.35        2954.25           2204        1593.00      6941.05
   71.38        2954.50           2208        1577.00      6871.27
   71.41        2954.75           2211        1579.00      6879.99
   71.44        2955.00           2215        1619.00      7054.44
   71.47        2955.25           2218        1599.00      6967.21
   71.50        2955.50           2222        1610.00      7015.19
   71.53        2955.75           2225        1629.00      7098.05
   71.56        2956.00           2229        1603.00      6984.66
   71.59        2956.25           2232        1614.00      7032.63
   71.62        2956.50           2236        1629.00      7098.05
   71.65        2956.75           2239        1669.00      7272.50
   71.69        2957.00           2243        1648.00      7180.92
   71.72        2957.25           2246        1696.00      7390.26
   71.75        2957.50           2250        1739.00      7577.80
   71.78        2957.75           2254        1792.00      7808.96
   71.81        2958.00           2257        1720.00      7494.94
   71.84        2958.25           2261        1775.00      7734.82
   71.87        2958.50           2264        1776.00      7739.18
   71.90        2958.75           2268        1817.00      7918.00
   71.93        2959.00           2271        1861.00      8109.91
   71.96        2959.25           2275        1837.00      8005.23
   71.99        2959.50           2278        1832.00      7983.42
   72.02        2959.75           2282        1909.00      8319.27
   72.05        2960.00           2285        1895.00      8258.20
   72.08        2960.25           2289        1955.00      8519.90
   72.11        2960.50           2293        1989.00      8668.20
   72.14        2960.75           2296        2072.00      9030.24
   72.17        2961.00           2300        2274.00      9911.36
   72.21        2961.25           2303        3100.00     13514.93
   72.24        2961.50           2307        9420.00     41116.29
   72.27        2961.75           2310       20076.00     87772.01
   72.30        2962.00           2314       39280.00    172230.10
   72.33        2962.25           2317       56644.00    249017.00
   72.36        2962.50           2321       82027.00    361995.20
   72.39        2962.75           2324      101260.00    448185.40
   72.42        2963.00           2328      129741.00    576762.00
   72.45        2963.25           2331      150432.00    670888.00
   72.48        2963.50           2335      175334.00    784984.60
   72.51        2963.75           2339      199711.00    897551.60
   72.54        2964.00           2342      219554.00    989832.40
   72.57        2964.25           2346      246860.00   1117791.00
   72.61        2964.50           2349      265747.00   1206967.00
   72.64        2964.75           2353      289599.00   1320380.00
   72.67        2965.00           2356      307494.00   1406059.00
   72.70        2965.25           2360      329151.00   1510440.00
   72.73        2965.50           2363      345881.00   1591598.00
   72.76        2965.75           2367      369263.00   1705804.00
   72.79        2966.00           2370      388549.00   1800696.00
   72.82        2966.25           2374      410469.00   1909321.00
   72.85        2966.50           2378      424826.00   1980920.00
   72.88        2966.75           2381      428997.00   2001789.00
   72.91        2967.00           2385      429558.00   2004598.00
   72.94        2967.25           2388      430657.00   2010103.00
   72.97        2967.50           2392      431061.00   2012127.00
   73.00        2967.75           2395      429815.00   2005885.00
   73.03        2968.00           2399      424803.00   1980805.00
   73.06        2968.25           2402      414551.00   1929641.00
   73.09        2968.50           2406      393828.00   1826780.00
   73.13        2968.75           2409      375267.00   1735277.00
   73.16        2969.00           2413      353824.00   1630292.00
   73.19        2969.25           2417      331757.00   1523052.00
   73.22        2969.50           2420      313607.00   1435445.00
   73.25        2969.75           2424      288123.00   1313335.00
   73.28        2970.00           2427      267075.00   1213258.00
   73.31        2970.25           2431      240568.00   1088206.00
   73.34        2970.50           2434      222423.00   1003224.00
   73.37        2970.75           2438      197761.00    888514.80
   73.40        2971.00           2441      176541.00    790537.80
   73.43        2971.25           2445      148107.00    660280.80
   73.46        2971.50           2449      121343.00    538731.50
   73.49        2971.75           2452      100918.00    446648.30
   73.52        2972.00           2456       75062.00    330907.50
   73.55        2972.25           2459       56518.00    248458.40
   73.58        2972.50           2463       31912.00    139768.60
   73.61        2972.75           2466       16710.00     73018.46
   73.64        2973.00           2470        5691.00     24824.35
   73.68        2973.25           2473        3022.00     13174.60
   73.71        2973.50           2477        2229.00      9715.06
   73.74        2973.75           2481        2087.00      9095.66
   73.77        2974.00           2484        2009.00      8755.44
   73.80        2974.25           2488        1958.00      8532.99
   73.83        2974.50           2491        1931.00      8415.22
   73.86        2974.75           2495        1917.00      8354.16
   73.89        2975.00           2498        1883.00      8205.86
   73.92        2975.25           2502        1866.00      8131.72
   73.95        2975.50           2505        1883.00      8205.86
   73.98        2975.75           2509        1808.00      7878.75
   74.01        2976.00           2512        1821.00      7935.45
   74.04        2976.25           2516        1727.00      7525.47
   74.07        2976.50           2520        1760.00      7669.39
   74.10        2976.75           2523        1731.00      7542.91
   74.13        2977.00           2527        1678.00      7311.76
   74.16        2977.25           2530        1681.00      7324.84
   74.20        2977.50           2534        1659.00      7228.89
   74.23        2977.75           2537        1689.00      7359.73
   74.26        2978.00           2541        1627.00      7089.33
   74.29        2978.25           2544        1649.00      7185.28
   74.32        2978.50           2548        1631.00      7106.77
   74.35        2978.75           2552        1588.00      6919.24
   74.38        2979.00           2555        1568.00      6832.01
   74.41        2979.25           2559        1563.00      6810.21
   74.44        2979.50           2562        1563.00      6810.21
   74.47        2979.75           2566        1549.00      6749.15
   74.50        2980.00           2569        1541.00      6714.26
   74.53        2980.25           2573        1531.00      6670.65
   74.56        2980.50           2577        1536.00      6692.46
   74.59        2980.75           2580        1488.00      6483.12
   74.62        2981.00           2584        1541.00      6714.26
   74.65        2981.25           2587        1495.00      6513.65
   74.68        2981.50           2591        1482.00      6456.95
   74.72        2981.75           2594        1496.00      6518.01
   74.75        2982.00           2598        1531.00      6670.65
   74.78        2982.25           2601        1465.00      6382.82
   74.82        2982.50           2605        1409.00      6138.60
   74.85        2982.75           2609        1453.00      6330.48
   74.88        2983.00           2612        1483.00      6461.32
   74.91        2983.25           2616        1442.00      6282.51
   74.94        2983.50           2619        1440.00      6273.79
   74.98        2983.75           2623        1422.00      6195.29
   75.01        2984.00           2626        1423.00      6199.65
HS scan finished at 01:15:14
end
************************************************************
  HS Scan of (1) Internal mercury lamp
************************************************************
Integration time is 0.2294 seconds per sample
dh270519Reading 51.44 .94 3.25pr1000
************************************************************
Dead Time -------------------------  3.4E-08 
Number of Cycles Used -------------  4 
Starting Wavelength (Angstroms) ---  2950 
Final Wavelength (Angstoms) -------  2984 
Wavelength Increment (Angstroms) --  .25 
Filter Wheel #1 Position ---------- (1) Ground quartz diffuser (ND=2.32)
Filter Wheel #2 Position ---------- (1) Neutral Density 0.494



************************************************************
HS scan start time = 21:08:42
Dark Count =  1.2 


Time (GMT)  Wavelength (Ang)  Step Number  Raw Counts  Counts/Second

 1269.60        2950.00           2144        1462.00      6369.30
 1269.80        2950.25           2147        1459.00      6356.21
 1269.83        2950.50           2151        1476.00      6430.35
 1269.86        2950.75           2155        1480.00      6447.80
 1269.89        2951.00           2158        1448.00      6308.24
 1269.92        2951.25           2162        1452.00      6325.68
 1269.95        2951.50           2165        1513.00      6591.71
 1269.98        2951.75           2169        1515.00      6600.44
 1270.01        2952.00           2172        1452.00      6325.68
 1270.04        2952.25           2176        1471.00      6408.55
 1270.07        2952.50           2179        1515.00      6600.44
 1270.10        2952.75           2183        1477.00      6434.71
 1270.13        2953.00           2186        1503.00      6548.10
 1270.16        2953.25           2190        1558.00      6787.97
 1270.20        2953.50           2193        1482.00      6456.52
 1270.23        2953.75           2197        1494.00      6508.85
 1270.26        2954.00           2200        1553.00      6766.16
 1270.29        2954.25           2204        1528.00      6657.13
 1270.32        2954.50           2208        1511.00      6582.99
 1270.35        2954.75           2211        1556.00      6779.24
 1270.38        2955.00           2215        1570.00      6840.30
 1270.42        2955.25           2218        1567.00      6827.22
 1270.45        2955.50           2222        1555.00      6774.88
 1270.48        2955.75           2225        1576.00      6866.47
 1270.51        2956.00           2229        1624.00      7075.81
 1270.54        2956.25           2232        1567.00      6827.22
 1270.57        2956.50           2236        1623.00      7071.45
 1270.61        2956.75           2239        1597.00      6958.05
 1270.64        2957.00           2243        1605.00      6992.95
 1270.67        2957.25           2246        1651.00      7193.56
 1270.70        2957.50           2250        1632.00      7110.70
 1270.73        2957.75           2254        1684.00      7337.49
 1270.76        2958.00           2257        1634.00      7119.42
 1270.79        2958.25           2261        1679.00      7315.68
 1270.82        2958.50           2264        1698.00      7398.55
 1270.85        2958.75           2268        1696.00      7389.83
 1270.88        2959.00           2271        1737.00      7568.64
 1270.91        2959.25           2275        1772.00      7721.29
 1270.94        2959.50           2278        1759.00      7664.60
 1270.97        2959.75           2282        1817.00      7917.56
 1271.00        2960.00           2285        1842.00      8026.60
 1271.03        2960.25           2289        1889.00      8231.60
 1271.06        2960.50           2293        1879.00      8187.98
 1271.10        2960.75           2296        1933.00      8423.51
 1271.13        2961.00           2300        2074.00      9038.52
 1271.16        2961.25           2303        2383.00     10386.41
 1271.19        2961.50           2307        6282.00     27404.77
 1271.22        2961.75           2310       15806.00     69058.21
 1271.25        2962.00           2314       33549.00    146974.10
 1271.28        2962.25           2317       47303.00    207658.90
 1271.31        2962.50           2321       70397.00    310122.00
 1271.34        2962.75           2324       88868.00    392593.50
 1271.37        2963.00           2328      115803.00    513697.20
 1271.40        2963.25           2331      133243.00    592649.80
 1271.43        2963.50           2335      158912.00    709640.80
 1271.46        2963.75           2339      183440.00    822318.70
 1271.49        2964.00           2342      201360.00    905197.60
 1271.52        2964.25           2346      225785.00   1018931.00
 1271.55        2964.50           2349      246804.00   1117527.00
 1271.58        2964.75           2353      272511.00   1239037.00
 1271.62        2965.00           2356      290712.00   1325693.00
 1271.65        2965.25           2360      313218.00   1433573.00
 1271.68        2965.50           2363      330875.00   1518782.00
 1271.71        2965.75           2367      352630.00   1624469.00
 1271.74        2966.00           2370      368354.00   1701346.00
 1271.77        2966.25           2374      388082.00   1798390.00
 1271.80        2966.50           2378      406041.00   1887310.00
 1271.83        2966.75           2381      412536.00   1919606.00
 1271.86        2967.00           2385      414692.00   1930343.00
 1271.89        2967.25           2388      415669.00   1935211.00
 1271.92        2967.50           2392      415175.00   1932749.00
 1271.95        2967.75           2395      414730.00   1930532.00
 1271.98        2968.00           2399      409289.00   1903452.00
 1272.01        2968.25           2402      398097.00   1847909.00
 1272.04        2968.50           2406      379461.00   1755901.00
 1272.07        2968.75           2409      364410.00   1682024.00
 1272.10        2969.00           2413      342598.00   1575636.00
 1272.13        2969.25           2417      321058.00   1471345.00
 1272.17        2969.50           2420      304205.00   1390273.00
 1272.20        2969.75           2424      279278.00   1271194.00
 1272.23        2970.00           2427      260371.00   1181527.00
 1272.26        2970.25           2431      234131.00   1058000.00
 1272.29        2970.50           2434      215814.00    972393.80
 1272.32        2970.75           2438      191551.00    859772.80
 1272.35        2971.00           2441      174945.00    783194.80
 1272.38        2971.25           2445      151559.00    676031.90
 1272.41        2971.50           2449      128098.00    569313.30
 1272.44        2971.75           2452      109115.00    483533.10
 1272.47        2972.00           2456       84329.00    372284.10
 1272.50        2972.25           2459       65084.00    286485.80
 1272.53        2972.50           2463       39640.00    173817.60
 1272.56        2972.75           2466       23238.00    101644.50
 1272.59        2973.00           2470        9294.00     40565.07
 1272.62        2973.25           2473        4506.00     19650.44
 1272.65        2973.50           2477        2338.00     10190.10
 1272.69        2973.75           2481        2034.00      8864.05
 1272.72        2974.00           2484        1954.00      8515.11
 1272.75        2974.25           2488        1953.00      8510.75
 1272.78        2974.50           2491        1948.00      8488.94
 1272.81        2974.75           2495        1909.00      8318.83
 1272.84        2975.00           2498        1803.00      7856.50
 1272.87        2975.25           2502        1845.00      8039.69
 1272.90        2975.50           2505        1818.00      7921.93
 1272.93        2975.75           2509        1775.00      7734.38
 1272.96        2976.00           2512        1768.00      7703.85
 1272.99        2976.25           2516        1700.00      7407.27
 1273.02        2976.50           2520        1681.00      7324.40
 1273.05        2976.75           2523        1689.00      7359.30
 1273.08        2977.00           2527        1657.00      7219.73
 1273.11        2977.25           2530        1626.00      7084.53
 1273.14        2977.50           2534        1602.00      6979.86
 1273.17        2977.75           2537        1622.00      7067.09
 1273.21        2978.00           2541        1592.00      6936.25
 1273.24        2978.25           2544        1607.00      7001.67
 1273.27        2978.50           2548        1546.00      6735.63
 1273.30        2978.75           2552        1570.00      6840.30
 1273.33        2979.00           2555        1597.00      6958.05
 1273.36        2979.25           2559        1509.00      6574.27
 1273.39        2979.50           2562        1521.00      6626.60
 1273.42        2979.75           2566        1477.00      6434.71
 1273.45        2980.00           2569        1526.00      6648.41
 1273.48        2980.25           2573        1482.00      6456.52
 1273.51        2980.50           2577        1463.00      6373.66
 1273.54        2980.75           2580        1482.00      6456.52
 1273.57        2981.00           2584        1464.00      6378.02
 1273.60        2981.25           2587        1424.00      6203.58
 1273.63        2981.50           2591        1461.00      6364.94
 1273.66        2981.75           2594        1438.00      6264.63
 1273.69        2982.00           2598        1453.00      6330.05
 1273.73        2982.25           2601        1445.00      6295.16
 1273.76        2982.50           2605        1430.00      6229.74
 1273.79        2982.75           2609        1384.00      6029.14
 1273.82        2983.00           2612        1441.00      6277.71
 1273.85        2983.25           2616        1437.00      6260.27
 1273.88        2983.50           2619        1387.00      6042.22
 1273.91        2983.75           2623        1392.00      6064.02
 1273.94        2984.00           2626        1415.00      6164.33
HS scan finished at 21:14:10
end
