************************************************************
  HS Scan of (1) Internal mercury lamp
************************************************************
Integration time is 0.2294 seconds per sample
dh300518Reading 51.44 .94 3.54pr1000
************************************************************
Dead Time -------------------------  3.4E-08 
Number of Cycles Used -------------  4 
Starting Wavelength (Angstroms) ---  2950 
Final Wavelength (Angstoms) -------  2984 
Wavelength Increment (Angstroms) --  .25 
Filter Wheel #1 Position ---------- (1) Ground quartz diffuser (ND=2.32)
Filter Wheel #2 Position ---------- (1) Neutral Density 0.494



************************************************************
HS scan start time = 02:33:11
Dark Count =  3.2 


Time (GMT)  Wavelength (Ang)  Step Number  Raw Counts  Counts/Second

  154.09        2950.00           2144          60.00       247.60
  154.28        2950.25           2147          63.00       260.68
  154.31        2950.50           2151          65.00       269.40
  154.34        2950.75           2155          55.00       225.81
  154.37        2951.00           2158          55.00       225.81
  154.40        2951.25           2162          62.00       256.32
  154.43        2951.50           2165          57.00       234.53
  154.46        2951.75           2169          62.00       256.32
  154.49        2952.00           2172          51.00       208.37
  154.52        2952.25           2176          58.00       238.89
  154.55        2952.50           2179          61.00       251.96
  154.58        2952.75           2183          61.00       251.96
  154.62        2953.00           2186          60.00       247.60
  154.65        2953.25           2190          65.00       269.40
  154.68        2953.50           2193          60.00       247.60
  154.71        2953.75           2197          62.00       256.32
  154.74        2954.00           2200          61.00       251.96
  154.77        2954.25           2204          59.00       243.25
  154.80        2954.50           2208          70.00       291.20
  154.83        2954.75           2211          67.00       278.12
  154.86        2955.00           2215          61.00       251.96
  154.89        2955.25           2218          58.00       238.89
  154.92        2955.50           2222          56.00       230.17
  154.95        2955.75           2225          62.00       256.32
  154.98        2956.00           2229          63.00       260.68
  155.01        2956.25           2232          61.00       251.96
  155.04        2956.50           2236          65.00       269.40
  155.07        2956.75           2239          64.00       265.04
  155.10        2957.00           2243          64.00       265.04
  155.14        2957.25           2246          59.00       243.25
  155.17        2957.50           2250          68.00       282.48
  155.20        2957.75           2254          66.00       273.76
  155.23        2958.00           2257          74.00       308.63
  155.26        2958.25           2261          72.00       299.92
  155.29        2958.50           2264          69.00       286.84
  155.32        2958.75           2268          64.00       265.04
  155.35        2959.00           2271          67.00       278.12
  155.38        2959.25           2275          74.00       308.63
  155.41        2959.50           2278          69.00       286.84
  155.44        2959.75           2282          73.00       304.28
  155.47        2960.00           2285          79.00       330.43
  155.50        2960.25           2289          80.00       334.79
  155.53        2960.50           2293          85.00       356.59
  155.56        2960.75           2296          82.00       343.51
  155.59        2961.00           2300         108.00       456.85
  155.62        2961.25           2303         222.00       953.82
  155.66        2961.50           2307         793.00      3443.30
  155.69        2961.75           2310        1376.00      5985.53
  155.72        2962.00           2314        2346.00     10216.28
  155.75        2962.25           2317        3240.00     14116.63
  155.78        2962.50           2321        4112.00     17921.99
  155.81        2962.75           2324        4901.00     21366.00
  155.84        2963.00           2328        5951.00     25950.52
  155.87        2963.25           2331        6819.00     29741.48
  155.90        2963.50           2335        7978.00     34804.90
  155.93        2963.75           2339        9184.00     40075.50
  155.96        2964.00           2342        9885.00     43139.96
  155.99        2964.25           2346       10921.00     47670.05
  156.02        2964.50           2349       11424.00     49870.02
  156.05        2964.75           2353       12787.00     55833.00
  156.08        2965.00           2356       13625.00     59500.37
  156.11        2965.25           2360       15070.00     65826.33
  156.14        2965.50           2363       16068.00     70196.98
  156.18        2965.75           2367       16995.00     74257.88
  156.21        2966.00           2370       17587.00     76851.83
  156.24        2966.25           2374       18723.00     81830.68
  156.27        2966.50           2378       19031.00     83180.87
  156.30        2966.75           2381       20268.00     88604.81
  156.33        2967.00           2385       20282.00     88666.21
  156.36        2967.25           2388       20217.00     88381.14
  156.39        2967.50           2392       20108.00     87903.13
  156.42        2967.75           2395       19877.00     86890.16
  156.45        2968.00           2399       19189.00     83873.55
  156.48        2968.25           2402       18439.00     80585.81
  156.51        2968.50           2406       16757.00     73215.16
  156.54        2968.75           2409       15773.00     68904.93
  156.57        2969.00           2413       14588.00     63715.91
  156.60        2969.25           2417       13792.00     60231.33
  156.63        2969.50           2420       12975.00     56655.67
  156.66        2969.75           2424       11845.00     51711.59
  156.70        2970.00           2427       10996.00     47998.06
  156.73        2970.25           2431        9934.00     43354.18
  156.76        2970.50           2434        8962.00     39105.15
  156.79        2970.75           2438        7771.00     33900.43
  156.82        2971.00           2441        6832.00     29798.26
  156.85        2971.25           2445        5679.00     24762.78
  156.88        2971.50           2449        4709.00     20527.84
  156.91        2971.75           2452        3841.00     16739.26
  156.94        2972.00           2456        2739.00     11930.73
  156.97        2972.25           2459        1898.00      8262.13
  157.00        2972.50           2463         904.00      3927.29
  157.03        2972.75           2466         407.00      1760.35
  157.06        2973.00           2470         167.00       714.05
  157.09        2973.25           2473         100.00       421.98
  157.12        2973.50           2477          89.00       374.02
  157.15        2973.75           2481          78.00       326.07
  157.18        2974.00           2484          81.00       339.15
  157.21        2974.25           2488          91.00       382.74
  157.25        2974.50           2491          79.00       330.43
  157.28        2974.75           2495          70.00       291.20
  157.31        2975.00           2498          82.00       343.51
  157.34        2975.25           2502          75.00       312.99
  157.37        2975.50           2505          73.00       304.28
  157.40        2975.75           2509          76.00       317.35
  157.43        2976.00           2512          71.00       295.56
  157.46        2976.25           2516          80.00       334.79
  157.49        2976.50           2520          69.00       286.84
  157.52        2976.75           2523          70.00       291.20
  157.55        2977.00           2527          69.00       286.84
  157.58        2977.25           2530          68.00       282.48
  157.61        2977.50           2534          70.00       291.20
  157.64        2977.75           2537          70.00       291.20
  157.67        2978.00           2541          72.00       299.92
  157.70        2978.25           2544          61.00       251.96
  157.74        2978.50           2548          62.00       256.32
  157.77        2978.75           2552          67.00       278.12
  157.80        2979.00           2555          70.00       291.20
  157.83        2979.25           2559          62.00       256.32
  157.86        2979.50           2562          63.00       260.68
  157.89        2979.75           2566          60.00       247.60
  157.92        2980.00           2569          54.00       221.45
  157.95        2980.25           2573          67.00       278.12
  157.98        2980.50           2577          54.00       221.45
  158.01        2980.75           2580          59.00       243.25
  158.04        2981.00           2584          57.00       234.53
  158.07        2981.25           2587          61.00       251.96
  158.10        2981.50           2591          58.00       238.89
  158.13        2981.75           2594          60.00       247.60
  158.16        2982.00           2598          65.00       269.40
  158.19        2982.25           2601          58.00       238.89
  158.22        2982.50           2605          58.00       238.89
  158.25        2982.75           2609          61.00       251.96
  158.29        2983.00           2612          60.00       247.60
  158.32        2983.25           2616          51.00       208.37
  158.35        2983.50           2619          61.00       251.96
  158.38        2983.75           2623          60.00       247.60
  158.41        2984.00           2626          55.00       225.81
HS scan finished at 02:38:38
end
************************************************************
  HS Scan of (1) Internal mercury lamp
************************************************************
Integration time is 0.2294 seconds per sample
dh300518Reading 51.44 .94 3.62pr1000
************************************************************
Dead Time -------------------------  3.4E-08 
Number of Cycles Used -------------  4 
Starting Wavelength (Angstroms) ---  2950 
Final Wavelength (Angstoms) -------  2984 
Wavelength Increment (Angstroms) --  .25 
Filter Wheel #1 Position ---------- (1) Ground quartz diffuser (ND=2.32)
Filter Wheel #2 Position ---------- (1) Neutral Density 0.494



************************************************************
HS scan start time = 21:07:23
Dark Count =  2.9 


Time (GMT)  Wavelength (Ang)  Step Number  Raw Counts  Counts/Second

 1268.27        2950.00           2144          56.00       231.48
 1268.47        2950.25           2147          55.00       227.12
 1268.50        2950.50           2151          56.00       231.48
 1268.53        2950.75           2155          55.00       227.12
 1268.56        2951.00           2158          61.00       253.27
 1268.59        2951.25           2162          48.00       196.60
 1268.63        2951.50           2165          52.00       214.04
 1268.67        2951.75           2169          55.00       227.12
 1268.70        2952.00           2172          58.00       240.19
 1268.73        2952.25           2176          63.00       261.99
 1268.76        2952.50           2179          47.00       192.24
 1268.79        2952.75           2183          55.00       227.12
 1268.82        2953.00           2186          52.00       214.04
 1268.86        2953.25           2190          54.00       222.76
 1268.89        2953.50           2193          59.00       244.55
 1268.92        2953.75           2197          54.00       222.76
 1268.95        2954.00           2200          56.00       231.48
 1268.98        2954.25           2204          58.00       240.19
 1269.01        2954.50           2208          58.00       240.19
 1269.04        2954.75           2211          55.00       227.12
 1269.07        2955.00           2215          57.00       235.83
 1269.10        2955.25           2218          62.00       257.63
 1269.13        2955.50           2222          64.00       266.35
 1269.16        2955.75           2225          58.00       240.19
 1269.19        2956.00           2229          56.00       231.48
 1269.22        2956.25           2232          65.00       270.71
 1269.25        2956.50           2236          58.00       240.19
 1269.29        2956.75           2239          60.00       248.91
 1269.32        2957.00           2243          71.00       296.86
 1269.35        2957.25           2246          65.00       270.71
 1269.38        2957.50           2250          67.00       279.43
 1269.41        2957.75           2254          68.00       283.79
 1269.44        2958.00           2257          67.00       279.43
 1269.47        2958.25           2261          71.00       296.86
 1269.50        2958.50           2264          66.00       275.07
 1269.53        2958.75           2268          64.00       266.35
 1269.56        2959.00           2271          63.00       261.99
 1269.59        2959.25           2275          63.00       261.99
 1269.62        2959.50           2278          61.00       253.27
 1269.65        2959.75           2282          67.00       279.43
 1269.68        2960.00           2285          72.00       301.22
 1269.71        2960.25           2289          75.00       314.30
 1269.74        2960.50           2293          71.00       296.86
 1269.77        2960.75           2296          83.00       349.18
 1269.81        2961.00           2300         115.00       488.67
 1269.84        2961.25           2303         278.00      1199.26
 1269.87        2961.50           2307         865.00      3758.54
 1269.90        2961.75           2310        1489.00      6479.63
 1269.93        2962.00           2314        2496.00     10871.94
 1269.96        2962.25           2317        3306.00     14405.92
 1269.99        2962.50           2321        4280.00     18656.56
 1270.02        2962.75           2324        5104.00     22253.54
 1270.05        2963.00           2328        6126.00     26716.06
 1270.08        2963.25           2331        6894.00     30070.40
 1270.11        2963.50           2335        7585.00     33089.08
 1270.14        2963.75           2339        8709.00     38000.68
 1270.17        2964.00           2342        9501.00     41462.51
 1270.20        2964.25           2346       10452.00     45620.40
 1270.23        2964.50           2349       11281.00     49245.85
 1270.26        2964.75           2353       12065.00     52675.34
 1270.29        2965.00           2356       12946.00     56530.09
 1270.33        2965.25           2360       13923.00     60806.05
 1270.36        2965.50           2363       14706.00     64233.85
 1270.39        2965.75           2367       15887.00     69405.53
 1270.42        2966.00           2370       16273.00     71096.24
 1270.45        2966.25           2374       16826.00     73518.77
 1270.48        2966.50           2378       17113.00     74776.18
 1270.51        2966.75           2381       17205.00     75179.28
 1270.54        2967.00           2385       17211.00     75205.57
 1270.57        2967.25           2388       17205.00     75179.28
 1270.60        2967.50           2392       17368.00     75893.50
 1270.63        2967.75           2395       17164.00     74999.63
 1270.66        2968.00           2399       16594.00     72502.40
 1270.69        2968.25           2402       15994.00     69874.18
 1270.72        2968.50           2406       15062.00     65792.60
 1270.75        2968.75           2409       14279.00     62364.44
 1270.78        2969.00           2413       13323.00     58179.93
 1270.81        2969.25           2417       12258.00     53519.71
 1270.85        2969.50           2420       11535.00     50356.85
 1270.88        2969.75           2424       10631.00     46403.15
 1270.91        2970.00           2427        9860.00     43031.96
 1270.94        2970.25           2431        8817.00     38472.70
 1270.97        2970.50           2434        7968.00     34762.51
 1271.00        2970.75           2438        6840.00     29834.52
 1271.03        2971.00           2441        6066.00     26454.04
 1271.06        2971.25           2445        5095.00     22214.25
 1271.09        2971.50           2449        4150.00     18089.15
 1271.12        2971.75           2452        3476.00     15147.73
 1271.15        2972.00           2456        2609.00     11364.90
 1271.18        2972.25           2459        1892.00      8237.27
 1271.21        2972.50           2463         925.00      4020.17
 1271.24        2972.75           2466         404.00      1748.58
 1271.27        2973.00           2470         145.00       619.46
 1271.30        2973.25           2473          92.00       388.41
 1271.33        2973.50           2477          83.00       349.18
 1271.36        2973.75           2481          72.00       301.22
 1271.40        2974.00           2484          73.00       305.58
 1271.43        2974.25           2488          77.00       323.02
 1271.46        2974.50           2491          65.00       270.71
 1271.49        2974.75           2495          64.00       266.35
 1271.52        2975.00           2498          69.00       288.15
 1271.55        2975.25           2502          68.00       283.79
 1271.58        2975.50           2505          65.00       270.71
 1271.61        2975.75           2509          72.00       301.22
 1271.64        2976.00           2512          63.00       261.99
 1271.67        2976.25           2516          61.00       253.27
 1271.70        2976.50           2520          62.00       257.63
 1271.73        2976.75           2523          65.00       270.71
 1271.76        2977.00           2527          58.00       240.19
 1271.79        2977.25           2530          61.00       253.27
 1271.82        2977.50           2534          71.00       296.86
 1271.85        2977.75           2537          60.00       248.91
 1271.88        2978.00           2541          57.00       235.83
 1271.92        2978.25           2544          54.00       222.76
 1271.95        2978.50           2548          62.00       257.63
 1271.98        2978.75           2552          61.00       253.27
 1272.01        2979.00           2555          59.00       244.55
 1272.04        2979.25           2559          55.00       227.12
 1272.07        2979.50           2562          58.00       240.19
 1272.10        2979.75           2566          57.00       235.83
 1272.13        2980.00           2569          55.00       227.12
 1272.16        2980.25           2573          53.00       218.40
 1272.19        2980.50           2577          58.00       240.19
 1272.22        2980.75           2580          60.00       248.91
 1272.25        2981.00           2584          55.00       227.12
 1272.28        2981.25           2587          50.00       205.32
 1272.31        2981.50           2591          52.00       214.04
 1272.34        2981.75           2594          54.00       222.76
 1272.37        2982.00           2598          56.00       231.48
 1272.40        2982.25           2601          50.00       205.32
 1272.44        2982.50           2605          53.00       218.40
 1272.47        2982.75           2609          46.00       187.88
 1272.50        2983.00           2612          58.00       240.19
 1272.53        2983.25           2616          51.00       209.68
 1272.56        2983.50           2619          52.00       214.04
 1272.59        2983.75           2623          53.00       218.40
 1272.62        2984.00           2626          51.00       209.68
HS scan finished at 21:12:50
end
