************************************************************
  HS Scan of (1) Internal mercury lamp
************************************************************
Integration time is 0.2294 seconds per sample
dh010618Reading 51.44 .94 3.58pr1000
************************************************************
Dead Time -------------------------  3.4E-08 
Number of Cycles Used -------------  4 
Starting Wavelength (Angstroms) ---  2950 
Final Wavelength (Angstoms) -------  2984 
Wavelength Increment (Angstroms) --  .25 
Filter Wheel #1 Position ---------- (1) Ground quartz diffuser (ND=2.32)
Filter Wheel #2 Position ---------- (1) Neutral Density 0.494



************************************************************
HS scan start time = 01:08:15
Dark Count =  3 


Time (GMT)  Wavelength (Ang)  Step Number  Raw Counts  Counts/Second

   69.14        2950.00           2144          54.00       222.32
   69.34        2950.25           2147          53.00       217.96
   69.37        2950.50           2151          57.00       235.40
   69.40        2950.75           2155          60.00       248.48
   69.43        2951.00           2158          58.00       239.76
   69.46        2951.25           2162          49.00       200.52
   69.49        2951.50           2165          62.00       257.19
   69.52        2951.75           2169          63.00       261.55
   69.55        2952.00           2172          51.00       209.24
   69.58        2952.25           2176          59.00       244.12
   69.61        2952.50           2179          62.00       257.19
   69.64        2952.75           2183          56.00       231.04
   69.67        2953.00           2186          67.00       278.99
   69.70        2953.25           2190          58.00       239.76
   69.73        2953.50           2193          58.00       239.76
   69.76        2953.75           2197          69.00       287.71
   69.80        2954.00           2200          61.00       252.84
   69.83        2954.25           2204          61.00       252.84
   69.86        2954.50           2208          58.00       239.76
   69.89        2954.75           2211          56.00       231.04
   69.92        2955.00           2215          67.00       278.99
   69.95        2955.25           2218          63.00       261.55
   69.98        2955.50           2222          68.00       283.35
   70.01        2955.75           2225          65.00       270.27
   70.04        2956.00           2229          59.00       244.12
   70.07        2956.25           2232          62.00       257.19
   70.10        2956.50           2236          66.00       274.63
   70.13        2956.75           2239          65.00       270.27
   70.16        2957.00           2243          76.00       318.22
   70.19        2957.25           2246          71.00       296.43
   70.22        2957.50           2250          73.00       305.15
   70.25        2957.75           2254          67.00       278.99
   70.28        2958.00           2257          73.00       305.15
   70.32        2958.25           2261          63.00       261.55
   70.35        2958.50           2264          74.00       309.51
   70.38        2958.75           2268          77.00       322.58
   70.41        2959.00           2271          73.00       305.15
   70.44        2959.25           2275          77.00       322.58
   70.47        2959.50           2278          84.00       353.10
   70.50        2959.75           2282          79.00       331.30
   70.53        2960.00           2285          71.00       296.43
   70.56        2960.25           2289          82.00       344.38
   70.59        2960.50           2293          84.00       353.10
   70.62        2960.75           2296          85.00       357.46
   70.65        2961.00           2300          98.00       414.13
   70.68        2961.25           2303         224.00       963.41
   70.71        2961.50           2307         716.00      3108.44
   70.74        2961.75           2310        1274.00      5541.59
   70.77        2962.00           2314        2407.00     10483.25
   70.80        2962.25           2317        3196.00     13925.51
   70.83        2962.50           2321        4538.00     19782.26
   70.87        2962.75           2324        5259.00     22929.81
   70.90        2963.00           2328        6306.00     27501.73
   70.93        2963.25           2331        7071.00     30843.14
   70.96        2963.50           2335        8393.00     36619.24
   70.99        2963.75           2339        9545.00     41654.42
   71.02        2964.00           2342       10319.00     45038.40
   71.05        2964.25           2346       11870.00     51821.83
   71.08        2964.50           2349       12652.00     55243.16
   71.11        2964.75           2353       13629.00     59518.76
   71.14        2965.00           2356       14523.00     63432.21
   71.17        2965.25           2360       15773.00     68905.80
   71.20        2965.50           2363       16366.00     71503.18
   71.23        2965.75           2367       17317.00     75669.59
   71.26        2966.00           2370       18373.00     80297.40
   71.29        2966.25           2374       19330.00     84492.59
   71.32        2966.50           2378       19799.00     86548.99
   71.35        2966.75           2381       19910.00     87035.72
   71.39        2967.00           2385       19974.00     87316.38
   71.42        2967.25           2388       19904.00     87009.42
   71.45        2967.50           2392       19777.00     86452.53
   71.48        2967.75           2395       19568.00     85536.10
   71.51        2968.00           2399       18725.00     81840.31
   71.54        2968.25           2402       17971.00     78535.50
   71.57        2968.50           2406       16985.00     74214.93
   71.60        2968.75           2409       16194.00     70749.76
   71.63        2969.00           2413       15179.00     66304.50
   71.66        2969.25           2417       14102.00     61589.17
   71.69        2969.50           2420       13177.00     57540.53
   71.72        2969.75           2424       12100.00     52828.03
   71.75        2970.00           2427       10986.00     47955.20
   71.78        2970.25           2431        9710.00     42375.75
   71.81        2970.50           2434        8864.00     38677.69
   71.84        2970.75           2438        7719.00     33674.10
   71.87        2971.00           2441        6773.00     29541.43
   71.91        2971.25           2445        5584.00     24348.83
   71.94        2971.50           2449        4453.00     19411.24
   71.97        2971.75           2452        3685.00     16059.33
   72.00        2972.00           2456        2587.00     11268.49
   72.03        2972.25           2459        1797.00      7822.48
   72.06        2972.50           2463         930.00      4041.53
   72.09        2972.75           2466         407.00      1761.22
   72.12        2973.00           2470         136.00       579.78
   72.15        2973.25           2473          98.00       414.13
   72.18        2973.50           2477          86.00       361.82
   72.21        2973.75           2481          84.00       353.10
   72.24        2974.00           2484          74.00       309.51
   72.27        2974.25           2488          74.00       309.51
   72.30        2974.50           2491          82.00       344.38
   72.33        2974.75           2495          77.00       322.58
   72.36        2975.00           2498          76.00       318.22
   72.39        2975.25           2502          75.00       313.87
   72.43        2975.50           2505          76.00       318.22
   72.46        2975.75           2509          76.00       318.22
   72.49        2976.00           2512          75.00       313.87
   72.52        2976.25           2516          64.00       265.91
   72.55        2976.50           2520          71.00       296.43
   72.58        2976.75           2523          62.00       257.19
   72.61        2977.00           2527          65.00       270.27
   72.64        2977.25           2530          64.00       265.91
   72.67        2977.50           2534          66.00       274.63
   72.70        2977.75           2537          64.00       265.91
   72.73        2978.00           2541          63.00       261.55
   72.76        2978.25           2544          62.00       257.19
   72.79        2978.50           2548          68.00       283.35
   72.82        2978.75           2552          63.00       261.55
   72.85        2979.00           2555          69.00       287.71
   72.88        2979.25           2559          70.00       292.07
   72.91        2979.50           2562          65.00       270.27
   72.95        2979.75           2566          65.00       270.27
   72.98        2980.00           2569          59.00       244.12
   73.01        2980.25           2573          59.00       244.12
   73.04        2980.50           2577          58.00       239.76
   73.07        2980.75           2580          68.00       283.35
   73.10        2981.00           2584          60.00       248.48
   73.13        2981.25           2587          62.00       257.19
   73.16        2981.50           2591          65.00       270.27
   73.19        2981.75           2594          65.00       270.27
   73.22        2982.00           2598          47.00       191.81
   73.25        2982.25           2601          60.00       248.48
   73.28        2982.50           2605          56.00       231.04
   73.31        2982.75           2609          57.00       235.40
   73.34        2983.00           2612          58.00       239.76
   73.37        2983.25           2616          59.00       244.12
   73.40        2983.50           2619          57.00       235.40
   73.43        2983.75           2623          56.00       231.04
   73.47        2984.00           2626          54.00       222.32
HS scan finished at 01:13:41
end
************************************************************
  HS Scan of (1) Internal mercury lamp
************************************************************
Integration time is 0.2294 seconds per sample
dh010618Reading 51.44 .94 3.72pr1000
************************************************************
Dead Time -------------------------  3.4E-08 
Number of Cycles Used -------------  4 
Starting Wavelength (Angstroms) ---  2950 
Final Wavelength (Angstoms) -------  2984 
Wavelength Increment (Angstroms) --  .25 
Filter Wheel #1 Position ---------- (1) Ground quartz diffuser (ND=2.32)
Filter Wheel #2 Position ---------- (1) Neutral Density 0.494



************************************************************
HS scan start time = 21:07:21
Dark Count =  4.7 


Time (GMT)  Wavelength (Ang)  Step Number  Raw Counts  Counts/Second

 1268.25        2950.00           2144          44.00       171.32
 1268.44        2950.25           2147          38.00       145.16
 1268.47        2950.50           2151          38.00       145.16
 1268.50        2950.75           2155          37.00       140.80
 1268.54        2951.00           2158          37.00       140.80
 1268.58        2951.25           2162          36.00       136.44
 1268.61        2951.50           2165          37.00       140.80
 1268.64        2951.75           2169          39.00       149.52
 1268.67        2952.00           2172          35.00       132.08
 1268.70        2952.25           2176          31.00       114.65
 1268.73        2952.50           2179          43.00       166.96
 1268.76        2952.75           2183          39.00       149.52
 1268.79        2953.00           2186          38.00       145.16
 1268.82        2953.25           2190          40.00       153.88
 1268.85        2953.50           2193          35.00       132.08
 1268.88        2953.75           2197          44.00       171.32
 1268.91        2954.00           2200          37.00       140.80
 1268.94        2954.25           2204          43.00       166.96
 1268.97        2954.50           2208          47.00       184.40
 1269.01        2954.75           2211          42.00       162.60
 1269.04        2955.00           2215          36.00       136.44
 1269.07        2955.25           2218          38.00       145.16
 1269.10        2955.50           2222          39.00       149.52
 1269.13        2955.75           2225          43.00       166.96
 1269.16        2956.00           2229          39.00       149.52
 1269.19        2956.25           2232          48.00       188.75
 1269.22        2956.50           2236          40.00       153.88
 1269.25        2956.75           2239          45.00       175.68
 1269.28        2957.00           2243          43.00       166.96
 1269.31        2957.25           2246          45.00       175.68
 1269.34        2957.50           2250          37.00       140.80
 1269.37        2957.75           2254          41.00       158.24
 1269.40        2958.00           2257          48.00       188.75
 1269.43        2958.25           2261          47.00       184.40
 1269.46        2958.50           2264          46.00       180.04
 1269.49        2958.75           2268          49.00       193.11
 1269.53        2959.00           2271          49.00       193.11
 1269.56        2959.25           2275          49.00       193.11
 1269.59        2959.50           2278          50.00       197.47
 1269.62        2959.75           2282          49.00       193.11
 1269.65        2960.00           2285          50.00       197.47
 1269.68        2960.25           2289          46.00       180.04
 1269.71        2960.50           2293          60.00       241.07
 1269.74        2960.75           2296          51.00       201.83
 1269.77        2961.00           2300          69.00       280.30
 1269.80        2961.25           2303         149.00       629.05
 1269.83        2961.50           2307         546.00      2359.82
 1269.86        2961.75           2310         914.00      3964.35
 1269.89        2962.00           2314        1546.00      6720.37
 1269.92        2962.25           2317        2060.00      8962.19
 1269.95        2962.50           2321        2739.00     11924.19
 1269.98        2962.75           2324        3201.00     13939.91
 1270.01        2963.00           2328        3950.00     17208.41
 1270.05        2963.25           2331        4494.00     19582.78
 1270.08        2963.50           2335        5255.00     22904.93
 1270.11        2963.75           2339        6061.00     26424.34
 1270.14        2964.00           2342        6589.00     28730.32
 1270.17        2964.25           2346        7283.00     31761.83
 1270.20        2964.50           2349        7765.00     33867.66
 1270.23        2964.75           2353        8452.00     36869.64
 1270.26        2965.00           2356        8989.00     39216.60
 1270.29        2965.25           2360        9779.00     42669.97
 1270.32        2965.50           2363       10415.00     45450.74
 1270.35        2965.75           2367       10942.00     47755.33
 1270.38        2966.00           2370       11446.00     49959.68
 1270.41        2966.25           2374       11928.00     52068.12
 1270.44        2966.50           2378       12111.00     52868.71
 1270.47        2966.75           2381       12033.00     52527.47
 1270.50        2967.00           2385       12154.00     53056.83
 1270.53        2967.25           2388       12164.00     53100.58
 1270.57        2967.50           2392       12188.00     53205.58
 1270.60        2967.75           2395       12072.00     52698.09
 1270.63        2968.00           2399       11735.00     51223.83
 1270.66        2968.25           2402       11594.00     50607.06
 1270.69        2968.50           2406       10936.00     47729.09
 1270.72        2968.75           2409       10398.00     45376.41
 1270.75        2969.00           2413        9446.00     41214.21
 1270.78        2969.25           2417        8817.00     38464.83
 1270.81        2969.50           2420        8399.00     36638.02
 1270.84        2969.75           2424        7678.00     33487.54
 1270.87        2970.00           2427        7051.00     30748.35
 1270.90        2970.25           2431        6341.00     27647.16
 1270.93        2970.50           2434        5791.00     25245.29
 1270.96        2970.75           2438        5122.00     22324.26
 1270.99        2971.00           2441        4429.00     19299.06
 1271.02        2971.25           2445        3730.00     16248.29
 1271.05        2971.50           2449        3087.00     13442.50
 1271.09        2971.75           2452        2588.00     11265.43
 1271.12        2972.00           2456        1948.00      8473.67
 1271.15        2972.25           2459        1503.00      6532.84
 1271.18        2972.50           2463         799.00      3462.92
 1271.21        2972.75           2466         376.00      1618.66
 1271.24        2973.00           2470         113.00       472.11
 1271.27        2973.25           2473          78.00       319.53
 1271.30        2973.50           2477          53.00       210.55
 1271.33        2973.75           2481          58.00       232.35
 1271.36        2974.00           2484          55.00       219.27
 1271.39        2974.25           2488          62.00       249.78
 1271.42        2974.50           2491          52.00       206.19
 1271.45        2974.75           2495          50.00       197.47
 1271.48        2975.00           2498          52.00       206.19
 1271.51        2975.25           2502          45.00       175.68
 1271.54        2975.50           2505          48.00       188.75
 1271.57        2975.75           2509          43.00       166.96
 1271.61        2976.00           2512          46.00       180.04
 1271.64        2976.25           2516          42.00       162.60
 1271.67        2976.50           2520          48.00       188.75
 1271.70        2976.75           2523          44.00       171.32
 1271.73        2977.00           2527          45.00       175.68
 1271.76        2977.25           2530          44.00       171.32
 1271.79        2977.50           2534          41.00       158.24
 1271.82        2977.75           2537          43.00       166.96
 1271.85        2978.00           2541          45.00       175.68
 1271.88        2978.25           2544          42.00       162.60
 1271.91        2978.50           2548          45.00       175.68
 1271.94        2978.75           2552          44.00       171.32
 1271.97        2979.00           2555          38.00       145.16
 1272.00        2979.25           2559          35.00       132.08
 1272.03        2979.50           2562          44.00       171.32
 1272.06        2979.75           2566          42.00       162.60
 1272.09        2980.00           2569          39.00       149.52
 1272.13        2980.25           2573          38.00       145.16
 1272.16        2980.50           2577          47.00       184.40
 1272.19        2980.75           2580          47.00       184.40
 1272.22        2981.00           2584          40.00       153.88
 1272.25        2981.25           2587          39.00       149.52
 1272.28        2981.50           2591          46.00       180.04
 1272.32        2981.75           2594          40.00       153.88
 1272.35        2982.00           2598          39.00       149.52
 1272.38        2982.25           2601          40.00       153.88
 1272.41        2982.50           2605          40.00       153.88
 1272.44        2982.75           2609          43.00       166.96
 1272.47        2983.00           2612          39.00       149.52
 1272.50        2983.25           2616          40.00       153.88
 1272.53        2983.50           2619          37.00       140.80
 1272.56        2983.75           2623          38.00       145.16
 1272.59        2984.00           2626          45.00       175.68
HS scan finished at 21:12:49
end
