************************************************************
  HS Scan of (1) Internal mercury lamp
************************************************************
Integration time is 0.2294 seconds per sample
dh070617El Arenosillo 37.1 6.73 3.68pr1000
************************************************************
Dead Time -------------------------  3.4E-08 
Number of Cycles Used -------------  4 
Starting Wavelength (Angstroms) ---  2950 
Final Wavelength (Angstoms) -------  2984 
Wavelength Increment (Angstroms) --  .25 
Filter Wheel #1 Position ---------- (1) Ground quartz diffuser (ND=2.32)
Filter Wheel #2 Position ---------- (1) Neutral Density 0.494



************************************************************
HS scan start time = 02:02:27
Dark Count =  3.6 


Time (GMT)  Wavelength (Ang)  Step Number  Raw Counts  Counts/Second

  123.36        2950.00           2144         342.00      1475.23
  123.55        2950.25           2147         343.00      1479.59
  123.58        2950.50           2151         335.00      1444.71
  123.61        2950.75           2155         347.00      1497.02
  123.64        2951.00           2158         354.00      1527.54
  123.67        2951.25           2162         326.00      1405.47
  123.70        2951.50           2165         355.00      1531.90
  123.73        2951.75           2169         350.00      1510.10
  123.76        2952.00           2172         347.00      1497.02
  123.79        2952.25           2176         353.00      1523.18
  123.82        2952.50           2179         388.00      1675.77
  123.85        2952.75           2183         343.00      1479.59
  123.88        2953.00           2186         360.00      1553.70
  123.92        2953.25           2190         340.00      1466.51
  123.95        2953.50           2193         350.00      1510.10
  123.98        2953.75           2197         382.00      1649.61
  124.01        2954.00           2200         378.00      1632.17
  124.04        2954.25           2204         368.00      1588.58
  124.07        2954.50           2208         356.00      1536.26
  124.10        2954.75           2211         407.00      1758.61
  124.13        2955.00           2215         376.00      1623.46
  124.16        2955.25           2218         395.00      1706.29
  124.19        2955.50           2222         381.00      1645.25
  124.22        2955.75           2225         400.00      1728.09
  124.25        2956.00           2229         395.00      1706.29
  124.28        2956.25           2232         389.00      1680.13
  124.31        2956.50           2236         421.00      1819.64
  124.34        2956.75           2239         414.00      1789.12
  124.37        2957.00           2243         412.00      1780.40
  124.40        2957.25           2246         422.00      1824.00
  124.44        2957.50           2250         424.00      1832.72
  124.47        2957.75           2254         403.00      1741.17
  124.50        2958.00           2257         432.00      1867.60
  124.53        2958.25           2261         466.00      2015.83
  124.56        2958.50           2264         428.00      1850.16
  124.59        2958.75           2268         440.00      1902.48
  124.62        2959.00           2271         444.00      1919.92
  124.65        2959.25           2275         485.00      2098.67
  124.68        2959.50           2278         479.00      2072.51
  124.71        2959.75           2282         465.00      2011.47
  124.74        2960.00           2285         484.00      2094.31
  124.77        2960.25           2289         507.00      2194.58
  124.80        2960.50           2293         541.00      2342.82
  124.83        2960.75           2296         536.00      2321.02
  124.86        2961.00           2300         639.00      2770.10
  124.89        2961.25           2303        1331.00      5787.54
  124.92        2961.50           2307        5168.00     22529.89
  124.96        2961.75           2310        9624.00     41997.16
  124.99        2962.00           2314       16682.00     72884.85
  125.02        2962.25           2317       22438.00     98122.81
  125.05        2962.50           2321       29645.00    129784.20
  125.08        2962.75           2324       35034.00    153503.50
  125.11        2963.00           2328       42799.00    187748.30
  125.14        2963.25           2331       49305.00    216502.40
  125.17        2963.50           2335       57892.00    254540.40
  125.20        2963.75           2339       65853.00    289893.80
  125.23        2964.00           2342       71380.00    314488.60
  125.26        2964.25           2346       79736.00    351751.00
  125.29        2964.50           2349       85386.00    377000.30
  125.32        2964.75           2353       93652.00    414019.10
  125.35        2965.00           2356       99529.00    440396.10
  125.38        2965.25           2360      106986.00    473933.20
  125.41        2965.50           2363      111878.00    495976.30
  125.44        2965.75           2367      119546.00    530595.30
  125.48        2966.00           2370      124640.00    553638.80
  125.51        2966.25           2374      131483.00    584651.80
  125.54        2966.50           2378      135814.00    604314.40
  125.57        2966.75           2381      137022.00    609803.50
  125.60        2967.00           2385      137235.00    610771.50
  125.63        2967.25           2388      137404.00    611539.60
  125.66        2967.50           2392      137138.00    610330.70
  125.69        2967.75           2395      136617.00    607962.90
  125.72        2968.00           2399      133479.00    593710.30
  125.75        2968.25           2402      129160.00    574116.40
  125.78        2968.50           2406      121813.00    540845.90
  125.81        2968.75           2409      115912.00    514178.50
  125.84        2969.00           2413      108005.00    478521.90
  125.87        2969.25           2417      100037.00    442678.30
  125.90        2969.50           2420       93545.00    413539.30
  125.93        2969.75           2424       85538.00    377680.20
  125.96        2970.00           2427       79735.00    351746.60
  126.00        2970.25           2431       71229.00    313816.20
  126.03        2970.50           2434       65023.00    286204.00
  126.06        2970.75           2438       56056.00    246399.10
  126.09        2971.00           2441       49965.00    219422.50
  126.12        2971.25           2445       42272.00    185421.60
  126.15        2971.50           2449       34731.00    152168.90
  126.18        2971.75           2452       28740.00    125804.60
  126.22        2972.00           2456       20166.00     88155.74
  126.26        2972.25           2459       14058.00     61393.94
  126.29        2972.50           2463        7196.00     31386.57
  126.32        2972.75           2466        3474.00     15135.95
  126.35        2973.00           2470        1123.00      4880.50
  126.38        2973.25           2473         671.00      2909.62
  126.41        2973.50           2477         581.00      2517.22
  126.44        2973.75           2481         543.00      2351.54
  126.47        2974.00           2484         549.00      2377.70
  126.50        2974.25           2488         508.00      2198.94
  126.53        2974.50           2491         507.00      2194.58
  126.56        2974.75           2495         459.00      1985.31
  126.59        2975.00           2498         496.00      2146.63
  126.62        2975.25           2502         462.00      1998.39
  126.65        2975.50           2505         464.00      2007.11
  126.68        2975.75           2509         478.00      2068.15
  126.71        2976.00           2512         458.00      1980.95
  126.74        2976.25           2516         437.00      1889.40
  126.78        2976.50           2520         411.00      1776.04
  126.81        2976.75           2523         433.00      1871.96
  126.84        2977.00           2527         440.00      1902.48
  126.87        2977.25           2530         415.00      1793.48
  126.90        2977.50           2534         428.00      1850.16
  126.93        2977.75           2537         425.00      1837.08
  126.96        2978.00           2541         424.00      1832.72
  126.99        2978.25           2544         419.00      1810.92
  127.02        2978.50           2548         409.00      1767.33
  127.05        2978.75           2552         414.00      1789.12
  127.08        2979.00           2555         424.00      1832.72
  127.11        2979.25           2559         454.00      1963.51
  127.14        2979.50           2562         419.00      1810.92
  127.17        2979.75           2566         412.00      1780.40
  127.20        2980.00           2569         392.00      1693.21
  127.23        2980.25           2573         423.00      1828.36
  127.26        2980.50           2577         408.00      1762.97
  127.30        2980.75           2580         391.00      1688.85
  127.33        2981.00           2584         368.00      1588.58
  127.36        2981.25           2587         383.00      1653.97
  127.39        2981.50           2591         397.00      1715.01
  127.42        2981.75           2594         353.00      1523.18
  127.45        2982.00           2598         371.00      1601.66
  127.48        2982.25           2601         383.00      1653.97
  127.51        2982.50           2605         361.00      1558.06
  127.54        2982.75           2609         372.00      1606.02
  127.57        2983.00           2612         369.00      1592.94
  127.60        2983.25           2616         381.00      1645.25
  127.63        2983.50           2619         349.00      1505.74
  127.66        2983.75           2623         363.00      1566.78
  127.69        2984.00           2626         349.00      1505.74
HS scan finished at 02:07:55
end
************************************************************
  HS Scan of (1) Internal mercury lamp
************************************************************
Integration time is 0.2294 seconds per sample
dh070617El Arenosillo 37.1 6.73 4.13pr1000
************************************************************
Dead Time -------------------------  3.4E-08 
Number of Cycles Used -------------  4 
Starting Wavelength (Angstroms) ---  2950 
Final Wavelength (Angstoms) -------  2984 
Wavelength Increment (Angstroms) --  .25 
Filter Wheel #1 Position ---------- (1) Ground quartz diffuser (ND=2.32)
Filter Wheel #2 Position ---------- (1) Neutral Density 0.494



************************************************************
HS scan start time = 20:34:18
Dark Count =  12.3 


Time (GMT)  Wavelength (Ang)  Step Number  Raw Counts  Counts/Second

 1235.20        2950.00           2144         188.00       765.93
 1235.39        2950.25           2147         205.00       840.04
 1235.42        2950.50           2151         183.00       744.13
 1235.45        2950.75           2155         202.00       826.96
 1235.48        2951.00           2158         195.00       796.45
 1235.51        2951.25           2162         203.00       831.32
 1235.54        2951.50           2165         192.00       783.37
 1235.57        2951.75           2169         198.00       809.53
 1235.60        2952.00           2172         203.00       831.32
 1235.63        2952.25           2176         221.00       909.79
 1235.66        2952.50           2179         204.00       835.68
 1235.69        2952.75           2183         218.00       896.71
 1235.73        2953.00           2186         207.00       848.76
 1235.76        2953.25           2190         212.00       870.56
 1235.79        2953.50           2193         233.00       962.11
 1235.82        2953.75           2197         205.00       840.04
 1235.85        2954.00           2200         216.00       888.00
 1235.88        2954.25           2204         203.00       831.32
 1235.91        2954.50           2208         208.00       853.12
 1235.94        2954.75           2211         223.00       918.51
 1235.97        2955.00           2215         242.00      1001.34
 1236.00        2955.25           2218         215.00       883.64
 1236.03        2955.50           2222         230.00       949.03
 1236.06        2955.75           2225         225.00       927.23
 1236.09        2956.00           2229         225.00       927.23
 1236.12        2956.25           2232         232.00       957.75
 1236.15        2956.50           2236         226.00       931.59
 1236.18        2956.75           2239         257.00      1066.73
 1236.21        2957.00           2243         239.00       988.26
 1236.25        2957.25           2246         258.00      1071.09
 1236.28        2957.50           2250         249.00      1031.86
 1236.31        2957.75           2254         256.00      1062.37
 1236.34        2958.00           2257         261.00      1084.17
 1236.37        2958.25           2261         261.00      1084.17
 1236.40        2958.50           2264         259.00      1075.45
 1236.43        2958.75           2268         248.00      1027.50
 1236.46        2959.00           2271         251.00      1040.58
 1236.49        2959.25           2275         281.00      1171.36
 1236.52        2959.50           2278         271.00      1127.77
 1236.55        2959.75           2282         271.00      1127.77
 1236.58        2960.00           2285         259.00      1075.45
 1236.61        2960.25           2289         282.00      1175.72
 1236.64        2960.50           2293         272.00      1132.13
 1236.67        2960.75           2296         295.00      1232.40
 1236.70        2961.00           2300         349.00      1467.82
 1236.73        2961.25           2303         595.00      2540.32
 1236.77        2961.50           2307        2140.00      9277.99
 1236.80        2961.75           2310        4492.00     19540.88
 1236.83        2962.00           2314        8711.00     37968.34
 1236.86        2962.25           2317       12265.00     53509.21
 1236.89        2962.50           2321       16785.00     73297.96
 1236.92        2962.75           2324       20019.00     87472.94
 1236.95        2963.00           2328       24429.00    106824.50
 1236.98        2963.25           2331       27963.00    122350.60
 1237.01        2963.50           2335       32772.00    143504.50
 1237.04        2963.75           2339       37946.00    166298.10
 1237.07        2964.00           2342       41395.00    181512.10
 1237.10        2964.25           2346       46430.00    203750.60
 1237.13        2964.50           2349       49737.00    218375.20
 1237.16        2964.75           2353       54422.00    239118.80
 1237.19        2965.00           2356       57870.00    254404.20
 1237.22        2965.25           2360       62413.00    274568.30
 1237.25        2965.50           2363       65649.00    288948.20
 1237.29        2965.75           2367       70008.00    308340.80
 1237.32        2966.00           2370       73229.00    322687.10
 1237.35        2966.25           2374       77156.00    340197.00
 1237.38        2966.50           2378       79505.00    350680.80
 1237.41        2966.75           2381       79976.00    352783.90
 1237.44        2967.00           2385       80592.00    355534.80
 1237.47        2967.25           2388       80426.00    354793.40
 1237.50        2967.50           2392       80762.00    356294.10
 1237.53        2967.75           2395       79864.00    352283.80
 1237.56        2968.00           2399       77840.00    343249.00
 1237.59        2968.25           2402       75143.00    331218.70
 1237.62        2968.50           2406       70783.00    311791.30
 1237.65        2968.75           2409       67623.00    297727.10
 1237.68        2969.00           2413       63047.00    277384.50
 1237.71        2969.25           2417       58448.00    256968.10
 1237.74        2969.50           2420       54900.00    241236.90
 1237.77        2969.75           2424       50302.00    220875.30
 1237.81        2970.00           2427       46727.00    205063.40
 1237.84        2970.25           2431       42158.00    184879.90
 1237.87        2970.50           2434       39018.00    171025.20
 1237.90        2970.75           2438       34349.00    150448.10
 1237.93        2971.00           2441       31311.00    137074.60
 1237.96        2971.25           2445       26060.00    113988.00
 1237.99        2971.50           2449       20767.00     90753.44
 1238.02        2971.75           2452       17392.00     75957.46
 1238.05        2972.00           2456       12878.00     56191.39
 1238.08        2972.25           2459        9778.00     42632.37
 1238.11        2972.50           2463        5591.00     24338.79
 1238.14        2972.75           2466        2943.00     12781.05
 1238.17        2973.00           2470         883.00      3796.04
 1238.20        2973.25           2473         460.00      1951.74
 1238.23        2973.50           2477         351.00      1476.53
 1238.26        2973.75           2481         340.00      1428.58
 1238.29        2974.00           2484         324.00      1358.83
 1238.32        2974.25           2488         309.00      1293.43
 1238.36        2974.50           2491         299.00      1249.84
 1238.39        2974.75           2495         289.00      1206.24
 1238.42        2975.00           2498         289.00      1206.24
 1238.45        2975.25           2502         282.00      1175.72
 1238.48        2975.50           2505         266.00      1105.97
 1238.51        2975.75           2509         282.00      1175.72
 1238.54        2976.00           2512         282.00      1175.72
 1238.57        2976.25           2516         265.00      1101.61
 1238.60        2976.50           2520         261.00      1084.17
 1238.63        2976.75           2523         259.00      1075.45
 1238.66        2977.00           2527         248.00      1027.50
 1238.69        2977.25           2530         272.00      1132.13
 1238.72        2977.50           2534         277.00      1153.93
 1238.75        2977.75           2537         278.00      1158.28
 1238.78        2978.00           2541         241.00       996.98
 1238.81        2978.25           2544         282.00      1175.72
 1238.84        2978.50           2548         242.00      1001.34
 1238.88        2978.75           2552         234.00       966.47
 1238.91        2979.00           2555         262.00      1088.53
 1238.94        2979.25           2559         241.00       996.98
 1238.97        2979.50           2562         223.00       918.51
 1239.00        2979.75           2566         228.00       940.31
 1239.03        2980.00           2569         224.00       922.87
 1239.06        2980.25           2573         213.00       874.92
 1239.09        2980.50           2577         224.00       922.87
 1239.12        2980.75           2580         219.00       901.07
 1239.15        2981.00           2584         223.00       918.51
 1239.18        2981.25           2587         220.00       905.43
 1239.21        2981.50           2591         220.00       905.43
 1239.24        2981.75           2594         216.00       888.00
 1239.27        2982.00           2598         215.00       883.64
 1239.30        2982.25           2601         203.00       831.32
 1239.33        2982.50           2605         204.00       835.68
 1239.36        2982.75           2609         212.00       870.56
 1239.40        2983.00           2612         211.00       866.20
 1239.43        2983.25           2616         218.00       896.71
 1239.46        2983.50           2619         195.00       796.45
 1239.49        2983.75           2623         222.00       914.15
 1239.52        2984.00           2626         214.00       879.28
HS scan finished at 20:39:45
end
