************************************************************
  HS Scan of (1) Internal mercury lamp
************************************************************
Integration time is 0.2294 seconds per sample
dh020619Reading 51.44 .94 3.6pr1000
************************************************************
Dead Time -------------------------  3.4E-08 
Number of Cycles Used -------------  4 
Starting Wavelength (Angstroms) ---  2950 
Final Wavelength (Angstoms) -------  2984 
Wavelength Increment (Angstroms) --  .25 
Filter Wheel #1 Position ---------- (1) Ground quartz diffuser (ND=2.32)
Filter Wheel #2 Position ---------- (1) Neutral Density 0.494



************************************************************
HS scan start time = 01:07:02
Dark Count =  2.8 


Time (GMT)  Wavelength (Ang)  Step Number  Raw Counts  Counts/Second

   67.93        2950.00           2144        1250.00      5437.80
   68.12        2950.25           2147        1264.00      5498.85
   68.15        2950.50           2151        1282.00      5577.34
   68.19        2950.75           2155        1251.00      5442.16
   68.22        2951.00           2158        1287.00      5599.15
   68.25        2951.25           2162        1261.00      5485.77
   68.28        2951.50           2165        1249.00      5433.44
   68.31        2951.75           2169        1290.00      5612.23
   68.34        2952.00           2172        1302.00      5664.56
   68.37        2952.25           2176        1315.00      5721.25
   68.40        2952.50           2179        1314.00      5716.89
   68.43        2952.75           2183        1308.00      5690.73
   68.46        2953.00           2186        1312.00      5708.17
   68.49        2953.25           2190        1319.00      5738.70
   68.52        2953.50           2193        1332.00      5795.39
   68.55        2953.75           2197        1318.00      5734.34
   68.58        2954.00           2200        1331.00      5791.03
   68.61        2954.25           2204        1344.00      5847.72
   68.64        2954.50           2208        1368.00      5952.38
   68.67        2954.75           2211        1358.00      5908.77
   68.71        2955.00           2215        1344.00      5847.72
   68.74        2955.25           2218        1385.00      6026.52
   68.77        2955.50           2222        1394.00      6065.77
   68.80        2955.75           2225        1429.00      6218.40
   68.83        2956.00           2229        1391.00      6052.68
   68.86        2956.25           2232        1380.00      6004.71
   68.89        2956.50           2236        1416.00      6161.71
   68.92        2956.75           2239        1445.00      6288.18
   68.95        2957.00           2243        1464.00      6371.04
   68.98        2957.25           2246        1478.00      6432.10
   69.01        2957.50           2250        1481.00      6445.18
   69.04        2957.75           2254        1489.00      6480.07
   69.07        2958.00           2257        1523.00      6628.35
   69.10        2958.25           2261        1528.00      6650.15
   69.13        2958.50           2264        1509.00      6567.29
   69.16        2958.75           2268        1547.00      6733.01
   69.19        2959.00           2271        1562.00      6798.43
   69.23        2959.25           2275        1614.00      7025.22
   69.26        2959.50           2278        1630.00      7095.00
   69.29        2959.75           2282        1641.00      7142.97
   69.32        2960.00           2285        1644.00      7156.06
   69.35        2960.25           2289        1717.00      7474.44
   69.38        2960.50           2293        1756.00      7644.53
   69.41        2960.75           2296        1843.00      8023.99
   69.44        2961.00           2300        2017.00      8782.92
   69.47        2961.25           2303        2776.00     12093.90
   69.50        2961.50           2307        7731.00     33727.41
   69.53        2961.75           2310       18388.00     80364.01
   69.56        2962.00           2314       40138.00    176007.40
   69.59        2962.25           2317       57999.00    255018.60
   69.62        2962.50           2321       80646.00    355818.40
   69.65        2962.75           2324       98770.00    436990.50
   69.68        2963.00           2328      121618.00    539967.50
   69.71        2963.25           2331      139939.00    623070.10
   69.75        2963.50           2335      163125.00    728925.30
   69.78        2963.75           2339      187348.00    840345.20
   69.81        2964.00           2342      207158.00    932107.40
   69.84        2964.25           2346      233850.00   1056676.00
   69.87        2964.50           2349      252162.00   1142761.00
   69.90        2964.75           2353      274198.00   1247040.00
   69.93        2965.00           2356      291867.00   1331202.00
   69.96        2965.25           2360      314829.00   1441319.00
   69.99        2965.50           2363      331899.00   1523731.00
   70.02        2965.75           2367      355018.00   1636109.00
   70.05        2966.00           2370      373573.00   1726947.00
   70.08        2966.25           2374      393385.00   1824581.00
   70.11        2966.50           2378      407830.00   1896191.00
   70.14        2966.75           2381      411055.00   1912228.00
   70.17        2967.00           2385      413721.00   1925498.00
   70.20        2967.25           2388      413347.00   1923636.00
   70.23        2967.50           2392      413544.00   1924617.00
   70.27        2967.75           2395      411496.00   1914422.00
   70.30        2968.00           2399      401554.00   1865033.00
   70.33        2968.25           2402      387382.00   1794927.00
   70.36        2968.50           2406      369188.00   1705427.00
   70.39        2968.75           2409      353692.00   1629640.00
   70.42        2969.00           2413      333142.00   1529751.00
   70.45        2969.25           2417      309554.00   1415947.00
   70.48        2969.50           2420      291425.00   1329091.00
   70.51        2969.75           2424      264908.00   1202985.00
   70.54        2970.00           2427      246483.00   1116009.00
   70.57        2970.25           2431      221908.00   1000811.00
   70.60        2970.50           2434      204382.00    919213.60
   70.63        2970.75           2438      179287.00    803171.40
   70.66        2971.00           2441      159146.00    710704.40
   70.69        2971.25           2445      133910.00    595670.60
   70.72        2971.50           2449      109191.00    483868.30
   70.75        2971.75           2452       91236.00    403193.10
   70.79        2972.00           2456       68443.00    301417.60
   70.82        2972.25           2459       51038.00    224174.70
   70.85        2972.50           2463       28828.00    126195.10
   70.88        2972.75           2466       14428.00     63017.19
   70.91        2973.00           2470        4136.00     18028.49
   70.94        2973.25           2473        2355.00     10257.28
   70.97        2973.50           2477        1946.00      8473.23
   71.00        2973.75           2481        1831.00      7971.65
   71.03        2974.00           2484        1794.00      7810.27
   71.06        2974.25           2488        1737.00      7561.67
   71.09        2974.50           2491        1716.00      7470.07
   71.12        2974.75           2495        1691.00      7361.04
   71.15        2975.00           2498        1655.00      7204.03
   71.18        2975.25           2502        1646.00      7164.78
   71.21        2975.50           2505        1596.00      6946.72
   71.24        2975.75           2509        1565.00      6811.52
   71.27        2976.00           2512        1581.00      6881.30
   71.30        2976.25           2516        1553.00      6759.18
   71.34        2976.50           2520        1526.00      6641.43
   71.37        2976.75           2523        1533.00      6671.96
   71.40        2977.00           2527        1509.00      6567.29
   71.43        2977.25           2530        1459.00      6349.23
   71.46        2977.50           2534        1498.00      6519.32
   71.49        2977.75           2537        1424.00      6196.60
   71.52        2978.00           2541        1404.00      6109.38
   71.55        2978.25           2544        1427.00      6209.68
   71.58        2978.50           2548        1389.00      6043.96
   71.61        2978.75           2552        1377.00      5991.63
   71.64        2979.00           2555        1398.00      6083.21
   71.68        2979.25           2559        1343.00      5843.36
   71.71        2979.50           2562        1370.00      5961.10
   71.74        2979.75           2566        1325.00      5764.86
   71.77        2980.00           2569        1339.00      5825.91
   71.80        2980.25           2573        1307.00      5686.36
   71.84        2980.50           2577        1310.00      5699.45
   71.87        2980.75           2580        1298.00      5647.12
   71.90        2981.00           2584        1295.00      5634.03
   71.93        2981.25           2587        1274.00      5542.46
   71.96        2981.50           2591        1313.00      5712.53
   71.99        2981.75           2594        1316.00      5725.61
   72.02        2982.00           2598        1296.00      5638.40
   72.05        2982.25           2601        1286.00      5594.79
   72.08        2982.50           2605        1267.00      5511.93
   72.11        2982.75           2609        1251.00      5442.16
   72.14        2983.00           2612        1265.00      5503.21
   72.17        2983.25           2616        1260.00      5481.41
   72.20        2983.50           2619        1243.00      5407.27
   72.23        2983.75           2623        1236.00      5376.75
   72.26        2984.00           2626        1270.00      5525.01
HS scan finished at 01:12:29
end
************************************************************
  HS Scan of (1) Internal mercury lamp
************************************************************
Integration time is 0.2294 seconds per sample
dh020619Reading 51.44 .94 3.41pr1000
************************************************************
Dead Time -------------------------  3.4E-08 
Number of Cycles Used -------------  4 
Starting Wavelength (Angstroms) ---  2950 
Final Wavelength (Angstoms) -------  2984 
Wavelength Increment (Angstroms) --  .25 
Filter Wheel #1 Position ---------- (1) Ground quartz diffuser (ND=2.32)
Filter Wheel #2 Position ---------- (1) Neutral Density 0.494



************************************************************
HS scan start time = 21:07:23
Dark Count =  2.3 


Time (GMT)  Wavelength (Ang)  Step Number  Raw Counts  Counts/Second

 1268.28        2950.00           2144        1257.00      5470.50
 1268.47        2950.25           2147        1253.00      5453.06
 1268.50        2950.50           2151        1246.00      5422.53
 1268.53        2950.75           2155        1245.00      5418.17
 1268.56        2951.00           2158        1225.00      5330.96
 1268.59        2951.25           2162        1252.00      5448.70
 1268.62        2951.50           2165        1243.00      5409.45
 1268.65        2951.75           2169        1273.00      5540.28
 1268.68        2952.00           2172        1266.00      5509.75
 1268.71        2952.25           2176        1248.00      5431.26
 1268.74        2952.50           2179        1272.00      5535.92
 1268.77        2952.75           2183        1257.00      5470.50
 1268.81        2953.00           2186        1259.00      5479.22
 1268.84        2953.25           2190        1284.00      5588.25
 1268.87        2953.50           2193        1284.00      5588.25
 1268.90        2953.75           2197        1291.00      5618.77
 1268.93        2954.00           2200        1314.00      5719.07
 1268.96        2954.25           2204        1303.00      5671.10
 1268.99        2954.50           2208        1324.00      5762.68
 1269.02        2954.75           2211        1347.00      5862.98
 1269.05        2955.00           2215        1331.00      5793.21
 1269.08        2955.25           2218        1314.00      5719.07
 1269.11        2955.50           2222        1352.00      5884.79
 1269.14        2955.75           2225        1313.00      5714.71
 1269.17        2956.00           2229        1335.00      5810.65
 1269.20        2956.25           2232        1358.00      5910.95
 1269.23        2956.50           2236        1384.00      6024.34
 1269.26        2956.75           2239        1369.00      5958.92
 1269.29        2957.00           2243        1404.00      6111.56
 1269.32        2957.25           2246        1389.00      6046.14
 1269.36        2957.50           2250        1443.00      6281.64
 1269.39        2957.75           2254        1453.00      6325.25
 1269.42        2958.00           2257        1440.00      6268.55
 1269.45        2958.25           2261        1458.00      6347.05
 1269.48        2958.50           2264        1450.00      6312.17
 1269.51        2958.75           2268        1540.00      6704.67
 1269.54        2959.00           2271        1503.00      6543.30
 1269.57        2959.25           2275        1522.00      6626.17
 1269.60        2959.50           2278        1540.00      6704.67
 1269.63        2959.75           2282        1572.00      6844.23
 1269.66        2960.00           2285        1619.00      7049.20
 1269.69        2960.25           2289        1629.00      7092.82
 1269.72        2960.50           2293        1623.00      7066.65
 1269.75        2960.75           2296        1694.00      7376.30
 1269.78        2961.00           2300        1788.00      7786.28
 1269.81        2961.25           2303        2086.00      9086.07
 1269.84        2961.50           2307        5377.00     23448.07
 1269.88        2961.75           2310       13811.00     60318.44
 1269.91        2962.00           2314       31058.00    136005.40
 1269.94        2962.25           2317       46826.00    205545.20
 1269.97        2962.50           2321       67459.00    297042.00
 1270.00        2962.75           2324       82063.00    362150.70
 1270.03        2963.00           2328      103210.00    456947.20
 1270.06        2963.25           2331      119718.00    531378.60
 1270.09        2963.50           2335      144893.00    645625.10
 1270.12        2963.75           2339      167335.00    748231.20
 1270.15        2964.00           2342      183923.00    824541.30
 1270.18        2964.25           2346      205216.00    923088.40
 1270.21        2964.50           2349      221081.00    996952.70
 1270.24        2964.75           2353      242419.00   1096897.00
 1270.27        2965.00           2356      260041.00   1179962.00
 1270.30        2965.25           2360      283162.00   1289678.00
 1270.33        2965.50           2363      299285.00   1366686.00
 1270.36        2965.75           2367      318479.00   1458903.00
 1270.40        2966.00           2370      332188.00   1525133.00
 1270.43        2966.25           2374      351526.00   1619081.00
 1270.46        2966.50           2378      364062.00   1680315.00
 1270.49        2966.75           2381      368154.00   1700360.00
 1270.52        2967.00           2385      369370.00   1706322.00
 1270.55        2967.25           2388      370055.00   1709682.00
 1270.58        2967.50           2392      370161.00   1710202.00
 1270.61        2967.75           2395      369661.00   1707750.00
 1270.64        2968.00           2399      364067.00   1680340.00
 1270.67        2968.25           2402      355418.00   1638064.00
 1270.70        2968.50           2406      339646.00   1561292.00
 1270.73        2968.75           2409      324353.00   1487243.00
 1270.76        2969.00           2413      304479.00   1391582.00
 1270.79        2969.25           2417      284795.00   1297459.00
 1270.82        2969.50           2420      269700.00   1225695.00
 1270.85        2969.75           2424      249920.00   1132196.00
 1270.88        2970.00           2427      234499.00   1059720.00
 1270.92        2970.25           2431      212829.00    958485.90
 1270.95        2970.50           2434      196313.00    881802.40
 1270.98        2970.75           2438      172362.00    771314.60
 1271.01        2971.00           2441      155018.00    691827.50
 1271.04        2971.25           2445      133492.00    593775.20
 1271.07        2971.50           2449      113040.00    501223.00
 1271.10        2971.75           2452       97272.00    430266.50
 1271.13        2972.00           2456       76160.00    335798.60
 1271.16        2972.25           2459       60130.00    264476.10
 1271.19        2972.50           2463       37503.00    164389.20
 1271.22        2972.75           2466       21734.00     95039.39
 1271.25        2973.00           2470        7199.00     31405.36
 1271.28        2973.25           2473        3161.00     13775.85
 1271.31        2973.50           2477        1963.00      8549.56
 1271.34        2973.75           2481        1787.00      7781.92
 1271.37        2974.00           2484        1700.00      7402.47
 1271.40        2974.25           2488        1663.00      7241.10
 1271.43        2974.50           2491        1633.00      7110.26
 1271.47        2974.75           2495        1592.00      6931.45
 1271.50        2975.00           2498        1572.00      6844.23
 1271.53        2975.25           2502        1524.00      6634.89
 1271.56        2975.50           2505        1531.00      6665.42
 1271.59        2975.75           2509        1544.00      6722.11
 1271.62        2976.00           2512        1488.00      6477.89
 1271.65        2976.25           2516        1446.00      6294.72
 1271.68        2976.50           2520        1449.00      6307.80
 1271.71        2976.75           2523        1416.00      6163.89
 1271.74        2977.00           2527        1469.00      6395.03
 1271.77        2977.25           2530        1402.00      6102.84
 1271.80        2977.50           2534        1409.00      6133.36
 1271.83        2977.75           2537        1381.00      6011.25
 1271.86        2978.00           2541        1367.00      5950.20
 1271.89        2978.25           2544        1391.00      6054.86
 1271.92        2978.50           2548        1310.00      5701.63
 1271.96        2978.75           2552        1297.00      5644.94
 1271.99        2979.00           2555        1297.00      5644.94
 1272.02        2979.25           2559        1308.00      5692.91
 1272.05        2979.50           2562        1322.00      5753.96
 1272.08        2979.75           2566        1313.00      5714.71
 1272.11        2980.00           2569        1310.00      5701.63
 1272.14        2980.25           2573        1276.00      5553.36
 1272.17        2980.50           2577        1264.00      5501.03
 1272.20        2980.75           2580        1257.00      5470.50
 1272.23        2981.00           2584        1235.00      5374.57
 1272.26        2981.25           2587        1248.00      5431.26
 1272.29        2981.50           2591        1246.00      5422.53
 1272.32        2981.75           2594        1260.00      5483.59
 1272.35        2982.00           2598        1217.00      5296.07
 1272.38        2982.25           2601        1216.00      5291.71
 1272.41        2982.50           2605        1211.00      5269.91
 1272.44        2982.75           2609        1198.00      5213.22
 1272.47        2983.00           2612        1198.00      5213.22
 1272.51        2983.25           2616        1225.00      5330.96
 1272.54        2983.50           2619        1220.00      5309.15
 1272.57        2983.75           2623        1190.00      5178.33
 1272.60        2984.00           2626        1178.00      5126.00
HS scan finished at 21:12:49
end
