************************************************************
  HS Scan of (1) Internal mercury lamp
************************************************************
Integration time is 0.2294 seconds per sample
dh040618Reading 51.44 .94 3.62pr1000
************************************************************
Dead Time -------------------------  3.4E-08 
Number of Cycles Used -------------  4 
Starting Wavelength (Angstroms) ---  2950 
Final Wavelength (Angstoms) -------  2984 
Wavelength Increment (Angstroms) --  .25 
Filter Wheel #1 Position ---------- (1) Ground quartz diffuser (ND=2.32)
Filter Wheel #2 Position ---------- (1) Neutral Density 0.494



************************************************************
HS scan start time = 01:14:19
Dark Count =  3.1 


Time (GMT)  Wavelength (Ang)  Step Number  Raw Counts  Counts/Second

   75.22        2950.00           2144          58.00       239.32
   75.41        2950.25           2147          56.00       230.60
   75.44        2950.50           2151          60.00       248.04
   75.47        2950.75           2155          56.00       230.60
   75.50        2951.00           2158          56.00       230.60
   75.53        2951.25           2162          54.00       221.88
   75.56        2951.50           2165          53.00       217.53
   75.59        2951.75           2169          61.00       252.40
   75.63        2952.00           2172          52.00       213.17
   75.66        2952.25           2176          64.00       265.48
   75.69        2952.50           2179          67.00       278.56
   75.72        2952.75           2183          58.00       239.32
   75.75        2953.00           2186          57.00       234.96
   75.78        2953.25           2190          56.00       230.60
   75.81        2953.50           2193          62.00       256.76
   75.84        2953.75           2197          58.00       239.32
   75.87        2954.00           2200          66.00       274.20
   75.90        2954.25           2204          58.00       239.32
   75.93        2954.50           2208          64.00       265.48
   75.96        2954.75           2211          60.00       248.04
   75.99        2955.00           2215          59.00       243.68
   76.02        2955.25           2218          66.00       274.20
   76.05        2955.50           2222          52.00       213.17
   76.08        2955.75           2225          63.00       261.12
   76.11        2956.00           2229          61.00       252.40
   76.14        2956.25           2232          60.00       248.04
   76.18        2956.50           2236          69.00       287.27
   76.21        2956.75           2239          70.00       291.63
   76.24        2957.00           2243          65.00       269.84
   76.27        2957.25           2246          68.00       282.91
   76.30        2957.50           2250          60.00       248.04
   76.33        2957.75           2254          60.00       248.04
   76.36        2958.00           2257          68.00       282.91
   76.39        2958.25           2261          63.00       261.12
   76.42        2958.50           2264          64.00       265.48
   76.45        2958.75           2268          73.00       304.71
   76.48        2959.00           2271          72.00       300.35
   76.51        2959.25           2275          71.00       295.99
   76.54        2959.50           2278          74.00       309.07
   76.57        2959.75           2282          70.00       291.63
   76.60        2960.00           2285          76.00       317.79
   76.63        2960.25           2289          76.00       317.79
   76.66        2960.50           2293          75.00       313.43
   76.70        2960.75           2296          82.00       343.94
   76.73        2961.00           2300         100.00       422.41
   76.76        2961.25           2303         188.00       806.04
   76.79        2961.50           2307         683.00      2964.12
   76.82        2961.75           2310        1223.00      5318.75
   76.85        2962.00           2314        2139.00      9313.76
   76.88        2962.25           2317        3015.00     13135.33
   76.91        2962.50           2321        4009.00     17472.89
   76.94        2962.75           2324        4844.00     21117.60
   76.97        2963.00           2328        5833.00     25435.68
   77.00        2963.25           2331        6691.00     29182.82
   77.03        2963.50           2335        7899.00     34460.15
   77.06        2963.75           2339        9078.00     39612.61
   77.09        2964.00           2342        9855.00     43009.23
   77.12        2964.25           2346       10998.00     48007.24
   77.15        2964.50           2349       11763.00     51353.32
   77.18        2964.75           2353       12874.00     56214.14
   77.22        2965.00           2356       13948.00     60914.62
   77.25        2965.25           2360       14977.00     65419.55
   77.28        2965.50           2363       15528.00     67832.38
   77.31        2965.75           2367       16461.00     71918.90
   77.34        2966.00           2370       17157.00     74968.10
   77.37        2966.25           2374       18005.00     78684.07
   77.40        2966.50           2378       18366.00     80266.27
   77.43        2966.75           2381       18726.00     81844.27
   77.46        2967.00           2385       18423.00     80516.11
   77.49        2967.25           2388       18642.00     81476.05
   77.52        2967.50           2392       18433.00     80559.94
   77.55        2967.75           2395       18028.00     78784.87
   77.58        2968.00           2399       17387.00     75975.87
   77.61        2968.25           2402       16668.00     72825.71
   77.64        2968.50           2406       15831.00     69159.38
   77.67        2968.75           2409       14647.00     63974.66
   77.70        2969.00           2413       14119.00     61663.15
   77.74        2969.25           2417       13169.00     57505.09
   77.77        2969.50           2420       12343.00     53890.72
   77.80        2969.75           2424       11306.00     49354.33
   77.83        2970.00           2427       10279.00     44863.07
   77.86        2970.25           2431        9018.00     39350.35
   77.89        2970.50           2434        8110.00     35382.12
   77.92        2970.75           2438        7133.00     31113.54
   77.95        2971.00           2441        6299.00     27470.72
   77.98        2971.25           2445        5193.00     22641.22
   78.01        2971.50           2449        4188.00     18254.13
   78.04        2971.75           2452        3261.00     14208.69
   78.07        2972.00           2456        2310.00     10059.67
   78.10        2972.25           2459        1616.00      7032.63
   78.13        2972.50           2463         746.00      3238.81
   78.16        2972.75           2466         341.00      1473.05
   78.19        2973.00           2470         126.00       535.76
   78.22        2973.25           2473          89.00       374.46
   78.26        2973.50           2477          85.00       357.02
   78.29        2973.75           2481          74.00       309.07
   78.32        2974.00           2484          74.00       309.07
   78.35        2974.25           2488          75.00       313.43
   78.38        2974.50           2491          74.00       309.07
   78.41        2974.75           2495          78.00       326.51
   78.44        2975.00           2498          76.00       317.79
   78.47        2975.25           2502          74.00       309.07
   78.50        2975.50           2505          68.00       282.91
   78.53        2975.75           2509          68.00       282.91
   78.56        2976.00           2512          69.00       287.27
   78.59        2976.25           2516          71.00       295.99
   78.62        2976.50           2520          63.00       261.12
   78.65        2976.75           2523          67.00       278.56
   78.68        2977.00           2527          71.00       295.99
   78.71        2977.25           2530          59.00       243.68
   78.74        2977.50           2534          57.00       234.96
   78.78        2977.75           2537          62.00       256.76
   78.81        2978.00           2541          57.00       234.96
   78.84        2978.25           2544          59.00       243.68
   78.87        2978.50           2548          67.00       278.56
   78.90        2978.75           2552          59.00       243.68
   78.93        2979.00           2555          63.00       261.12
   78.96        2979.25           2559          61.00       252.40
   78.99        2979.50           2562          57.00       234.96
   79.02        2979.75           2566          58.00       239.32
   79.05        2980.00           2569          57.00       234.96
   79.08        2980.25           2573          62.00       256.76
   79.11        2980.50           2577          58.00       239.32
   79.14        2980.75           2580          61.00       252.40
   79.17        2981.00           2584          58.00       239.32
   79.20        2981.25           2587          60.00       248.04
   79.23        2981.50           2591          60.00       248.04
   79.26        2981.75           2594          59.00       243.68
   79.29        2982.00           2598          55.00       226.24
   79.33        2982.25           2601          60.00       248.04
   79.36        2982.50           2605          57.00       234.96
   79.39        2982.75           2609          53.00       217.53
   79.42        2983.00           2612          52.00       213.17
   79.45        2983.25           2616          59.00       243.68
   79.48        2983.50           2619          50.00       204.45
   79.51        2983.75           2623          56.00       230.60
   79.54        2984.00           2626          50.00       204.45
HS scan finished at 01:19:46
end
************************************************************
  HS Scan of (1) Internal mercury lamp
************************************************************
Integration time is 0.2294 seconds per sample
dh040618Reading 51.44 .94 3.5pr1000
************************************************************
Dead Time -------------------------  3.4E-08 
Number of Cycles Used -------------  4 
Starting Wavelength (Angstroms) ---  2950 
Final Wavelength (Angstoms) -------  2984 
Wavelength Increment (Angstroms) --  .25 
Filter Wheel #1 Position ---------- (1) Ground quartz diffuser (ND=2.32)
Filter Wheel #2 Position ---------- (1) Neutral Density 0.494



************************************************************
HS scan start time = 21:07:23
Dark Count =  2.3 


Time (GMT)  Wavelength (Ang)  Step Number  Raw Counts  Counts/Second

 1268.29        2950.00           2144          52.00       216.65
 1268.48        2950.25           2147          54.00       225.37
 1268.51        2950.50           2151          60.00       251.53
 1268.54        2950.75           2155          58.00       242.81
 1268.57        2951.00           2158          53.00       221.01
 1268.60        2951.25           2162          62.00       260.25
 1268.64        2951.50           2165          60.00       251.53
 1268.67        2951.75           2169          65.00       273.32
 1268.70        2952.00           2172          58.00       242.81
 1268.73        2952.25           2176          56.00       234.09
 1268.76        2952.50           2179          62.00       260.25
 1268.79        2952.75           2183          53.00       221.01
 1268.82        2953.00           2186          48.00       199.22
 1268.85        2953.25           2190          52.00       216.65
 1268.88        2953.50           2193          60.00       251.53
 1268.91        2953.75           2197          65.00       273.32
 1268.94        2954.00           2200          62.00       260.25
 1268.97        2954.25           2204          62.00       260.25
 1269.00        2954.50           2208          66.00       277.68
 1269.03        2954.75           2211          63.00       264.61
 1269.06        2955.00           2215          63.00       264.61
 1269.09        2955.25           2218          62.00       260.25
 1269.12        2955.50           2222          71.00       299.48
 1269.16        2955.75           2225          68.00       286.40
 1269.19        2956.00           2229          63.00       264.61
 1269.22        2956.25           2232          59.00       247.17
 1269.25        2956.50           2236          67.00       282.04
 1269.28        2956.75           2239          65.00       273.32
 1269.32        2957.00           2243          67.00       282.04
 1269.35        2957.25           2246          65.00       273.32
 1269.38        2957.50           2250          67.00       282.04
 1269.42        2957.75           2254          64.00       268.96
 1269.45        2958.00           2257          70.00       295.12
 1269.48        2958.25           2261          76.00       321.28
 1269.51        2958.50           2264          75.00       316.92
 1269.54        2958.75           2268          76.00       321.28
 1269.57        2959.00           2271          75.00       316.92
 1269.60        2959.25           2275          78.00       329.99
 1269.63        2959.50           2278          77.00       325.64
 1269.66        2959.75           2282          76.00       321.28
 1269.69        2960.00           2285          82.00       347.43
 1269.72        2960.25           2289          79.00       334.35
 1269.75        2960.50           2293          82.00       347.43
 1269.78        2960.75           2296          97.00       412.82
 1269.81        2961.00           2300         136.00       582.84
 1269.84        2961.25           2303         236.00      1018.78
 1269.87        2961.50           2307         749.00      3255.37
 1269.90        2961.75           2310        1367.00      5950.20
 1269.93        2962.00           2314        2281.00      9936.66
 1269.97        2962.25           2317        3069.00     13374.43
 1270.00        2962.50           2321        4134.00     18021.94
 1270.03        2962.75           2324        5050.00     22020.41
 1270.06        2963.00           2328        6211.00     27089.89
 1270.09        2963.25           2331        7417.00     32357.73
 1270.12        2963.50           2335        8432.00     36792.73
 1270.15        2963.75           2339        9278.00     40490.32
 1270.18        2964.00           2342       10130.00     44215.07
 1270.21        2964.25           2346       11230.00     49025.42
 1270.24        2964.50           2349       12127.00     52949.21
 1270.27        2964.75           2353       13151.00     57429.82
 1270.30        2965.00           2356       14057.00     61395.25
 1270.33        2965.25           2360       15288.00     66784.87
 1270.36        2965.50           2363       16295.00     71195.24
 1270.39        2965.75           2367       17299.00     75593.78
 1270.42        2966.00           2370       18069.00     78968.06
 1270.45        2966.25           2374       19163.00     83763.50
 1270.49        2966.50           2378       19433.00     84947.26
 1270.52        2966.75           2381       19576.00     85574.25
 1270.55        2967.00           2385       19823.00     86657.30
 1270.58        2967.25           2388       20088.00     87819.37
 1270.61        2967.50           2392       20099.00     87867.60
 1270.64        2967.75           2395       20087.00     87814.98
 1270.67        2968.00           2399       19738.00     86284.59
 1270.70        2968.25           2402       18817.00     82246.68
 1270.73        2968.50           2406       17729.00     77478.03
 1270.76        2968.75           2409       16791.00     73368.06
 1270.79        2969.00           2413       15830.00     69158.51
 1270.82        2969.25           2417       14682.00     64131.40
 1270.85        2969.50           2420       13724.00     59937.63
 1270.88        2969.75           2424       12503.00     54594.27
 1270.91        2970.00           2427       11651.00     50866.89
 1270.94        2970.25           2431       10357.00     45207.62
 1270.97        2970.50           2434        9674.00     42221.42
 1271.01        2970.75           2438        8437.00     36814.58
 1271.04        2971.00           2441        7547.00     32925.68
 1271.07        2971.25           2445        6129.00     26731.79
 1271.10        2971.50           2449        4911.00     21413.58
 1271.13        2971.75           2452        4011.00     17485.11
 1271.16        2972.00           2456        2900.00     12637.08
 1271.19        2972.25           2459        2078.00      9051.17
 1271.22        2972.50           2463        1119.00      4868.72
 1271.25        2972.75           2466         537.00      2331.05
 1271.28        2973.00           2470         177.00       761.57
 1271.31        2973.25           2473         110.00       469.49
 1271.34        2973.50           2477          93.00       395.38
 1271.37        2973.75           2481          89.00       377.95
 1271.40        2974.00           2484          93.00       395.38
 1271.43        2974.25           2488          78.00       329.99
 1271.46        2974.50           2491          85.00       360.51
 1271.49        2974.75           2495          80.00       338.71
 1271.53        2975.00           2498          78.00       329.99
 1271.56        2975.25           2502          83.00       351.79
 1271.59        2975.50           2505          76.00       321.28
 1271.62        2975.75           2509          74.00       312.56
 1271.65        2976.00           2512          76.00       321.28
 1271.68        2976.25           2516          70.00       295.12
 1271.71        2976.50           2520          67.00       282.04
 1271.74        2976.75           2523          71.00       299.48
 1271.77        2977.00           2527          70.00       295.12
 1271.80        2977.25           2530          71.00       299.48
 1271.83        2977.50           2534          73.00       308.20
 1271.86        2977.75           2537          65.00       273.32
 1271.89        2978.00           2541          70.00       295.12
 1271.92        2978.25           2544          61.00       255.89
 1271.95        2978.50           2548          63.00       264.61
 1271.98        2978.75           2552          62.00       260.25
 1272.01        2979.00           2555          68.00       286.40
 1272.05        2979.25           2559          66.00       277.68
 1272.08        2979.50           2562          59.00       247.17
 1272.11        2979.75           2566          68.00       286.40
 1272.14        2980.00           2569          62.00       260.25
 1272.17        2980.25           2573          65.00       273.32
 1272.20        2980.50           2577          70.00       295.12
 1272.23        2980.75           2580          56.00       234.09
 1272.26        2981.00           2584          64.00       268.96
 1272.29        2981.25           2587          57.00       238.45
 1272.32        2981.50           2591          56.00       234.09
 1272.35        2981.75           2594          65.00       273.32
 1272.38        2982.00           2598          57.00       238.45
 1272.41        2982.25           2601          66.00       277.68
 1272.44        2982.50           2605          64.00       268.96
 1272.47        2982.75           2609          57.00       238.45
 1272.50        2983.00           2612          55.00       229.73
 1272.53        2983.25           2616          59.00       247.17
 1272.57        2983.50           2619          61.00       255.89
 1272.60        2983.75           2623          58.00       242.81
 1272.63        2984.00           2626          63.00       264.61
HS scan finished at 21:12:51
end
