************************************************************
  HS Scan of (1) Internal mercury lamp
************************************************************
Integration time is 0.2294 seconds per sample
dh030618Reading 51.44 .94 3.43pr1000
************************************************************
Dead Time -------------------------  3.4E-08 
Number of Cycles Used -------------  4 
Starting Wavelength (Angstroms) ---  2950 
Final Wavelength (Angstoms) -------  2984 
Wavelength Increment (Angstroms) --  .25 
Filter Wheel #1 Position ---------- (1) Ground quartz diffuser (ND=2.32)
Filter Wheel #2 Position ---------- (1) Neutral Density 0.494



************************************************************
HS scan start time = 01:10:48
Dark Count =  1.7 


Time (GMT)  Wavelength (Ang)  Step Number  Raw Counts  Counts/Second

   71.70        2950.00           2144          74.00       315.17
   71.89        2950.25           2147          73.00       310.81
   71.92        2950.50           2151          81.00       345.69
   71.96        2950.75           2155          75.00       319.53
   71.99        2951.00           2158          69.00       293.38
   72.02        2951.25           2162          72.00       306.45
   72.05        2951.50           2165          67.00       284.66
   72.08        2951.75           2169          57.00       241.07
   72.11        2952.00           2172          61.00       258.50
   72.14        2952.25           2176          54.00       227.99
   72.17        2952.50           2179          61.00       258.50
   72.20        2952.75           2183          61.00       258.50
   72.23        2953.00           2186          58.00       245.42
   72.26        2953.25           2190          55.00       232.35
   72.29        2953.50           2193          56.00       236.71
   72.32        2953.75           2197          59.00       249.78
   72.35        2954.00           2200          54.00       227.99
   72.38        2954.25           2204          54.00       227.99
   72.41        2954.50           2208          58.00       245.42
   72.44        2954.75           2211          62.00       262.86
   72.48        2955.00           2215          55.00       232.35
   72.51        2955.25           2218          59.00       249.78
   72.54        2955.50           2222          59.00       249.78
   72.57        2955.75           2225          55.00       232.35
   72.60        2956.00           2229          61.00       258.50
   72.63        2956.25           2232          63.00       267.22
   72.66        2956.50           2236          62.00       262.86
   72.69        2956.75           2239          59.00       249.78
   72.72        2957.00           2243          62.00       262.86
   72.75        2957.25           2246          62.00       262.86
   72.78        2957.50           2250          57.00       241.07
   72.81        2957.75           2254          67.00       284.66
   72.84        2958.00           2257          66.00       280.30
   72.87        2958.25           2261          64.00       271.58
   72.90        2958.50           2264          66.00       280.30
   72.93        2958.75           2268          59.00       249.78
   72.96        2959.00           2271          71.00       302.10
   73.00        2959.25           2275          69.00       293.38
   73.03        2959.50           2278          65.00       275.94
   73.06        2959.75           2282          71.00       302.10
   73.09        2960.00           2285          73.00       310.81
   73.12        2960.25           2289          67.00       284.66
   73.15        2960.50           2293          78.00       332.61
   73.18        2960.75           2296          70.00       297.74
   73.21        2961.00           2300          86.00       367.49
   73.24        2961.25           2303         181.00       781.63
   73.27        2961.50           2307         429.00      1862.80
   73.30        2961.75           2310         934.00      4064.64
   73.33        2962.00           2314        1779.00      7749.65
   73.36        2962.25           2317        2531.00     11029.86
   73.39        2962.50           2321        3463.00     15096.24
   73.42        2962.75           2324        4151.00     18098.75
   73.45        2963.00           2328        5239.00     22848.17
   73.48        2963.25           2331        5935.00     25887.21
   73.52        2963.50           2335        6813.00     29721.83
   73.55        2963.75           2339        7980.00     34820.19
   73.58        2964.00           2342        9240.00     40326.84
   73.61        2964.25           2346       10540.00     46010.46
   73.64        2964.50           2349       11126.00     48573.18
   73.67        2964.75           2353       12218.00     53349.96
   73.70        2965.00           2356       13007.00     56802.27
   73.73        2965.25           2360       14304.00     62479.15
   73.76        2965.50           2363       14836.00     64808.30
   73.79        2965.75           2367       16001.00     69910.10
   73.82        2966.00           2370       16914.00     73909.56
   73.85        2966.25           2374       17800.00     77791.81
   73.88        2966.50           2378       18395.00     80399.52
   73.91        2966.75           2381       18334.00     80132.16
   73.94        2967.00           2385       18272.00     79860.41
   73.97        2967.25           2388       18370.00     80289.95
   74.00        2967.50           2392       18264.00     79825.35
   74.04        2967.75           2395       18101.00     79110.95
   74.07        2968.00           2399       17664.00     77195.81
   74.10        2968.25           2402       16723.00     73072.78
   74.13        2968.50           2406       15981.00     69822.50
   74.16        2968.75           2409       15059.00     65784.73
   74.19        2969.00           2413       14236.00     62181.46
   74.22        2969.25           2417       12991.00     56732.25
   74.25        2969.50           2420       12030.00     52527.47
   74.28        2969.75           2424       10906.00     47611.01
   74.31        2970.00           2427       10374.00     45284.58
   74.34        2970.25           2431        9094.00     39688.66
   74.37        2970.50           2434        8322.00     36314.65
   74.40        2970.75           2438        7316.00     31919.10
   74.43        2971.00           2441        6763.00     29503.43
   74.46        2971.25           2445        5709.00     24900.32
   74.49        2971.50           2449        4640.00     20233.18
   74.52        2971.75           2452        3789.00     16518.87
   74.55        2972.00           2456        2764.00     12046.35
   74.59        2972.25           2459        2078.00      9053.79
   74.62        2972.50           2463        1241.00      5403.35
   74.65        2972.75           2466         655.00      2848.14
   74.68        2973.00           2470         200.00       864.45
   74.71        2973.25           2473         114.00       489.55
   74.74        2973.50           2477          88.00       376.20
   74.77        2973.75           2481          88.00       376.20
   74.80        2974.00           2484          79.00       336.97
   74.83        2974.25           2488          76.00       323.89
   74.86        2974.50           2491          86.00       367.49
   74.89        2974.75           2495          75.00       319.53
   74.92        2975.00           2498          79.00       336.97
   74.95        2975.25           2502          79.00       336.97
   74.98        2975.50           2505          70.00       297.74
   75.01        2975.75           2509          72.00       306.45
   75.04        2976.00           2512          73.00       310.81
   75.07        2976.25           2516          72.00       306.45
   75.11        2976.50           2520          73.00       310.81
   75.14        2976.75           2523          74.00       315.17
   75.17        2977.00           2527          72.00       306.45
   75.20        2977.25           2530          71.00       302.10
   75.23        2977.50           2534          64.00       271.58
   75.26        2977.75           2537          70.00       297.74
   75.29        2978.00           2541          67.00       284.66
   75.32        2978.25           2544          60.00       254.14
   75.35        2978.50           2548          65.00       275.94
   75.38        2978.75           2552          67.00       284.66
   75.41        2979.00           2555          53.00       223.63
   75.44        2979.25           2559          58.00       245.42
   75.47        2979.50           2562          63.00       267.22
   75.50        2979.75           2566          57.00       241.07
   75.53        2980.00           2569          58.00       245.42
   75.56        2980.25           2573          64.00       271.58
   75.60        2980.50           2577          68.00       289.02
   75.63        2980.75           2580          55.00       232.35
   75.66        2981.00           2584          58.00       245.42
   75.69        2981.25           2587          69.00       293.38
   75.72        2981.50           2591          48.00       201.83
   75.75        2981.75           2594          52.00       219.27
   75.78        2982.00           2598          56.00       236.71
   75.81        2982.25           2601          52.00       219.27
   75.84        2982.50           2605          62.00       262.86
   75.87        2982.75           2609          58.00       245.42
   75.90        2983.00           2612          60.00       254.14
   75.93        2983.25           2616          58.00       245.42
   75.96        2983.50           2619          58.00       245.42
   75.99        2983.75           2623          54.00       227.99
   76.02        2984.00           2626          60.00       254.14
HS scan finished at 01:16:15
end
************************************************************
  HS Scan of (1) Internal mercury lamp
************************************************************
Integration time is 0.2294 seconds per sample
dh030618Reading 51.44 .94 3.86pr1000
************************************************************
Dead Time -------------------------  3.4E-08 
Number of Cycles Used -------------  4 
Starting Wavelength (Angstroms) ---  2950 
Final Wavelength (Angstoms) -------  2984 
Wavelength Increment (Angstroms) --  .25 
Filter Wheel #1 Position ---------- (1) Ground quartz diffuser (ND=2.32)
Filter Wheel #2 Position ---------- (1) Neutral Density 0.494



************************************************************
HS scan start time = 21:07:24
Dark Count =  6.7 


Time (GMT)  Wavelength (Ang)  Step Number  Raw Counts  Counts/Second

 1268.29        2950.00           2144          54.00       206.19
 1268.49        2950.25           2147          52.00       197.47
 1268.52        2950.50           2151          55.00       210.55
 1268.55        2950.75           2155          59.00       227.99
 1268.58        2951.00           2158          58.00       223.63
 1268.61        2951.25           2162          57.00       219.27
 1268.64        2951.50           2165          51.00       193.11
 1268.67        2951.75           2169          57.00       219.27
 1268.70        2952.00           2172          57.00       219.27
 1268.73        2952.25           2176          56.00       214.91
 1268.76        2952.50           2179          64.00       249.78
 1268.79        2952.75           2183          60.00       232.35
 1268.82        2953.00           2186          52.00       197.47
 1268.85        2953.25           2190          49.00       184.40
 1268.89        2953.50           2193          60.00       232.35
 1268.92        2953.75           2197          59.00       227.99
 1268.95        2954.00           2200          52.00       197.47
 1268.98        2954.25           2204          52.00       197.47
 1269.01        2954.50           2208          56.00       214.91
 1269.04        2954.75           2211          60.00       232.35
 1269.07        2955.00           2215          56.00       214.91
 1269.10        2955.25           2218          60.00       232.35
 1269.13        2955.50           2222          54.00       206.19
 1269.16        2955.75           2225          57.00       219.27
 1269.19        2956.00           2229          65.00       254.14
 1269.22        2956.25           2232          61.00       236.71
 1269.25        2956.50           2236          64.00       249.78
 1269.28        2956.75           2239          61.00       236.71
 1269.31        2957.00           2243          67.00       262.86
 1269.34        2957.25           2246          62.00       241.07
 1269.38        2957.50           2250          61.00       236.71
 1269.41        2957.75           2254          63.00       245.42
 1269.44        2958.00           2257          65.00       254.14
 1269.47        2958.25           2261          67.00       262.86
 1269.50        2958.50           2264          61.00       236.71
 1269.53        2958.75           2268          65.00       254.14
 1269.56        2959.00           2271          72.00       284.66
 1269.59        2959.25           2275          62.00       241.07
 1269.62        2959.50           2278          68.00       267.22
 1269.65        2959.75           2282          67.00       262.86
 1269.68        2960.00           2285          69.00       271.58
 1269.71        2960.25           2289          76.00       302.10
 1269.74        2960.50           2293          84.00       336.97
 1269.77        2960.75           2296          82.00       328.25
 1269.80        2961.00           2300          94.00       380.56
 1269.83        2961.25           2303         176.00       738.03
 1269.86        2961.50           2307         469.00      2015.40
 1269.89        2961.75           2310        1019.00      4413.48
 1269.93        2962.00           2314        2107.00      9158.48
 1269.96        2962.25           2317        2934.00     12766.22
 1269.99        2962.50           2321        3959.00     17238.96
 1270.02        2962.75           2324        4715.00     20538.75
 1270.05        2963.00           2328        5751.00     25061.89
 1270.08        2963.25           2331        6632.00     28909.40
 1270.11        2963.50           2335        7686.00     33513.76
 1270.14        2963.75           2339        8772.00     38259.41
 1270.17        2964.00           2342        9574.00     41765.02
 1270.20        2964.25           2346       10875.00     47453.57
 1270.23        2964.50           2349       11640.00     50799.53
 1270.26        2964.75           2353       12790.00     55830.82
 1270.29        2965.00           2356       13771.00     60124.10
 1270.32        2965.25           2360       14773.00     64510.57
 1270.35        2965.50           2363       15613.00     68188.86
 1270.38        2965.75           2367       16801.00     73392.60
 1270.41        2966.00           2370       17583.00     76818.96
 1270.45        2966.25           2374       18562.00     81109.60
 1270.48        2966.50           2378       19200.00     83906.42
 1270.51        2966.75           2381       19327.00     84463.22
 1270.54        2967.00           2385       19363.00     84621.06
 1270.57        2967.25           2388       19312.00     84397.47
 1270.60        2967.50           2392       19393.00     84752.59
 1270.63        2967.75           2395       19240.00     84081.80
 1270.66        2968.00           2399       18697.00     81701.36
 1270.69        2968.25           2402       17845.00     77967.10
 1270.72        2968.50           2406       16878.00     73729.94
 1270.75        2968.75           2409       15920.00     69533.41
 1270.78        2969.00           2413       14794.00     64602.52
 1270.81        2969.25           2417       13919.00     60771.91
 1270.84        2969.50           2420       13185.00     57559.36
 1270.87        2969.75           2424       12052.00     52601.84
 1270.90        2970.00           2427       11011.00     48048.35
 1270.93        2970.25           2431        9815.00     42818.61
 1270.97        2970.50           2434        8993.00     39225.34
 1271.00        2970.75           2438        7820.00     34099.24
 1271.03        2971.00           2441        6963.00     30355.20
 1271.06        2971.25           2445        5891.00     25673.23
 1271.09        2971.50           2449        4688.00     20420.89
 1271.12        2971.75           2452        3990.00     17374.25
 1271.15        2972.00           2456        2869.00     12482.63
 1271.18        2972.25           2459        2046.00      8892.40
 1271.21        2972.50           2463        1205.00      5224.56
 1271.24        2972.75           2466         619.00      2669.38
 1271.27        2973.00           2470         189.00       794.70
 1271.30        2973.25           2473         106.00       432.87
 1271.33        2973.50           2477          81.00       323.89
 1271.36        2973.75           2481          82.00       328.25
 1271.39        2974.00           2484          89.00       358.77
 1271.42        2974.25           2488          76.00       302.10
 1271.45        2974.50           2491          77.00       306.45
 1271.49        2974.75           2495          79.00       315.17
 1271.52        2975.00           2498          77.00       306.45
 1271.55        2975.25           2502          75.00       297.74
 1271.58        2975.50           2505          63.00       245.42
 1271.61        2975.75           2509          72.00       284.66
 1271.64        2976.00           2512          71.00       280.30
 1271.67        2976.25           2516          78.00       310.81
 1271.70        2976.50           2520          68.00       267.22
 1271.73        2976.75           2523          68.00       267.22
 1271.76        2977.00           2527          70.00       275.94
 1271.79        2977.25           2530          71.00       280.30
 1271.82        2977.50           2534          61.00       236.71
 1271.85        2977.75           2537          63.00       245.42
 1271.88        2978.00           2541          63.00       245.42
 1271.91        2978.25           2544          58.00       223.63
 1271.94        2978.50           2548          61.00       236.71
 1271.97        2978.75           2552          64.00       249.78
 1272.01        2979.00           2555          56.00       214.91
 1272.04        2979.25           2559          66.00       258.50
 1272.07        2979.50           2562          57.00       219.27
 1272.10        2979.75           2566          57.00       219.27
 1272.13        2980.00           2569          62.00       241.07
 1272.16        2980.25           2573          63.00       245.42
 1272.19        2980.50           2577          58.00       223.63
 1272.22        2980.75           2580          53.00       201.83
 1272.25        2981.00           2584          60.00       232.35
 1272.29        2981.25           2587          56.00       214.91
 1272.32        2981.50           2591          51.00       193.11
 1272.35        2981.75           2594          51.00       193.11
 1272.38        2982.00           2598          55.00       210.55
 1272.41        2982.25           2601          59.00       227.99
 1272.44        2982.50           2605          58.00       223.63
 1272.47        2982.75           2609          57.00       219.27
 1272.50        2983.00           2612          60.00       232.35
 1272.53        2983.25           2616          51.00       193.11
 1272.56        2983.50           2619          56.00       214.91
 1272.59        2983.75           2623          52.00       197.47
 1272.62        2984.00           2626          59.00       227.99
HS scan finished at 21:12:51
end
