************************************************************
  HS Scan of (1) Internal mercury lamp
************************************************************
Integration time is 0.2294 seconds per sample
dh020618Reading 51.44 .94 3.45pr1000
************************************************************
Dead Time -------------------------  3.4E-08 
Number of Cycles Used -------------  4 
Starting Wavelength (Angstroms) ---  2950 
Final Wavelength (Angstoms) -------  2984 
Wavelength Increment (Angstroms) --  .25 
Filter Wheel #1 Position ---------- (1) Ground quartz diffuser (ND=2.32)
Filter Wheel #2 Position ---------- (1) Neutral Density 0.494



************************************************************
HS scan start time = 01:07:08
Dark Count =  2.2 


Time (GMT)  Wavelength (Ang)  Step Number  Raw Counts  Counts/Second

   68.03        2950.00           2144          62.00       260.68
   68.22        2950.25           2147          57.00       238.89
   68.25        2950.50           2151          50.00       208.37
   68.28        2950.75           2155          62.00       260.68
   68.31        2951.00           2158          64.00       269.40
   68.34        2951.25           2162          58.00       243.25
   68.37        2951.50           2165          63.00       265.04
   68.40        2951.75           2169          65.00       273.76
   68.43        2952.00           2172          58.00       243.25
   68.46        2952.25           2176          61.00       256.32
   68.49        2952.50           2179          59.00       247.60
   68.53        2952.75           2183          63.00       265.04
   68.56        2953.00           2186          71.00       299.92
   68.59        2953.25           2190          65.00       273.76
   68.62        2953.50           2193          66.00       278.12
   68.65        2953.75           2197          64.00       269.40
   68.68        2954.00           2200          66.00       278.12
   68.71        2954.25           2204          63.00       265.04
   68.74        2954.50           2208          65.00       273.76
   68.77        2954.75           2211          64.00       269.40
   68.80        2955.00           2215          57.00       238.89
   68.83        2955.25           2218          65.00       273.76
   68.86        2955.50           2222          69.00       291.20
   68.89        2955.75           2225          55.00       230.17
   68.92        2956.00           2229          68.00       286.84
   68.95        2956.25           2232          64.00       269.40
   68.98        2956.50           2236          73.00       308.63
   69.01        2956.75           2239          67.00       282.48
   69.05        2957.00           2243          66.00       278.12
   69.08        2957.25           2246          64.00       269.40
   69.11        2957.50           2250          75.00       317.35
   69.14        2957.75           2254          71.00       299.92
   69.17        2958.00           2257          83.00       352.23
   69.20        2958.25           2261          72.00       304.28
   69.23        2958.50           2264          69.00       291.20
   69.26        2958.75           2268          71.00       299.92
   69.29        2959.00           2271          72.00       304.28
   69.32        2959.25           2275          79.00       334.79
   69.35        2959.50           2278          70.00       295.56
   69.38        2959.75           2282          74.00       312.99
   69.41        2960.00           2285          83.00       352.23
   69.44        2960.25           2289          81.00       343.51
   69.47        2960.50           2293          84.00       356.59
   69.50        2960.75           2296          89.00       378.38
   69.53        2961.00           2300         136.00       583.27
   69.57        2961.25           2303         390.00      1690.59
   69.60        2961.50           2307        1128.00      4908.40
   69.63        2961.75           2310        1899.00      8270.85
   69.66        2962.00           2314        2851.00     12423.73
   69.69        2962.25           2317        3607.00     15722.44
   69.72        2962.50           2321        4820.00     21016.76
   69.75        2962.75           2324        5723.00     24959.27
   69.78        2963.00           2328        7015.00     30602.01
   69.81        2963.25           2331        7902.00     34477.18
   69.84        2963.50           2335        9233.00     40294.05
   69.87        2963.75           2339       10285.00     44893.24
   69.90        2964.00           2342       11138.00     48623.47
   69.93        2964.25           2346       12206.00     53295.27
   69.96        2964.50           2349       13108.00     57242.08
   69.99        2964.75           2353       14563.00     63610.84
   70.02        2965.00           2356       15343.00     67026.16
   70.05        2965.25           2360       16231.00     70915.33
   70.09        2965.50           2363       17018.00     74363.02
   70.12        2965.75           2367       18129.00     79231.46
   70.15        2966.00           2370       19065.00     83334.31
   70.18        2966.25           2374       19846.00     86758.59
   70.21        2966.50           2378       20060.00     87697.02
   70.24        2966.75           2381       20182.00     88232.05
   70.27        2967.00           2385       20107.00     87903.13
   70.30        2967.25           2388       20211.00     88359.22
   70.33        2967.50           2392       20171.00     88183.80
   70.36        2967.75           2395       19728.00     86241.18
   70.39        2968.00           2399       18911.00     82659.19
   70.42        2968.25           2402       18125.00     79213.93
   70.45        2968.50           2406       17071.00     74595.24
   70.48        2968.75           2409       16313.00     71274.52
   70.51        2969.00           2413       15410.00     67319.56
   70.54        2969.25           2417       14396.00     62879.71
   70.57        2969.50           2420       13604.00     59412.83
   70.61        2969.75           2424       12259.00     53527.15
   70.64        2970.00           2427       11234.00     49043.35
   70.67        2970.25           2431        9972.00     43524.70
   70.70        2970.50           2434        9151.00     39935.62
   70.73        2970.75           2438        7968.00     34765.57
   70.76        2971.00           2441        7090.00     30929.63
   70.79        2971.25           2445        5969.00     26033.49
   70.82        2971.50           2449        4787.00     20872.70
   70.85        2971.75           2452        3909.00     17040.39
   70.88        2972.00           2456        2807.00     12231.76
   70.91        2972.25           2459        2009.00      8750.64
   70.94        2972.50           2463         955.00      4154.03
   70.97        2972.75           2466         413.00      1790.87
   71.00        2973.00           2470         152.00       653.02
   71.03        2973.25           2473         107.00       456.85
   71.06        2973.50           2477          91.00       387.10
   71.09        2973.75           2481          89.00       378.38
   71.13        2974.00           2484          85.00       360.95
   71.16        2974.25           2488          90.00       382.74
   71.19        2974.50           2491          87.00       369.66
   71.22        2974.75           2495          86.00       365.31
   71.25        2975.00           2498          84.00       356.59
   71.28        2975.25           2502          71.00       299.92
   71.31        2975.50           2505          77.00       326.07
   71.34        2975.75           2509          76.00       321.71
   71.37        2976.00           2512          75.00       317.35
   71.40        2976.25           2516          73.00       308.63
   71.43        2976.50           2520          76.00       321.71
   71.46        2976.75           2523          64.00       269.40
   71.49        2977.00           2527          66.00       278.12
   71.52        2977.25           2530          71.00       299.92
   71.55        2977.50           2534          71.00       299.92
   71.58        2977.75           2537          69.00       291.20
   71.61        2978.00           2541          73.00       308.63
   71.65        2978.25           2544          67.00       282.48
   71.68        2978.50           2548          71.00       299.92
   71.71        2978.75           2552          63.00       265.04
   71.74        2979.00           2555          64.00       269.40
   71.77        2979.25           2559          54.00       225.81
   71.80        2979.50           2562          70.00       295.56
   71.83        2979.75           2566          64.00       269.40
   71.86        2980.00           2569          69.00       291.20
   71.89        2980.25           2573          64.00       269.40
   71.92        2980.50           2577          62.00       260.68
   71.95        2980.75           2580          61.00       256.32
   71.98        2981.00           2584          60.00       251.96
   72.01        2981.25           2587          68.00       286.84
   72.04        2981.50           2591          60.00       251.96
   72.07        2981.75           2594          60.00       251.96
   72.10        2982.00           2598          57.00       238.89
   72.13        2982.25           2601          58.00       243.25
   72.16        2982.50           2605          56.00       234.53
   72.20        2982.75           2609          62.00       260.68
   72.23        2983.00           2612          65.00       273.76
   72.26        2983.25           2616          60.00       251.96
   72.29        2983.50           2619          56.00       234.53
   72.32        2983.75           2623          60.00       251.96
   72.35        2984.00           2626          64.00       269.40
HS scan finished at 01:12:34
end
************************************************************
  HS Scan of (1) Internal mercury lamp
************************************************************
Integration time is 0.2294 seconds per sample
dh020618Reading 51.44 .94 3.8pr1000
************************************************************
Dead Time -------------------------  3.4E-08 
Number of Cycles Used -------------  4 
Starting Wavelength (Angstroms) ---  2950 
Final Wavelength (Angstoms) -------  2984 
Wavelength Increment (Angstroms) --  .25 
Filter Wheel #1 Position ---------- (1) Ground quartz diffuser (ND=2.32)
Filter Wheel #2 Position ---------- (1) Neutral Density 0.494



************************************************************
HS scan start time = 21:08:41
Dark Count =  6 


Time (GMT)  Wavelength (Ang)  Step Number  Raw Counts  Counts/Second

 1269.58        2950.00           2144          41.00       152.57
 1269.78        2950.25           2147          47.00       178.73
 1269.81        2950.50           2151          40.00       148.21
 1269.84        2950.75           2155          47.00       178.73
 1269.87        2951.00           2158          43.00       161.29
 1269.90        2951.25           2162          45.00       170.01
 1269.93        2951.50           2165          41.00       152.57
 1269.96        2951.75           2169          45.00       170.01
 1269.99        2952.00           2172          43.00       161.29
 1270.02        2952.25           2176          41.00       152.57
 1270.05        2952.50           2179          48.00       183.09
 1270.08        2952.75           2183          54.00       209.24
 1270.11        2953.00           2186          49.00       187.45
 1270.14        2953.25           2190          42.00       156.93
 1270.17        2953.50           2193          41.00       152.57
 1270.20        2953.75           2197          46.00       174.37
 1270.23        2954.00           2200          45.00       170.01
 1270.27        2954.25           2204          48.00       183.09
 1270.30        2954.50           2208          48.00       183.09
 1270.33        2954.75           2211          50.00       191.81
 1270.36        2955.00           2215          54.00       209.24
 1270.39        2955.25           2218          51.00       196.17
 1270.42        2955.50           2222          45.00       170.01
 1270.45        2955.75           2225          51.00       196.17
 1270.48        2956.00           2229          44.00       165.65
 1270.51        2956.25           2232          51.00       196.17
 1270.54        2956.50           2236          51.00       196.17
 1270.57        2956.75           2239          48.00       183.09
 1270.60        2957.00           2243          52.00       200.52
 1270.63        2957.25           2246          48.00       183.09
 1270.66        2957.50           2250          47.00       178.73
 1270.69        2957.75           2254          50.00       191.81
 1270.72        2958.00           2257          47.00       178.73
 1270.75        2958.25           2261          54.00       209.24
 1270.79        2958.50           2264          54.00       209.24
 1270.82        2958.75           2268          56.00       217.96
 1270.85        2959.00           2271          50.00       191.81
 1270.88        2959.25           2275          54.00       209.24
 1270.91        2959.50           2278          53.00       204.88
 1270.94        2959.75           2282          61.00       239.76
 1270.97        2960.00           2285          60.00       235.40
 1271.00        2960.25           2289          60.00       235.40
 1271.03        2960.50           2293          60.00       235.40
 1271.06        2960.75           2296          59.00       231.04
 1271.09        2961.00           2300          67.00       265.91
 1271.12        2961.25           2303         136.00       566.71
 1271.15        2961.50           2307         325.00      1390.65
 1271.18        2961.75           2310         693.00      2995.07
 1271.21        2962.00           2314        1418.00      6156.48
 1271.24        2962.25           2317        2010.00      8738.43
 1271.28        2962.50           2321        2686.00     11687.29
 1271.31        2962.75           2324        3213.00     13986.60
 1271.34        2963.00           2328        4100.00     17857.40
 1271.37        2963.25           2331        4702.00     20485.06
 1271.40        2963.50           2335        5497.00     23955.86
 1271.43        2963.75           2339        6218.00     27104.31
 1271.46        2964.00           2342        6933.00     30227.22
 1271.49        2964.25           2346        7629.00     33267.78
 1271.52        2964.50           2349        8165.00     35609.79
 1271.55        2964.75           2353        9077.00     39595.56
 1271.58        2965.00           2356        9522.00     41540.76
 1271.61        2965.25           2360       10214.00     44566.17
 1271.64        2965.50           2363       10646.00     46455.19
 1271.67        2965.75           2367       11579.00     50535.76
 1271.70        2966.00           2370       12300.00     53689.90
 1271.73        2966.25           2374       13456.00     58748.45
 1271.76        2966.50           2378       13820.00     60341.64
 1271.80        2966.75           2381       14001.00     61133.92
 1271.83        2967.00           2385       14094.00     61541.02
 1271.86        2967.25           2388       14117.00     61641.70
 1271.89        2967.50           2392       14090.00     61523.51
 1271.92        2967.75           2395       13958.00     60945.69
 1271.95        2968.00           2399       13406.00     58529.62
 1271.98        2968.25           2402       13005.00     56774.71
 1272.01        2968.50           2406       12157.00     53064.26
 1272.04        2968.75           2409       11592.00     50592.62
 1272.07        2969.00           2413       10881.00     47482.88
 1272.10        2969.25           2417       10054.00     43866.60
 1272.13        2969.50           2420        9364.00     40850.07
 1272.16        2969.75           2424        8556.00     37318.46
 1272.19        2970.00           2427        7821.00     34106.66
 1272.22        2970.25           2431        6923.00     30183.53
 1272.25        2970.50           2434        6402.00     27907.90
 1272.28        2970.75           2438        5593.00     24375.03
 1272.32        2971.00           2441        4853.00     21144.23
 1272.35        2971.25           2445        4065.00     17704.64
 1272.38        2971.50           2449        3299.00     14361.85
 1272.41        2971.75           2452        2726.00     11861.80
 1272.44        2972.00           2456        1990.00      8651.19
 1272.48        2972.25           2459        1473.00      6396.33
 1272.51        2972.50           2463         777.00      3361.33
 1272.54        2972.75           2466         415.00      1783.02
 1272.58        2973.00           2470         147.00       614.66
 1272.61        2973.25           2473          81.00       326.94
 1272.64        2973.50           2477          68.00       270.27
 1272.67        2973.75           2481          66.00       261.55
 1272.70        2974.00           2484          67.00       265.91
 1272.73        2974.25           2488          62.00       244.12
 1272.76        2974.50           2491          61.00       239.76
 1272.79        2974.75           2495          57.00       222.32
 1272.82        2975.00           2498          51.00       196.17
 1272.85        2975.25           2502          53.00       204.88
 1272.88        2975.50           2505          64.00       252.84
 1272.91        2975.75           2509          49.00       187.45
 1272.94        2976.00           2512          53.00       204.88
 1272.97        2976.25           2516          58.00       226.68
 1273.00        2976.50           2520          54.00       209.24
 1273.05        2976.75           2523          61.00       239.76
 1273.08        2977.00           2527          53.00       204.88
 1273.11        2977.25           2530          55.00       213.60
 1273.14        2977.50           2534          51.00       196.17
 1273.17        2977.75           2537          52.00       200.52
 1273.20        2978.00           2541          52.00       200.52
 1273.23        2978.25           2544          54.00       209.24
 1273.26        2978.50           2548          49.00       187.45
 1273.29        2978.75           2552          46.00       174.37
 1273.32        2979.00           2555          50.00       191.81
 1273.35        2979.25           2559          50.00       191.81
 1273.39        2979.50           2562          46.00       174.37
 1273.42        2979.75           2566          47.00       178.73
 1273.45        2980.00           2569          46.00       174.37
 1273.48        2980.25           2573          45.00       170.01
 1273.51        2980.50           2577          48.00       183.09
 1273.54        2980.75           2580          49.00       187.45
 1273.57        2981.00           2584          50.00       191.81
 1273.60        2981.25           2587          41.00       152.57
 1273.63        2981.50           2591          43.00       161.29
 1273.66        2981.75           2594          52.00       200.52
 1273.69        2982.00           2598          41.00       152.57
 1273.72        2982.25           2601          42.00       156.93
 1273.75        2982.50           2605          42.00       156.93
 1273.78        2982.75           2609          46.00       174.37
 1273.81        2983.00           2612          45.00       170.01
 1273.84        2983.25           2616          44.00       165.65
 1273.88        2983.50           2619          37.00       135.14
 1273.91        2983.75           2623          44.00       165.65
 1273.94        2984.00           2626          47.00       178.73
HS scan finished at 21:14:10
end
