************************************************************
  HS Scan of (1) Internal mercury lamp
************************************************************
Integration time is 0.2294 seconds per sample
dh310518Reading 51.44 .94 3.5pr1000
************************************************************
Dead Time -------------------------  3.4E-08 
Number of Cycles Used -------------  4 
Starting Wavelength (Angstroms) ---  2950 
Final Wavelength (Angstoms) -------  2984 
Wavelength Increment (Angstroms) --  .25 
Filter Wheel #1 Position ---------- (1) Ground quartz diffuser (ND=2.32)
Filter Wheel #2 Position ---------- (1) Neutral Density 0.494



************************************************************
HS scan start time = 01:27:38
Dark Count =  2.4 


Time (GMT)  Wavelength (Ang)  Step Number  Raw Counts  Counts/Second

   88.53        2950.00           2144          50.00       207.50
   88.72        2950.25           2147          53.00       220.58
   88.75        2950.50           2151          59.00       246.73
   88.78        2950.75           2155          59.00       246.73
   88.81        2951.00           2158          51.00       211.86
   88.84        2951.25           2162          48.00       198.78
   88.87        2951.50           2165          55.00       229.30
   88.90        2951.75           2169          58.00       242.37
   88.93        2952.00           2172          53.00       220.58
   88.96        2952.25           2176          59.00       246.73
   88.99        2952.50           2179          55.00       229.30
   89.02        2952.75           2183          49.00       203.14
   89.05        2953.00           2186          48.00       198.78
   89.09        2953.25           2190          55.00       229.30
   89.12        2953.50           2193          59.00       246.73
   89.15        2953.75           2197          58.00       242.37
   89.18        2954.00           2200          57.00       238.01
   89.21        2954.25           2204          58.00       242.37
   89.24        2954.50           2208          58.00       242.37
   89.27        2954.75           2211          58.00       242.37
   89.30        2955.00           2215          62.00       259.81
   89.33        2955.25           2218          59.00       246.73
   89.36        2955.50           2222          61.00       255.45
   89.39        2955.75           2225          52.00       216.22
   89.42        2956.00           2229          66.00       277.25
   89.45        2956.25           2232          59.00       246.73
   89.48        2956.50           2236          59.00       246.73
   89.51        2956.75           2239          68.00       285.97
   89.54        2957.00           2243          66.00       277.25
   89.58        2957.25           2246          61.00       255.45
   89.61        2957.50           2250          63.00       264.17
   89.64        2957.75           2254          64.00       268.53
   89.67        2958.00           2257          58.00       242.37
   89.70        2958.25           2261          68.00       285.97
   89.73        2958.50           2264          62.00       259.81
   89.76        2958.75           2268          74.00       312.12
   89.79        2959.00           2271          79.00       333.92
   89.82        2959.25           2275          79.00       333.92
   89.85        2959.50           2278          68.00       285.97
   89.88        2959.75           2282          69.00       290.33
   89.91        2960.00           2285          60.00       251.09
   89.94        2960.25           2289          73.00       307.76
   89.97        2960.50           2293          80.00       338.28
   90.00        2960.75           2296          84.00       355.71
   90.03        2961.00           2300         124.00       530.09
   90.06        2961.25           2303         328.00      1419.42
   90.10        2961.50           2307         930.00      4044.15
   90.13        2961.75           2310        1524.00      6634.45
   90.16        2962.00           2314        2590.00     11284.19
   90.19        2962.25           2317        3266.00     14233.57
   90.22        2962.50           2321        4493.00     19588.46
   90.25        2962.75           2324        5178.00     22578.79
   90.28        2963.00           2328        6139.00     26775.02
   90.31        2963.25           2331        6839.00     29832.34
   90.34        2963.50           2335        8028.00     35026.87
   90.37        2963.75           2339        9100.00     39711.82
   90.40        2964.00           2342        9935.00     43362.05
   90.43        2964.25           2346       11339.00     49501.73
   90.46        2964.50           2349       11914.00     52016.94
   90.49        2964.75           2353       12989.00     56720.44
   90.52        2965.00           2356       14082.00     61504.24
   90.55        2965.25           2360       15207.00     66429.73
   90.58        2965.50           2363       16058.00     70156.68
   90.62        2965.75           2367       17326.00     75711.65
   90.65        2966.00           2370       18457.00     80668.21
   90.68        2966.25           2374       19039.00     83219.44
   90.71        2966.50           2378       19385.00     84736.38
   90.74        2966.75           2381       19695.00     86095.59
   90.77        2967.00           2385       19476.00     85135.35
   90.80        2967.25           2388       19474.00     85126.58
   90.83        2967.50           2392       19275.00     84254.09
   90.86        2967.75           2395       19141.00     83666.61
   90.89        2968.00           2399       18441.00     80598.07
   90.92        2968.25           2402       17675.00     77240.94
   90.95        2968.50           2406       16943.00     74033.55
   90.98        2968.75           2409       16072.00     70218.01
   91.01        2969.00           2413       15096.00     65943.68
   91.04        2969.25           2417       13713.00     59889.05
   91.07        2969.50           2420       13106.00     57232.44
   91.10        2969.75           2424       11867.00     51811.33
   91.13        2970.00           2427       10916.00     47651.69
   91.17        2970.25           2431        9807.00     42802.44
   91.20        2970.50           2434        9057.00     39523.87
   91.23        2970.75           2438        7817.00     34104.92
   91.26        2971.00           2441        6844.00     29854.18
   91.29        2971.25           2445        5653.00     24652.74
   91.32        2971.50           2449        4520.00     19706.31
   91.35        2971.75           2452        3733.00     16271.42
   91.38        2972.00           2456        2611.00     11375.80
   91.41        2972.25           2459        1894.00      8248.17
   91.44        2972.50           2463         953.00      4144.44
   91.47        2972.75           2466         400.00      1733.32
   91.50        2973.00           2470         165.00       708.82
   91.53        2973.25           2473          90.00       381.87
   91.56        2973.50           2477          93.00       394.95
   91.59        2973.75           2481          93.00       394.95
   91.62        2974.00           2484          81.00       342.64
   91.65        2974.25           2488          77.00       325.20
   91.69        2974.50           2491          78.00       329.56
   91.72        2974.75           2495          73.00       307.76
   91.75        2975.00           2498          73.00       307.76
   91.78        2975.25           2502          74.00       312.12
   91.81        2975.50           2505          78.00       329.56
   91.84        2975.75           2509          67.00       281.61
   91.87        2976.00           2512          68.00       285.97
   91.90        2976.25           2516          68.00       285.97
   91.93        2976.50           2520          73.00       307.76
   91.96        2976.75           2523          71.00       299.04
   91.99        2977.00           2527          81.00       342.64
   92.02        2977.25           2530          67.00       281.61
   92.05        2977.50           2534          71.00       299.04
   92.08        2977.75           2537          66.00       277.25
   92.11        2978.00           2541          68.00       285.97
   92.14        2978.25           2544          66.00       277.25
   92.18        2978.50           2548          66.00       277.25
   92.21        2978.75           2552          61.00       255.45
   92.24        2979.00           2555          64.00       268.53
   92.27        2979.25           2559          61.00       255.45
   92.30        2979.50           2562          55.00       229.30
   92.33        2979.75           2566          62.00       259.81
   92.36        2980.00           2569          62.00       259.81
   92.39        2980.25           2573          65.00       272.89
   92.42        2980.50           2577          54.00       224.94
   92.45        2980.75           2580          63.00       264.17
   92.48        2981.00           2584          58.00       242.37
   92.51        2981.25           2587          54.00       224.94
   92.54        2981.50           2591          62.00       259.81
   92.57        2981.75           2594          52.00       216.22
   92.60        2982.00           2598          59.00       246.73
   92.63        2982.25           2601          60.00       251.09
   92.66        2982.50           2605          58.00       242.37
   92.69        2982.75           2609          56.00       233.65
   92.73        2983.00           2612          61.00       255.45
   92.76        2983.25           2616          59.00       246.73
   92.79        2983.50           2619          59.00       246.73
   92.82        2983.75           2623          48.00       198.78
   92.85        2984.00           2626          57.00       238.01
HS scan finished at 01:33:04
end
************************************************************
  HS Scan of (1) Internal mercury lamp
************************************************************
Integration time is 0.2294 seconds per sample
dh310518Reading 51.44 .94 3.66pr1000
************************************************************
Dead Time -------------------------  3.4E-08 
Number of Cycles Used -------------  4 
Starting Wavelength (Angstroms) ---  2950 
Final Wavelength (Angstoms) -------  2984 
Wavelength Increment (Angstroms) --  .25 
Filter Wheel #1 Position ---------- (1) Ground quartz diffuser (ND=2.32)
Filter Wheel #2 Position ---------- (1) Neutral Density 0.494



************************************************************
HS scan start time = 21:07:25
Dark Count =  4.2 


Time (GMT)  Wavelength (Ang)  Step Number  Raw Counts  Counts/Second

 1268.32        2950.00           2144          61.00       247.60
 1268.51        2950.25           2147          58.00       234.53
 1268.55        2950.50           2151          55.00       221.45
 1268.58        2950.75           2155          61.00       247.60
 1268.61        2951.00           2158          62.00       251.96
 1268.64        2951.25           2162          54.00       217.09
 1268.67        2951.50           2165          58.00       234.53
 1268.70        2951.75           2169          54.00       217.09
 1268.73        2952.00           2172          60.00       243.25
 1268.76        2952.25           2176          56.00       225.81
 1268.79        2952.50           2179          56.00       225.81
 1268.82        2952.75           2183          57.00       230.17
 1268.85        2953.00           2186          54.00       217.09
 1268.88        2953.25           2190          57.00       230.17
 1268.91        2953.50           2193          60.00       243.25
 1268.94        2953.75           2197          57.00       230.17
 1268.97        2954.00           2200          61.00       247.60
 1269.00        2954.25           2204          65.00       265.04
 1269.03        2954.50           2208          62.00       251.96
 1269.07        2954.75           2211          55.00       221.45
 1269.10        2955.00           2215          58.00       234.53
 1269.13        2955.25           2218          58.00       234.53
 1269.16        2955.50           2222          60.00       243.25
 1269.19        2955.75           2225          53.00       212.73
 1269.22        2956.00           2229          68.00       278.12
 1269.25        2956.25           2232          62.00       251.96
 1269.28        2956.50           2236          60.00       243.25
 1269.31        2956.75           2239          68.00       278.12
 1269.34        2957.00           2243          62.00       251.96
 1269.37        2957.25           2246          64.00       260.68
 1269.40        2957.50           2250          61.00       247.60
 1269.43        2957.75           2254          64.00       260.68
 1269.46        2958.00           2257          64.00       260.68
 1269.49        2958.25           2261          66.00       269.40
 1269.52        2958.50           2264          68.00       278.12
 1269.55        2958.75           2268          67.00       273.76
 1269.58        2959.00           2271          68.00       278.12
 1269.62        2959.25           2275          69.00       282.48
 1269.65        2959.50           2278          71.00       291.20
 1269.68        2959.75           2282          70.00       286.84
 1269.71        2960.00           2285          74.00       304.28
 1269.74        2960.25           2289          78.00       321.71
 1269.77        2960.50           2293          78.00       321.71
 1269.80        2960.75           2296          86.00       356.59
 1269.83        2961.00           2300          98.00       408.90
 1269.86        2961.25           2303         187.00       796.88
 1269.89        2961.50           2307         719.00      3116.28
 1269.92        2961.75           2310        1391.00      6046.58
 1269.95        2962.00           2314        2267.00      9867.30
 1269.98        2962.25           2317        3022.00     13161.08
 1270.01        2962.50           2321        3971.00     17302.24
 1270.04        2962.75           2324        4702.00     20492.91
 1270.07        2963.00           2328        5875.00     25614.28
 1270.10        2963.25           2331        6608.00     28815.49
 1270.14        2963.50           2335        7579.00     33057.19
 1270.17        2963.75           2339        8675.00     37846.40
 1270.20        2964.00           2342        9403.00     41028.42
 1270.23        2964.25           2346       10851.00     47359.55
 1270.26        2964.50           2349       11599.00     50631.11
 1270.29        2964.75           2353       12373.00     54017.17
 1270.32        2965.00           2356       13074.00     57084.53
 1270.35        2965.25           2360       14077.00     61474.48
 1270.38        2965.50           2363       15699.00     68576.46
 1270.41        2965.75           2367       16977.00     74174.63
 1270.44        2966.00           2370       17816.00     77850.96
 1270.47        2966.25           2374       18717.00     81800.00
 1270.50        2966.50           2378       19032.00     83180.87
 1270.53        2966.75           2381       19421.00     84886.32
 1270.56        2967.00           2385       19406.00     84820.56
 1270.59        2967.25           2388       19384.00     84724.09
 1270.63        2967.50           2392       19219.00     84000.69
 1270.66        2967.75           2395       19026.00     83154.56
 1270.69        2968.00           2399       18326.00     80086.13
 1270.72        2968.25           2402       17457.00     76277.78
 1270.75        2968.50           2406       16611.00     72571.18
 1270.78        2968.75           2409       15807.00     69049.45
 1270.81        2969.00           2413       14866.00     64928.71
 1270.84        2969.25           2417       13764.00     60104.39
 1270.87        2969.50           2420       12815.00     55951.15
 1270.90        2969.75           2424       11688.00     51020.42
 1270.93        2970.00           2427       10790.00     47092.78
 1270.96        2970.25           2431        9750.00     42545.37
 1270.99        2970.50           2434        8953.00     39061.43
 1271.02        2970.75           2438        7642.00     33332.44
 1271.05        2971.00           2441        6763.00     29492.51
 1271.08        2971.25           2445        5629.00     24540.08
 1271.11        2971.50           2449        4649.00     20261.56
 1271.15        2971.75           2452        3821.00     16647.61
 1271.18        2972.00           2456        2761.00     12022.35
 1271.21        2972.25           2459        1910.00      8310.11
 1271.24        2972.50           2463        1021.00      4433.10
 1271.27        2972.75           2466         457.00      1973.98
 1271.30        2973.00           2470         152.00       644.30
 1271.33        2973.25           2473         102.00       426.34
 1271.36        2973.50           2477          87.00       360.95
 1271.39        2973.75           2481          89.00       369.66
 1271.42        2974.00           2484          78.00       321.71
 1271.45        2974.25           2488          83.00       343.51
 1271.48        2974.50           2491          87.00       360.95
 1271.51        2974.75           2495          73.00       299.92
 1271.54        2975.00           2498          71.00       291.20
 1271.57        2975.25           2502          72.00       295.56
 1271.60        2975.50           2505          80.00       330.43
 1271.63        2975.75           2509          67.00       273.76
 1271.67        2976.00           2512          76.00       312.99
 1271.70        2976.25           2516          78.00       321.71
 1271.73        2976.50           2520          69.00       282.48
 1271.76        2976.75           2523          75.00       308.63
 1271.79        2977.00           2527          71.00       291.20
 1271.82        2977.25           2530          68.00       278.12
 1271.85        2977.50           2534          70.00       286.84
 1271.88        2977.75           2537          63.00       256.32
 1271.91        2978.00           2541          68.00       278.12
 1271.94        2978.25           2544          66.00       269.40
 1271.97        2978.50           2548          65.00       265.04
 1272.00        2978.75           2552          60.00       243.25
 1272.03        2979.00           2555          66.00       269.40
 1272.06        2979.25           2559          66.00       269.40
 1272.09        2979.50           2562          62.00       251.96
 1272.12        2979.75           2566          63.00       256.32
 1272.15        2980.00           2569          62.00       251.96
 1272.19        2980.25           2573          53.00       212.73
 1272.22        2980.50           2577          56.00       225.81
 1272.25        2980.75           2580          60.00       243.25
 1272.28        2981.00           2584          62.00       251.96
 1272.31        2981.25           2587          60.00       243.25
 1272.34        2981.50           2591          65.00       265.04
 1272.37        2981.75           2594          62.00       251.96
 1272.40        2982.00           2598          61.00       247.60
 1272.43        2982.25           2601          61.00       247.60
 1272.46        2982.50           2605          67.00       273.76
 1272.49        2982.75           2609          56.00       225.81
 1272.52        2983.00           2612          60.00       243.25
 1272.55        2983.25           2616          52.00       208.37
 1272.58        2983.50           2619          60.00       243.25
 1272.61        2983.75           2623          56.00       225.81
 1272.64        2984.00           2626          54.00       217.09
HS scan finished at 21:12:52
end
