************************************************************
  HS Scan of (1) Internal mercury lamp
************************************************************
Integration time is 0.2294 seconds per sample
dh080617El Arenosillo 37.1 6.73 3.62pr1000
************************************************************
Dead Time -------------------------  3.4E-08 
Number of Cycles Used -------------  4 
Starting Wavelength (Angstroms) ---  2950 
Final Wavelength (Angstoms) -------  2984 
Wavelength Increment (Angstroms) --  .25 
Filter Wheel #1 Position ---------- (1) Ground quartz diffuser (ND=2.32)
Filter Wheel #2 Position ---------- (1) Neutral Density 0.494



************************************************************
HS scan start time = 01:45:28
Dark Count =  3.4 


Time (GMT)  Wavelength (Ang)  Step Number  Raw Counts  Counts/Second

  106.37        2950.00           2144         287.00      1236.32
  106.56        2950.25           2147         291.00      1253.76
  106.59        2950.50           2151         292.00      1258.12
  106.62        2950.75           2155         301.00      1297.35
  106.65        2951.00           2158         299.00      1288.64
  106.68        2951.25           2162         308.00      1327.87
  106.71        2951.50           2165         304.00      1310.43
  106.74        2951.75           2169         301.00      1297.35
  106.77        2952.00           2172         289.00      1245.04
  106.80        2952.25           2176         303.00      1306.07
  106.83        2952.50           2179         299.00      1288.64
  106.86        2952.75           2183         293.00      1262.48
  106.90        2953.00           2186         305.00      1314.79
  106.93        2953.25           2190         313.00      1349.67
  106.96        2953.50           2193         313.00      1349.67
  106.99        2953.75           2197         311.00      1340.95
  107.02        2954.00           2200         311.00      1340.95
  107.05        2954.25           2204         313.00      1349.67
  107.08        2954.50           2208         304.00      1310.43
  107.11        2954.75           2211         305.00      1314.79
  107.14        2955.00           2215         355.00      1532.77
  107.17        2955.25           2218         332.00      1432.50
  107.20        2955.50           2222         339.00      1463.02
  107.23        2955.75           2225         321.00      1384.55
  107.26        2956.00           2229         338.00      1458.66
  107.29        2956.25           2232         349.00      1506.62
  107.32        2956.50           2236         341.00      1471.74
  107.35        2956.75           2239         346.00      1493.54
  107.38        2957.00           2243         376.00      1624.33
  107.42        2957.25           2246         346.00      1493.54
  107.45        2957.50           2250         346.00      1493.54
  107.48        2957.75           2254         389.00      1681.00
  107.51        2958.00           2257         358.00      1545.85
  107.54        2958.25           2261         402.00      1737.68
  107.57        2958.50           2264         377.00      1628.69
  107.60        2958.75           2268         370.00      1598.17
  107.63        2959.00           2271         407.00      1759.48
  107.66        2959.25           2275         394.00      1702.80
  107.69        2959.50           2278         395.00      1707.16
  107.72        2959.75           2282         385.00      1663.56
  107.75        2960.00           2285         394.00      1702.80
  107.78        2960.25           2289         401.00      1733.32
  107.81        2960.50           2293         423.00      1829.23
  107.84        2960.75           2296         441.00      1907.71
  107.87        2961.00           2300         505.00      2186.74
  107.90        2961.25           2303         851.00      3695.32
  107.93        2961.50           2307        3578.00     15590.65
  107.97        2961.75           2310        7169.00     31269.50
  108.01        2962.00           2314       12594.00     54987.63
  108.04        2962.25           2317       16797.00     73389.53
  108.07        2962.50           2321       23019.00    100673.60
  108.10        2962.75           2324       27916.00    122183.10
  108.13        2963.00           2328       34812.00    152526.50
  108.16        2963.25           2331       39814.00    174575.40
  108.19        2963.50           2335       46807.00    205456.40
  108.23        2963.75           2339       54740.00    240567.30
  108.26        2964.00           2342       60031.00    264031.80
  108.29        2964.25           2346       66711.00    293710.10
  108.32        2964.50           2349       71531.00    315162.10
  108.35        2964.75           2353       78591.00    346640.40
  108.38        2965.00           2356       83629.00    369144.70
  108.41        2965.25           2360       90105.00    398123.50
  108.44        2965.50           2363       94431.00    417513.50
  108.47        2965.75           2367      100844.00    446305.50
  108.50        2966.00           2370      105050.00    465219.70
  108.53        2966.25           2374      110801.00    491121.40
  108.56        2966.50           2378      114165.00    506293.80
  108.59        2966.75           2381      115029.00    510193.20
  108.62        2967.00           2385      115203.00    510978.60
  108.65        2967.25           2388      115222.00    511064.40
  108.68        2967.50           2392      114840.00    509340.10
  108.71        2967.75           2395      114208.00    506487.80
  108.75        2968.00           2399      111127.00    492591.10
  108.78        2968.25           2402      106699.00    472641.80
  108.81        2968.50           2406      101491.00    449213.40
  108.84        2968.75           2409       96973.00    428919.40
  108.87        2969.00           2413       90226.00    398665.50
  108.90        2969.25           2417       84147.00    371460.50
  108.93        2969.50           2420       79308.00    349841.00
  108.96        2969.75           2424       71828.00    316485.00
  108.99        2970.00           2427       67344.00    296525.60
  109.02        2970.25           2431       60584.00    266486.50
  109.05        2970.50           2434       54929.00    241404.90
  109.08        2970.75           2438       48816.00    214340.20
  109.11        2971.00           2441       44261.00    194205.80
  109.14        2971.25           2445       37682.00    165173.50
  109.17        2971.50           2449       30592.00    133950.40
  109.20        2971.75           2452       25043.00    109559.90
  109.23        2972.00           2456       18428.00     80536.71
  109.27        2972.25           2459       14358.00     62708.10
  109.30        2972.50           2463        8665.00     37806.20
  109.33        2972.75           2466        4701.00     20492.04
  109.36        2973.00           2470        1291.00      5613.97
  109.39        2973.25           2473         684.00      2967.17
  109.42        2973.50           2477         508.00      2199.82
  109.45        2973.75           2481         486.00      2103.90
  109.48        2974.00           2484         448.00      1938.23
  109.51        2974.25           2488         452.00      1955.67
  109.54        2974.50           2491         440.00      1903.35
  109.57        2974.75           2495         418.00      1807.43
  109.60        2975.00           2498         405.00      1750.76
  109.63        2975.25           2502         409.00      1768.20
  109.66        2975.50           2505         423.00      1829.23
  109.69        2975.75           2509         414.00      1790.00
  109.72        2976.00           2512         401.00      1733.32
  109.75        2976.25           2516         394.00      1702.80
  109.79        2976.50           2520         384.00      1659.20
  109.82        2976.75           2523         381.00      1646.13
  109.85        2977.00           2527         393.00      1698.44
  109.88        2977.25           2530         367.00      1585.09
  109.91        2977.50           2534         366.00      1580.73
  109.94        2977.75           2537         354.00      1528.41
  109.97        2978.00           2541         358.00      1545.85
  110.00        2978.25           2544         354.00      1528.41
  110.03        2978.50           2548         369.00      1593.81
  110.06        2978.75           2552         356.00      1537.13
  110.09        2979.00           2555         349.00      1506.62
  110.12        2979.25           2559         339.00      1463.02
  110.15        2979.50           2562         330.00      1423.78
  110.18        2979.75           2566         335.00      1445.58
  110.21        2980.00           2569         328.00      1415.06
  110.24        2980.25           2573         323.00      1393.27
  110.27        2980.50           2577         326.00      1406.34
  110.31        2980.75           2580         324.00      1397.63
  110.34        2981.00           2584         297.00      1279.92
  110.37        2981.25           2587         316.00      1362.75
  110.40        2981.50           2591         312.00      1345.31
  110.43        2981.75           2594         321.00      1384.55
  110.46        2982.00           2598         316.00      1362.75
  110.49        2982.25           2601         321.00      1384.55
  110.52        2982.50           2605         300.00      1293.00
  110.55        2982.75           2609         310.00      1336.59
  110.58        2983.00           2612         303.00      1306.07
  110.61        2983.25           2616         287.00      1236.32
  110.64        2983.50           2619         314.00      1354.03
  110.67        2983.75           2623         299.00      1288.64
  110.70        2984.00           2626         294.00      1266.84
HS scan finished at 01:50:56
end
