************************************************************
  HS Scan of (1) Internal mercury lamp
************************************************************
Integration time is 0.2294 seconds per sample
dh050618Reading 51.44 .94 3.49pr1000
************************************************************
Dead Time -------------------------  3.4E-08 
Number of Cycles Used -------------  4 
Starting Wavelength (Angstroms) ---  2950 
Final Wavelength (Angstoms) -------  2984 
Wavelength Increment (Angstroms) --  .25 
Filter Wheel #1 Position ---------- (1) Ground quartz diffuser (ND=2.32)
Filter Wheel #2 Position ---------- (1) Neutral Density 0.494



************************************************************
HS scan start time = 01:14:30
Dark Count =  2.1 


Time (GMT)  Wavelength (Ang)  Step Number  Raw Counts  Counts/Second

   75.40        2950.00           2144          60.00       252.40
   75.59        2950.25           2147          54.00       226.24
   75.62        2950.50           2151          57.00       239.32
   75.65        2950.75           2155          62.00       261.12
   75.68        2951.00           2158          63.00       265.48
   75.71        2951.25           2162          65.00       274.20
   75.74        2951.50           2165          59.00       248.04
   75.78        2951.75           2169          62.00       261.12
   75.81        2952.00           2172          60.00       252.40
   75.84        2952.25           2176          64.00       269.84
   75.87        2952.50           2179          60.00       252.40
   75.90        2952.75           2183          71.00       300.35
   75.93        2953.00           2186          61.00       256.76
   75.96        2953.25           2190          58.00       243.68
   75.99        2953.50           2193          70.00       295.99
   76.02        2953.75           2197          64.00       269.84
   76.05        2954.00           2200          72.00       304.71
   76.08        2954.25           2204          62.00       261.12
   76.11        2954.50           2208          67.00       282.91
   76.14        2954.75           2211          67.00       282.91
   76.17        2955.00           2215          67.00       282.91
   76.20        2955.25           2218          59.00       248.04
   76.23        2955.50           2222          68.00       287.27
   76.26        2955.75           2225          63.00       265.48
   76.29        2956.00           2229          68.00       287.27
   76.33        2956.25           2232          73.00       309.07
   76.36        2956.50           2236          61.00       256.76
   76.39        2956.75           2239          74.00       313.43
   76.42        2957.00           2243          69.00       291.63
   76.45        2957.25           2246          69.00       291.63
   76.48        2957.50           2250          75.00       317.79
   76.51        2957.75           2254          80.00       339.59
   76.54        2958.00           2257          64.00       269.84
   76.57        2958.25           2261          80.00       339.59
   76.60        2958.50           2264          76.00       322.15
   76.63        2958.75           2268          74.00       313.43
   76.66        2959.00           2271          81.00       343.94
   76.69        2959.25           2275          65.00       274.20
   76.72        2959.50           2278          81.00       343.94
   76.75        2959.75           2282          78.00       330.87
   76.78        2960.00           2285          85.00       361.38
   76.81        2960.25           2289          83.00       352.66
   76.85        2960.50           2293          82.00       348.30
   76.88        2960.75           2296         120.00       513.96
   76.91        2961.00           2300         111.00       474.72
   76.94        2961.25           2303         260.00      1124.28
   76.97        2961.50           2307         837.00      3639.95
   77.00        2961.75           2310        1577.00      6866.90
   77.03        2962.00           2314        2735.00     11918.08
   77.06        2962.25           2317        3556.00     15500.32
   77.09        2962.50           2321        4786.00     20868.77
   77.12        2962.75           2324        5655.00     24662.78
   77.15        2963.00           2328        6888.00     30047.68
   77.18        2963.25           2331        7850.00     34250.41
   77.21        2963.50           2335        9207.00     40180.84
   77.24        2963.75           2339       10588.00     46218.61
   77.27        2964.00           2342       11399.00     49765.48
   77.30        2964.25           2346       12613.00     55076.45
   77.33        2964.50           2349       13569.00     59260.09
   77.37        2964.75           2353       14728.00     64333.69
   77.40        2965.00           2356       15846.00     69229.46
   77.43        2965.25           2360       17056.00     74529.96
   77.46        2965.50           2363       17963.00     78504.38
   77.49        2965.75           2367       19124.00     83593.40
   77.52        2966.00           2370       19806.00     86583.64
   77.55        2966.25           2374       20912.00     91434.21
   77.58        2966.50           2378       21292.00     93101.13
   77.61        2966.75           2381       21294.00     93109.91
   77.64        2967.00           2385       21253.00     92930.05
   77.67        2967.25           2388       21470.00     93882.02
   77.70        2967.50           2392       21262.00     92969.52
   77.73        2967.75           2395       21082.00     92179.91
   77.76        2968.00           2399       20141.00     88052.66
   77.79        2968.25           2402       19069.00     83352.28
   77.82        2968.50           2406       17738.00     77518.35
   77.85        2968.75           2409       16641.00     72711.80
   77.89        2969.00           2413       15283.00     66763.85
   77.92        2969.25           2417       14160.00     61847.01
   77.95        2969.50           2420       13513.00     59014.99
   77.98        2969.75           2424       12436.00     54302.00
   78.01        2970.00           2427       11599.00     50640.30
   78.04        2970.25           2431       10416.00     45466.49
   78.07        2970.50           2434        9408.00     41059.47
   78.10        2970.75           2438        8033.00     35050.03
   78.13        2971.00           2441        7237.00     31572.24
   78.16        2971.25           2445        6190.00     26999.06
   78.19        2971.50           2449        5020.00     21890.31
   78.22        2971.75           2452        4077.00     17774.03
   78.25        2972.00           2456        2973.00     12956.45
   78.28        2972.25           2459        2178.00      9488.24
   78.31        2972.50           2463        1160.00      5048.38
   78.34        2972.75           2466         594.00      2580.44
   78.37        2973.00           2470         173.00       745.01
   78.41        2973.25           2473          96.00       409.33
   78.44        2973.50           2477          86.00       365.74
   78.47        2973.75           2481          81.00       343.94
   78.50        2974.00           2484          94.00       400.62
   78.53        2974.25           2488          79.00       335.23
   78.56        2974.50           2491          85.00       361.38
   78.59        2974.75           2495          71.00       300.35
   78.62        2975.00           2498          77.00       326.51
   78.65        2975.25           2502          81.00       343.94
   78.68        2975.50           2505          76.00       322.15
   78.71        2975.75           2509          75.00       317.79
   78.74        2976.00           2512          80.00       339.59
   78.77        2976.25           2516          82.00       348.30
   78.80        2976.50           2520          68.00       287.27
   78.83        2976.75           2523          79.00       335.23
   78.86        2977.00           2527          57.00       239.32
   78.89        2977.25           2530          68.00       287.27
   78.93        2977.50           2534          68.00       287.27
   78.96        2977.75           2537          64.00       269.84
   78.99        2978.00           2541          65.00       274.20
   79.02        2978.25           2544          65.00       274.20
   79.05        2978.50           2548          65.00       274.20
   79.08        2978.75           2552          65.00       274.20
   79.11        2979.00           2555          65.00       274.20
   79.14        2979.25           2559          67.00       282.91
   79.17        2979.50           2562          64.00       269.84
   79.20        2979.75           2566          61.00       256.76
   79.23        2980.00           2569          62.00       261.12
   79.26        2980.25           2573          62.00       261.12
   79.29        2980.50           2577          69.00       291.63
   79.32        2980.75           2580          58.00       243.68
   79.35        2981.00           2584          55.00       230.60
   79.38        2981.25           2587          54.00       226.24
   79.41        2981.50           2591          69.00       291.63
   79.45        2981.75           2594          56.00       234.96
   79.48        2982.00           2598          58.00       243.68
   79.51        2982.25           2601          58.00       243.68
   79.54        2982.50           2605          55.00       230.60
   79.57        2982.75           2609          65.00       274.20
   79.60        2983.00           2612          57.00       239.32
   79.63        2983.25           2616          55.00       230.60
   79.66        2983.50           2619          59.00       248.04
   79.69        2983.75           2623          55.00       230.60
   79.72        2984.00           2626          60.00       252.40
HS scan finished at 01:19:56
end
************************************************************
  HS Scan of (1) Internal mercury lamp
************************************************************
Integration time is 0.2294 seconds per sample
dh050618Reading 51.44 .94 3.5pr1000
************************************************************
Dead Time -------------------------  3.4E-08 
Number of Cycles Used -------------  4 
Starting Wavelength (Angstroms) ---  2950 
Final Wavelength (Angstoms) -------  2984 
Wavelength Increment (Angstroms) --  .25 
Filter Wheel #1 Position ---------- (1) Ground quartz diffuser (ND=2.32)
Filter Wheel #2 Position ---------- (1) Neutral Density 0.494



************************************************************
HS scan start time = 21:07:25
Dark Count =  2.3 


Time (GMT)  Wavelength (Ang)  Step Number  Raw Counts  Counts/Second

 1268.32        2950.00           2144          43.00       177.42
 1268.51        2950.25           2147          44.00       181.78
 1268.54        2950.50           2151          45.00       186.14
 1268.57        2950.75           2155          39.00       159.98
 1268.60        2951.00           2158          51.00       212.29
 1268.63        2951.25           2162          45.00       186.14
 1268.66        2951.50           2165          52.00       216.65
 1268.69        2951.75           2169          49.00       203.58
 1268.72        2952.00           2172          45.00       186.14
 1268.75        2952.25           2176          50.00       207.94
 1268.79        2952.50           2179          49.00       203.58
 1268.82        2952.75           2183          39.00       159.98
 1268.85        2953.00           2186          44.00       181.78
 1268.88        2953.25           2190          45.00       186.14
 1268.91        2953.50           2193          48.00       199.22
 1268.94        2953.75           2197          53.00       221.01
 1268.97        2954.00           2200          43.00       177.42
 1269.00        2954.25           2204          45.00       186.14
 1269.03        2954.50           2208          49.00       203.58
 1269.06        2954.75           2211          42.00       173.06
 1269.09        2955.00           2215          49.00       203.58
 1269.12        2955.25           2218          50.00       207.94
 1269.15        2955.50           2222          51.00       212.29
 1269.18        2955.75           2225          45.00       186.14
 1269.21        2956.00           2229          55.00       229.73
 1269.24        2956.25           2232          56.00       234.09
 1269.27        2956.50           2236          45.00       186.14
 1269.31        2956.75           2239          51.00       212.29
 1269.34        2957.00           2243          51.00       212.29
 1269.37        2957.25           2246          52.00       216.65
 1269.40        2957.50           2250          47.00       194.86
 1269.43        2957.75           2254          51.00       212.29
 1269.46        2958.00           2257          53.00       221.01
 1269.49        2958.25           2261          50.00       207.94
 1269.52        2958.50           2264          51.00       212.29
 1269.55        2958.75           2268          57.00       238.45
 1269.58        2959.00           2271          57.00       238.45
 1269.61        2959.25           2275          61.00       255.89
 1269.64        2959.50           2278          63.00       264.61
 1269.67        2959.75           2282          52.00       216.65
 1269.70        2960.00           2285          61.00       255.89
 1269.73        2960.25           2289          57.00       238.45
 1269.76        2960.50           2293          64.00       268.96
 1269.79        2960.75           2296          66.00       277.68
 1269.82        2961.00           2300          78.00       329.99
 1269.86        2961.25           2303         112.00       478.21
 1269.89        2961.50           2307         485.00      2104.34
 1269.92        2961.75           2310        1050.00      4567.84
 1269.95        2962.00           2314        1801.00      7842.98
 1269.98        2962.25           2317        2431.00     10591.00
 1270.01        2962.50           2321        3142.00     13692.95
 1270.04        2962.75           2324        3852.00     16791.19
 1270.07        2963.00           2328        4619.00     20138.90
 1270.10        2963.25           2331        5261.00     22941.60
 1270.13        2963.50           2335        6054.00     26404.25
 1270.16        2963.75           2339        6969.00     30400.63
 1270.19        2964.00           2342        7704.00     33611.63
 1270.22        2964.25           2346        8522.00     37186.05
 1270.25        2964.50           2349        9204.00     40166.85
 1270.28        2964.75           2353       10014.00     43707.89
 1270.31        2965.00           2356       10658.00     46523.85
 1270.35        2965.25           2360       11454.00     50005.18
 1270.38        2965.50           2363       12090.00     52787.34
 1270.41        2965.75           2367       13005.00     56790.90
 1270.44        2966.00           2370       13931.00     60843.70
 1270.47        2966.25           2374       14709.00     64249.62
 1270.50        2966.50           2378       14827.00     64766.27
 1270.53        2966.75           2381       15114.00     66022.93
 1270.56        2967.00           2385       15182.00     66320.71
 1270.59        2967.25           2388       15127.00     66079.86
 1270.62        2967.50           2392       15062.00     65795.25
 1270.65        2967.75           2395       15067.00     65817.13
 1270.68        2968.00           2399       14624.00     63877.47
 1270.71        2968.25           2402       14398.00     62888.03
 1270.74        2968.50           2406       13440.00     58694.61
 1270.77        2968.75           2409       12860.00     56156.39
 1270.80        2969.00           2413       12134.00     52979.83
 1270.83        2969.25           2417       11189.00     48846.10
 1270.87        2969.50           2420       10364.00     45238.23
 1270.90        2969.75           2424        9400.00     41023.62
 1270.93        2970.00           2427        8724.00     38068.86
 1270.96        2970.25           2431        7846.00     34232.06
 1270.99        2970.50           2434        7029.00     30662.73
 1271.02        2970.75           2438        6202.00     27050.59
 1271.05        2971.00           2441        5447.00     23753.70
 1271.08        2971.25           2445        4534.00     19767.86
 1271.11        2971.50           2449        3656.00     15935.83
 1271.14        2971.75           2452        3005.00     13095.19
 1271.17        2972.00           2456        2199.00      9578.97
 1271.20        2972.25           2459        1663.00      7241.10
 1271.23        2972.50           2463         891.00      3874.53
 1271.26        2972.75           2466         408.00      1768.63
 1271.29        2973.00           2470         128.00       547.96
 1271.32        2973.25           2473          74.00       312.56
 1271.35        2973.50           2477          71.00       299.48
 1271.38        2973.75           2481          59.00       247.17
 1271.42        2974.00           2484          63.00       264.61
 1271.45        2974.25           2488          66.00       277.68
 1271.48        2974.50           2491          59.00       247.17
 1271.51        2974.75           2495          60.00       251.53
 1271.54        2975.00           2498          59.00       247.17
 1271.57        2975.25           2502          60.00       251.53
 1271.60        2975.50           2505          58.00       242.81
 1271.63        2975.75           2509          55.00       229.73
 1271.66        2976.00           2512          55.00       229.73
 1271.69        2976.25           2516          56.00       234.09
 1271.72        2976.50           2520          56.00       234.09
 1271.75        2976.75           2523          64.00       268.96
 1271.78        2977.00           2527          56.00       234.09
 1271.81        2977.25           2530          60.00       251.53
 1271.84        2977.50           2534          54.00       225.37
 1271.87        2977.75           2537          57.00       238.45
 1271.90        2978.00           2541          47.00       194.86
 1271.94        2978.25           2544          51.00       212.29
 1271.97        2978.50           2548          54.00       225.37
 1272.00        2978.75           2552          53.00       221.01
 1272.03        2979.00           2555          46.00       190.50
 1272.06        2979.25           2559          49.00       203.58
 1272.09        2979.50           2562          50.00       207.94
 1272.12        2979.75           2566          54.00       225.37
 1272.15        2980.00           2569          53.00       221.01
 1272.18        2980.25           2573          46.00       190.50
 1272.21        2980.50           2577          54.00       225.37
 1272.24        2980.75           2580          48.00       199.22
 1272.27        2981.00           2584          48.00       199.22
 1272.30        2981.25           2587          48.00       199.22
 1272.33        2981.50           2591          49.00       203.58
 1272.36        2981.75           2594          39.00       159.98
 1272.39        2982.00           2598          48.00       199.22
 1272.42        2982.25           2601          48.00       199.22
 1272.46        2982.50           2605          49.00       203.58
 1272.49        2982.75           2609          47.00       194.86
 1272.52        2983.00           2612          55.00       229.73
 1272.55        2983.25           2616          48.00       199.22
 1272.58        2983.50           2619          45.00       186.14
 1272.61        2983.75           2623          45.00       186.14
 1272.64        2984.00           2626          51.00       212.29
HS scan finished at 21:12:52
end
