************************************************************
  HS Scan of (1) Internal mercury lamp
************************************************************
Integration time is 0.2294 seconds per sample
dh070619Reading 51.44 .94 3.37pr1000
************************************************************
Dead Time -------------------------  3.4E-08 
Number of Cycles Used -------------  4 
Starting Wavelength (Angstroms) ---  2950 
Final Wavelength (Angstoms) -------  2984 
Wavelength Increment (Angstroms) --  .25 
Filter Wheel #1 Position ---------- (1) Ground quartz diffuser (ND=2.32)
Filter Wheel #2 Position ---------- (1) Neutral Density 0.494



************************************************************
HS scan start time = 01:28:47
Dark Count =  1.7 


Time (GMT)  Wavelength (Ang)  Step Number  Raw Counts  Counts/Second

   89.69        2950.00           2144        1241.00      5403.35
   89.88        2950.25           2147        1238.00      5390.26
   89.91        2950.50           2151        1204.00      5242.00
   89.94        2950.75           2155        1218.00      5303.05
   89.97        2951.00           2158        1284.00      5590.86
   90.00        2951.25           2162        1252.00      5451.32
   90.03        2951.50           2165        1256.00      5468.76
   90.06        2951.75           2169        1246.00      5425.15
   90.10        2952.00           2172        1257.00      5473.12
   90.13        2952.25           2176        1318.00      5739.13
   90.16        2952.50           2179        1276.00      5555.98
   90.19        2952.75           2183        1298.00      5651.91
   90.22        2953.00           2186        1310.00      5704.25
   90.25        2953.25           2190        1297.00      5647.55
   90.28        2953.50           2193        1318.00      5739.13
   90.31        2953.75           2197        1295.00      5638.83
   90.34        2954.00           2200        1337.00      5821.99
   90.38        2954.25           2204        1324.00      5765.30
   90.41        2954.50           2208        1401.00      6101.09
   90.44        2954.75           2211        1382.00      6018.23
   90.48        2955.00           2215        1413.00      6153.42
   90.51        2955.25           2218        1371.00      5970.26
   90.54        2955.50           2222        1434.00      6245.01
   90.57        2955.75           2225        1448.00      6306.06
   90.60        2956.00           2229        1459.00      6354.03
   90.63        2956.25           2232        1464.00      6375.84
   90.66        2956.50           2236        1476.00      6428.17
   90.69        2956.75           2239        1495.00      6511.03
   90.72        2957.00           2243        1502.00      6541.56
   90.75        2957.25           2246        1542.00      6716.01
   90.78        2957.50           2250        1587.00      6912.26
   90.81        2957.75           2254        1615.00      7034.38
   90.84        2958.00           2257        1615.00      7034.38
   90.87        2958.25           2261        1653.00      7200.11
   90.90        2958.50           2264        1642.00      7152.13
   90.93        2958.75           2268        1629.00      7095.43
   90.96        2959.00           2271        1647.00      7173.94
   90.99        2959.25           2275        1727.00      7522.85
   91.03        2959.50           2278        1710.00      7448.70
   91.06        2959.75           2282        1712.00      7457.43
   91.09        2960.00           2285        1769.00      7706.03
   91.12        2960.25           2289        1835.00      7993.89
   91.15        2960.50           2293        1853.00      8072.40
   91.18        2960.75           2296        1920.00      8364.63
   91.21        2961.00           2300        2210.00      9629.57
   91.24        2961.25           2303        3390.00     14777.69
   91.27        2961.50           2307       11392.00     49736.62
   91.30        2961.75           2310       22208.00     97121.84
   91.33        2962.00           2314       40937.00    179537.70
   91.36        2962.25           2317       59861.00    263284.90
   91.39        2962.50           2321       84372.00    372474.20
   91.42        2962.75           2324      102832.00    455250.00
   91.45        2963.00           2328      126930.00    564018.50
   91.48        2963.25           2331      144784.00    645131.20
   91.51        2963.50           2335      169260.00    757069.00
   91.55        2963.75           2339      194768.00    874652.50
   91.58        2964.00           2342      213972.00    963810.70
   91.61        2964.25           2346      239132.00   1081459.00
   91.64        2964.50           2349      258754.00   1173882.00
   91.67        2964.75           2353      284247.00   1294851.00
   91.70        2965.00           2356      304136.00   1389940.00
   91.73        2965.25           2360      327027.00   1500166.00
   91.76        2965.50           2363      342827.00   1576746.00
   91.79        2965.75           2367      364789.00   1683877.00
   91.82        2966.00           2370      381495.00   1765912.00
   91.85        2966.25           2374      402927.00   1871849.00
   91.88        2966.50           2378      411708.00   1915482.00
   91.91        2966.75           2381      416056.00   1937137.00
   91.94        2967.00           2385      417111.00   1942397.00
   91.97        2967.25           2388      417801.00   1945837.00
   92.00        2967.50           2392      417167.00   1942676.00
   92.03        2967.75           2395      413217.00   1922994.00
   92.07        2968.00           2399      402113.00   1867812.00
   92.10        2968.25           2402      389699.00   1806371.00
   92.13        2968.50           2406      368151.00   1700349.00
   92.16        2968.75           2409      352084.00   1621804.00
   92.19        2969.00           2413      329059.00   1509992.00
   92.22        2969.25           2417      306273.00   1400194.00
   92.25        2969.50           2420      288350.00   1314416.00
   92.28        2969.75           2424      264995.00   1203403.00
   92.31        2970.00           2427      245320.00   1110542.00
   92.34        2970.25           2431      218126.00    983168.90
   92.37        2970.50           2434      199568.00    896885.90
   92.40        2970.75           2438      173672.00    777338.80
   92.43        2971.00           2441      155761.00    695226.50
   92.46        2971.25           2445      130977.00    582364.90
   92.49        2971.50           2449      104969.00    464862.80
   92.52        2971.75           2452       86291.00    381057.20
   92.55        2972.00           2456       62193.00    273638.20
   92.59        2972.25           2459       44878.00    196939.00
   92.62        2972.50           2463       23800.00    104109.40
   92.65        2972.75           2466       10878.00     47488.56
   92.68        2973.00           2470        3524.00     15362.43
   92.71        2973.25           2473        2289.00      9974.18
   92.74        2973.50           2477        1988.00      8661.23
   92.77        2973.75           2481        1915.00      8342.82
   92.80        2974.00           2484        1829.00      7967.72
   92.83        2974.25           2488        1832.00      7980.81
   92.86        2974.50           2491        1767.00      7697.31
   92.89        2974.75           2495        1768.00      7701.67
   92.92        2975.00           2498        1734.00      7553.38
   92.95        2975.25           2502        1730.00      7535.93
   92.98        2975.50           2505        1676.00      7300.42
   93.01        2975.75           2509        1674.00      7291.70
   93.04        2976.00           2512        1669.00      7269.89
   93.07        2976.25           2516        1641.00      7147.77
   93.11        2976.50           2520        1609.00      7008.21
   93.14        2976.75           2523        1618.00      7047.46
   93.17        2977.00           2527        1589.00      6920.98
   93.20        2977.25           2530        1538.00      6698.56
   93.23        2977.50           2534        1553.00      6763.98
   93.26        2977.75           2537        1545.00      6729.09
   93.29        2978.00           2541        1530.00      6663.67
   93.32        2978.25           2544        1490.00      6489.23
   93.35        2978.50           2548        1483.00      6458.70
   93.38        2978.75           2552        1488.00      6480.50
   93.41        2979.00           2555        1478.00      6436.89
   93.44        2979.25           2559        1432.00      6236.28
   93.47        2979.50           2562        1465.00      6380.20
   93.50        2979.75           2566        1451.00      6319.14
   93.53        2980.00           2569        1416.00      6166.51
   93.56        2980.25           2573        1416.00      6166.51
   93.59        2980.50           2577        1425.00      6205.76
   93.63        2980.75           2580        1364.00      5939.74
   93.66        2981.00           2584        1378.00      6000.79
   93.69        2981.25           2587        1373.00      5978.98
   93.72        2981.50           2591        1380.00      6009.51
   93.75        2981.75           2594        1348.00      5869.96
   93.78        2982.00           2598        1361.00      5926.65
   93.81        2982.25           2601        1341.00      5839.43
   93.84        2982.50           2605        1331.00      5795.82
   93.87        2982.75           2609        1385.00      6031.32
   93.90        2983.00           2612        1337.00      5821.99
   93.93        2983.25           2616        1354.00      5896.13
   93.96        2983.50           2619        1348.00      5869.96
   93.99        2983.75           2623        1330.00      5791.46
   94.02        2984.00           2626        1297.00      5647.55
HS scan finished at 01:34:15
end
************************************************************
  HS Scan of (1) Internal mercury lamp
************************************************************
Integration time is 0.2294 seconds per sample
dh070619Reading 51.44 .94 3.37pr1000
************************************************************
Dead Time -------------------------  3.4E-08 
Number of Cycles Used -------------  4 
Starting Wavelength (Angstroms) ---  2950 
Final Wavelength (Angstoms) -------  2984 
Wavelength Increment (Angstroms) --  .25 
Filter Wheel #1 Position ---------- (1) Ground quartz diffuser (ND=2.32)
Filter Wheel #2 Position ---------- (1) Neutral Density 0.494



************************************************************
HS scan start time = 21:09:57
Dark Count =  1.5 


Time (GMT)  Wavelength (Ang)  Step Number  Raw Counts  Counts/Second

 1270.86        2950.00           2144        1231.00      5360.61
 1271.05        2950.25           2147        1221.00      5317.00
 1271.08        2950.50           2151        1247.00      5430.38
 1271.11        2950.75           2155        1213.00      5282.12
 1271.14        2951.00           2158        1231.00      5360.61
 1271.17        2951.25           2162        1245.00      5421.66
 1271.20        2951.50           2165        1229.00      5351.89
 1271.23        2951.75           2169        1227.00      5343.17
 1271.26        2952.00           2172        1238.00      5391.14
 1271.30        2952.25           2176        1267.00      5517.60
 1271.33        2952.50           2179        1189.00      5177.46
 1271.36        2952.75           2183        1238.00      5391.14
 1271.39        2953.00           2186        1258.00      5478.35
 1271.42        2953.25           2190        1257.00      5473.99
 1271.45        2953.50           2193        1271.00      5535.04
 1271.48        2953.75           2197        1250.00      5443.47
 1271.51        2954.00           2200        1278.00      5565.57
 1271.54        2954.25           2204        1278.00      5565.57
 1271.57        2954.50           2208        1336.00      5818.50
 1271.60        2954.75           2211        1299.00      5657.15
 1271.63        2955.00           2215        1307.00      5692.03
 1271.66        2955.25           2218        1294.00      5635.34
 1271.69        2955.50           2222        1313.00      5718.20
 1271.72        2955.75           2225        1361.00      5927.52
 1271.75        2956.00           2229        1310.00      5705.12
 1271.78        2956.25           2232        1331.00      5796.70
 1271.82        2956.50           2236        1360.00      5923.16
 1271.85        2956.75           2239        1349.00      5875.19
 1271.88        2957.00           2243        1382.00      6019.11
 1271.91        2957.25           2246        1368.00      5958.05
 1271.94        2957.50           2250        1369.00      5962.41
 1271.97        2957.75           2254        1401.00      6101.96
 1272.00        2958.00           2257        1405.00      6119.41
 1272.03        2958.25           2261        1428.00      6219.71
 1272.06        2958.50           2264        1458.00      6350.54
 1272.09        2958.75           2268        1445.00      6293.85
 1272.12        2959.00           2271        1484.00      6463.93
 1272.15        2959.25           2275        1466.00      6385.43
 1272.18        2959.50           2278        1512.00      6586.04
 1272.21        2959.75           2282        1523.00      6634.02
 1272.24        2960.00           2285        1548.00      6743.05
 1272.27        2960.25           2289        1559.00      6791.02
 1272.30        2960.50           2293        1591.00      6930.58
 1272.34        2960.75           2296        1632.00      7109.39
 1272.37        2961.00           2300        1804.00      7859.55
 1272.40        2961.25           2303        2527.00     11013.28
 1272.43        2961.50           2307        7685.00     33532.11
 1272.46        2961.75           2310       16991.00     74247.79
 1272.49        2962.00           2314       34700.00    152041.60
 1272.52        2962.25           2317       49667.00    218113.30
 1272.55        2962.50           2321       69040.00    304080.10
 1272.58        2962.75           2324       83172.00    367110.40
 1272.61        2963.00           2328      103451.00    458034.70
 1272.64        2963.25           2331      120701.00    535826.40
 1272.67        2963.50           2335      143919.00    641192.00
 1272.70        2963.75           2339      164837.00    736778.00
 1272.73        2964.00           2342      178452.00    799332.30
 1272.76        2964.25           2346      198529.00    892071.40
 1272.79        2964.50           2349      214763.00    967495.80
 1272.82        2964.75           2353      237517.00   1073879.00
 1272.86        2965.00           2356      252543.00   1144564.00
 1272.89        2965.25           2360      272563.00   1239283.00
 1272.92        2965.50           2363      285979.00   1303107.00
 1272.95        2965.75           2367      303298.00   1385921.00
 1272.98        2966.00           2370      318195.00   1457538.00
 1273.01        2966.25           2374      338127.00   1553924.00
 1273.04        2966.50           2378      351919.00   1621001.00
 1273.07        2966.75           2381      356272.00   1642237.00
 1273.10        2967.00           2385      358386.00   1652561.00
 1273.13        2967.25           2388      359259.00   1656827.00
 1273.16        2967.50           2392      358728.00   1654232.00
 1273.19        2967.75           2395      358209.00   1651696.00
 1273.22        2968.00           2399      353735.00   1629856.00
 1273.25        2968.25           2402      345833.00   1591363.00
 1273.28        2968.50           2406      328523.00   1507401.00
 1273.31        2968.75           2409      313963.00   1437157.00
 1273.34        2969.00           2413      292917.00   1336225.00
 1273.38        2969.25           2417      272453.00   1238761.00
 1273.41        2969.50           2420      256936.00   1165295.00
 1273.44        2969.75           2424      234749.00   1060896.00
 1273.47        2970.00           2427      216844.00    977192.70
 1273.50        2970.25           2431      194663.00    874167.40
 1273.53        2970.50           2434      178963.00    801685.30
 1273.56        2970.75           2438      156801.00    699982.60
 1273.59        2971.00           2441      140373.00    625050.50
 1273.62        2971.25           2445      119279.00    529397.90
 1273.65        2971.50           2449       99223.00    439030.90
 1273.68        2971.75           2452       83464.00    368415.60
 1273.71        2972.00           2456       61919.00    272422.30
 1273.74        2972.25           2459       45976.00    201791.70
 1273.77        2972.50           2463       25816.00    112963.60
 1273.80        2972.75           2466       13446.00     58724.38
 1273.83        2973.00           2470        4634.00     20207.87
 1273.86        2973.25           2473        2483.00     10821.33
 1273.91        2973.50           2477        1810.00      7885.72
 1273.94        2973.75           2481        1718.00      7484.47
 1273.97        2974.00           2484        1645.00      7166.09
 1274.00        2974.25           2488        1632.00      7109.39
 1274.03        2974.50           2491        1609.00      7009.08
 1274.06        2974.75           2495        1607.00      7000.36
 1274.09        2975.00           2498        1500.00      6533.71
 1274.12        2975.25           2502        1492.00      6498.82
 1274.15        2975.50           2505        1479.00      6442.13
 1274.19        2975.75           2509        1465.00      6381.07
 1274.22        2976.00           2512        1401.00      6101.96
 1274.25        2976.25           2516        1411.00      6145.57
 1274.28        2976.50           2520        1411.00      6145.57
 1274.31        2976.75           2523        1390.00      6053.99
 1274.34        2977.00           2527        1375.00      5988.58
 1274.37        2977.25           2530        1372.00      5975.49
 1274.40        2977.50           2534        1338.00      5827.22
 1274.43        2977.75           2537        1369.00      5962.41
 1274.46        2978.00           2541        1341.00      5840.31
 1274.49        2978.25           2544        1336.00      5818.50
 1274.52        2978.50           2548        1339.00      5831.58
 1274.55        2978.75           2552        1306.00      5687.67
 1274.58        2979.00           2555        1258.00      5478.35
 1274.61        2979.25           2559        1304.00      5678.95
 1274.64        2979.50           2562        1287.00      5604.82
 1274.68        2979.75           2566        1253.00      5456.55
 1274.71        2980.00           2569        1274.00      5548.13
 1274.74        2980.25           2573        1229.00      5351.89
 1274.77        2980.50           2577        1207.00      5255.95
 1274.80        2980.75           2580        1241.00      5404.22
 1274.83        2981.00           2584        1262.00      5495.80
 1274.86        2981.25           2587        1229.00      5351.89
 1274.89        2981.50           2591        1224.00      5330.09
 1274.92        2981.75           2594        1207.00      5255.95
 1274.95        2982.00           2598        1200.00      5225.43
 1274.98        2982.25           2601        1243.00      5412.94
 1275.01        2982.50           2605        1215.00      5290.84
 1275.04        2982.75           2609        1197.00      5212.35
 1275.07        2983.00           2612        1204.00      5242.87
 1275.10        2983.25           2616        1195.00      5203.62
 1275.13        2983.50           2619        1163.00      5064.08
 1275.16        2983.75           2623        1155.00      5029.20
 1275.20        2984.00           2626        1168.00      5085.88
HS scan finished at 21:15:25
end
