************************************************************
  HS Scan of (1) Internal mercury lamp
************************************************************
Integration time is 0.2294 seconds per sample
dh080619Reading 51.44 .94 3.23pr1000
************************************************************
Dead Time -------------------------  3.4E-08 
Number of Cycles Used -------------  4 
Starting Wavelength (Angstroms) ---  2950 
Final Wavelength (Angstoms) -------  2984 
Wavelength Increment (Angstroms) --  .25 
Filter Wheel #1 Position ---------- (1) Ground quartz diffuser (ND=2.32)
Filter Wheel #2 Position ---------- (1) Neutral Density 0.494



************************************************************
HS scan start time = 01:06:50
Dark Count =  1.2 


Time (GMT)  Wavelength (Ang)  Step Number  Raw Counts  Counts/Second

   67.74        2950.00           2144        1438.00      6264.63
   67.93        2950.25           2147        1428.00      6221.02
   67.96        2950.50           2151        1444.00      6290.80
   67.99        2950.75           2155        1436.00      6255.91
   68.02        2951.00           2158        1431.00      6234.10
   68.05        2951.25           2162        1452.00      6325.68
   68.08        2951.50           2165        1456.00      6343.13
   68.11        2951.75           2169        1412.00      6151.24
   68.15        2952.00           2172        1452.00      6325.68
   68.18        2952.25           2176        1420.00      6186.13
   68.21        2952.50           2179        1452.00      6325.68
   68.24        2952.75           2183        1478.00      6439.07
   68.27        2953.00           2186        1439.00      6268.99
   68.30        2953.25           2190        1473.00      6417.27
   68.33        2953.50           2193        1485.00      6469.60
   68.36        2953.75           2197        1467.00      6391.10
   68.39        2954.00           2200        1521.00      6626.60
   68.42        2954.25           2204        1482.00      6456.52
   68.45        2954.50           2208        1534.00      6683.30
   68.48        2954.75           2211        1513.00      6591.71
   68.51        2955.00           2215        1558.00      6787.97
   68.54        2955.25           2218        1515.00      6600.44
   68.57        2955.50           2222        1552.00      6761.80
   68.60        2955.75           2225        1531.00      6670.21
   68.63        2956.00           2229        1600.00      6971.14
   68.66        2956.25           2232        1573.00      6853.38
   68.70        2956.50           2236        1575.00      6862.11
   68.73        2956.75           2239        1599.00      6966.78
   68.76        2957.00           2243        1578.00      6875.19
   68.79        2957.25           2246        1615.00      7036.56
   68.82        2957.50           2250        1679.00      7315.68
   68.85        2957.75           2254        1631.00      7106.34
   68.88        2958.00           2257        1672.00      7285.15
   68.91        2958.25           2261        1704.00      7424.72
   68.94        2958.50           2264        1701.00      7411.63
   68.97        2958.75           2268        1736.00      7564.28
   69.00        2959.00           2271        1759.00      7664.60
   69.03        2959.25           2275        1837.00      8004.79
   69.06        2959.50           2278        1777.00      7743.10
   69.09        2959.75           2282        1836.00      8000.43
   69.12        2960.00           2285        1844.00      8035.33
   69.15        2960.25           2289        1894.00      8253.41
   69.19        2960.50           2293        1908.00      8314.47
   69.22        2960.75           2296        1946.00      8480.21
   69.25        2961.00           2300        2197.00      9575.04
   69.28        2961.25           2303        3455.00     15063.51
   69.31        2961.50           2307       12511.00     54634.09
   69.34        2961.75           2310       25313.00    110755.40
   69.37        2962.00           2314       46263.00    203061.50
   69.40        2962.25           2317       63430.00    279135.30
   69.43        2962.50           2321       86034.00    379909.70
   69.46        2962.75           2324      103789.00    459556.30
   69.49        2963.00           2328      126757.00    563237.00
   69.52        2963.25           2331      144164.00    642309.30
   69.55        2963.50           2335      170024.00    760579.30
   69.58        2963.75           2339      196552.00    882914.20
   69.61        2964.00           2342      216997.00    977907.30
   69.64        2964.25           2346      242934.00   1099323.00
   69.67        2964.50           2349      260583.00   1182529.00
   69.71        2964.75           2353      281297.00   1280803.00
   69.74        2965.00           2356      298522.00   1363038.00
   69.77        2965.25           2360      321988.00   1475832.00
   69.80        2965.50           2363      341761.00   1571569.00
   69.83        2965.75           2367      364440.00   1682171.00
   69.86        2966.00           2370      380020.00   1758652.00
   69.89        2966.25           2374      400884.00   1861719.00
   69.92        2966.50           2378      412954.00   1921687.00
   69.95        2966.75           2381      416568.00   1939692.00
   69.98        2967.00           2385      416536.00   1939533.00
   70.01        2967.25           2388      416969.00   1941691.00
   70.04        2967.50           2392      416922.00   1941457.00
   70.07        2967.75           2395      416299.00   1938351.00
   70.10        2968.00           2399      405580.00   1885021.00
   70.13        2968.25           2402      391567.00   1815602.00
   70.16        2968.50           2406      371478.00   1716670.00
   70.19        2968.75           2409      355273.00   1637362.00
   70.22        2969.00           2413      332024.00   1524344.00
   70.26        2969.25           2417      307057.00   1403960.00
   70.29        2969.50           2420      287713.00   1311379.00
   70.32        2969.75           2424      263210.00   1194956.00
   70.35        2970.00           2427      244506.00   1106715.00
   70.38        2970.25           2431      221114.00    997111.70
   70.41        2970.50           2434      202793.00    911845.60
   70.44        2970.75           2438      175642.00    786400.90
   70.47        2971.00           2441      155162.00    692490.70
   70.50        2971.25           2445      131103.00    582938.80
   70.53        2971.50           2449      105855.00    468852.40
   70.56        2971.75           2452       88190.00    389558.10
   70.59        2972.00           2456       65613.00    288837.50
   70.62        2972.25           2459       47102.00    206770.30
   70.65        2972.50           2463       22651.00     99068.09
   70.68        2972.75           2466       10084.00     44018.75
   70.71        2973.00           2470        3552.00     15486.79
   70.74        2973.25           2473        2322.00     10120.31
   70.78        2973.50           2477        2007.00      8746.28
   70.81        2973.75           2481        2007.00      8746.28
   70.84        2974.00           2484        1952.00      8506.38
   70.87        2974.25           2488        1889.00      8231.60
   70.90        2974.50           2491        1836.00      8000.43
   70.93        2974.75           2495        1823.00      7943.73
   70.96        2975.00           2498        1812.00      7895.76
   70.99        2975.25           2502        1743.00      7594.81
   71.02        2975.50           2505        1753.00      7638.43
   71.05        2975.75           2509        1745.00      7603.54
   71.08        2976.00           2512        1705.00      7429.08
   71.11        2976.25           2516        1693.00      7376.74
   71.14        2976.50           2520        1673.00      7289.51
   71.17        2976.75           2523        1608.00      7006.03
   71.20        2977.00           2527        1606.00      6997.31
   71.23        2977.25           2530        1618.00      7049.64
   71.26        2977.50           2534        1560.00      6796.69
   71.30        2977.75           2537        1578.00      6875.19
   71.33        2978.00           2541        1555.00      6774.88
   71.36        2978.25           2544        1540.00      6709.47
   71.39        2978.50           2548        1517.00      6609.16
   71.42        2978.75           2552        1501.00      6539.38
   71.45        2979.00           2555        1517.00      6609.16
   71.48        2979.25           2559        1518.00      6613.52
   71.51        2979.50           2562        1486.00      6473.96
   71.54        2979.75           2566        1499.00      6530.66
   71.57        2980.00           2569        1523.00      6635.32
   71.60        2980.25           2573        1476.00      6430.35
   71.63        2980.50           2577        1462.00      6369.30
   71.66        2980.75           2580        1443.00      6286.44
   71.69        2981.00           2584        1409.00      6138.16
   71.72        2981.25           2587        1418.00      6177.41
   71.75        2981.50           2591        1422.00      6194.85
   71.78        2981.75           2594        1429.00      6225.38
   71.82        2982.00           2598        1415.00      6164.33
   71.85        2982.25           2601        1436.00      6255.91
   71.88        2982.50           2605        1418.00      6177.41
   71.91        2982.75           2609        1408.00      6133.80
   71.94        2983.00           2612        1410.00      6142.52
   71.97        2983.25           2616        1432.00      6238.46
   72.00        2983.50           2619        1402.00      6107.63
   72.03        2983.75           2623        1388.00      6046.58
   72.06        2984.00           2626        1386.00      6037.86
HS scan finished at 01:12:17
end
************************************************************
  HS Scan of (1) Internal mercury lamp
************************************************************
Integration time is 0.2294 seconds per sample
dh080619Reading 51.44 .94 3.33pr1000
************************************************************
Dead Time -------------------------  3.4E-08 
Number of Cycles Used -------------  4 
Starting Wavelength (Angstroms) ---  2950 
Final Wavelength (Angstoms) -------  2984 
Wavelength Increment (Angstroms) --  .25 
Filter Wheel #1 Position ---------- (1) Ground quartz diffuser (ND=2.32)
Filter Wheel #2 Position ---------- (1) Neutral Density 0.494



************************************************************
HS scan start time = 21:08:42
Dark Count =  2.1 


Time (GMT)  Wavelength (Ang)  Step Number  Raw Counts  Counts/Second

 1269.59        2950.00           2144        1370.00      5964.16
 1269.79        2950.25           2147        1382.00      6016.49
 1269.82        2950.50           2151        1393.00      6064.46
 1269.85        2950.75           2155        1435.00      6247.62
 1269.88        2951.00           2158        1425.00      6204.01
 1269.91        2951.25           2162        1428.00      6217.09
 1269.94        2951.50           2165        1392.00      6060.10
 1269.97        2951.75           2169        1421.00      6186.57
 1270.00        2952.00           2172        1429.00      6221.46
 1270.03        2952.25           2176        1398.00      6086.26
 1270.06        2952.50           2179        1447.00      6299.95
 1270.09        2952.75           2183        1456.00      6339.20
 1270.12        2953.00           2186        1449.00      6308.68
 1270.15        2953.25           2190        1431.00      6230.18
 1270.18        2953.50           2193        1451.00      6317.40
 1270.22        2953.75           2197        1434.00      6243.26
 1270.25        2954.00           2200        1513.00      6587.79
 1270.28        2954.25           2204        1463.00      6369.73
 1270.31        2954.50           2208        1462.00      6365.37
 1270.34        2954.75           2211        1506.00      6557.26
 1270.37        2955.00           2215        1503.00      6544.18
 1270.40        2955.25           2218        1552.00      6757.87
 1270.43        2955.50           2222        1556.00      6775.32
 1270.46        2955.75           2225        1510.00      6574.70
 1270.49        2956.00           2229        1560.00      6792.76
 1270.52        2956.25           2232        1548.00      6740.43
 1270.55        2956.50           2236        1588.00      6914.88
 1270.58        2956.75           2239        1584.00      6897.43
 1270.61        2957.00           2243        1577.00      6866.90
 1270.64        2957.25           2246        1549.00      6744.79
 1270.67        2957.50           2250        1622.00      7063.16
 1270.70        2957.75           2254        1583.00      6893.07
 1270.74        2958.00           2257        1628.00      7089.33
 1270.77        2958.25           2261        1613.00      7023.91
 1270.80        2958.50           2264        1680.00      7316.12
 1270.83        2958.75           2268        1693.00      7372.82
 1270.86        2959.00           2271        1686.00      7342.29
 1270.89        2959.25           2275        1736.00      7560.36
 1270.92        2959.50           2278        1687.00      7346.65
 1270.95        2959.75           2282        1716.00      7473.13
 1270.98        2960.00           2285        1815.00      7904.91
 1271.01        2960.25           2289        1840.00      8013.95
 1271.04        2960.50           2293        1862.00      8109.91
 1271.07        2960.75           2296        1887.00      8218.95
 1271.10        2961.00           2300        1983.00      8637.67
 1271.13        2961.25           2303        2504.00     10910.32
 1271.16        2961.50           2307        6805.00     29685.13
 1271.19        2961.75           2310       16323.00     71318.77
 1271.22        2962.00           2314       35312.00    154734.80
 1271.26        2962.25           2317       51387.00    225722.70
 1271.29        2962.50           2321       73752.00    325063.30
 1271.32        2962.75           2324       90551.00    400127.20
 1271.35        2963.00           2328      115197.00    510957.40
 1271.38        2963.25           2331      133968.00    595937.20
 1271.41        2963.50           2335      158550.00    707980.30
 1271.44        2963.75           2339      179711.00    805127.60
 1271.47        2964.00           2342      197132.00    885596.40
 1271.50        2964.25           2346      221245.00    997719.10
 1271.53        2964.50           2349      240211.00   1086524.00
 1271.56        2964.75           2353      263853.00   1197994.00
 1271.59        2965.00           2356      282259.00   1285379.00
 1271.62        2965.25           2360      304064.00   1389592.00
 1271.65        2965.50           2363      320709.00   1469657.00
 1271.68        2965.75           2367      342001.00   1572730.00
 1271.71        2966.00           2370      357305.00   1647278.00
 1271.74        2966.25           2374      375860.00   1738187.00
 1271.78        2966.50           2378      392147.00   1818464.00
 1271.81        2966.75           2381      398659.00   1850688.00
 1271.84        2967.00           2385      401321.00   1863882.00
 1271.87        2967.25           2388      400997.00   1862275.00
 1271.90        2967.50           2392      400950.00   1862042.00
 1271.93        2967.75           2395      401031.00   1862444.00
 1271.96        2968.00           2399      398190.00   1848365.00
 1271.99        2968.25           2402      388056.00   1798257.00
 1272.02        2968.50           2406      368840.00   1703725.00
 1272.05        2968.75           2409      353943.00   1630868.00
 1272.08        2969.00           2413      331931.00   1523889.00
 1272.11        2969.25           2417      309837.00   1417310.00
 1272.14        2969.50           2420      293378.00   1338426.00
 1272.17        2969.75           2424      269369.00   1224127.00
 1272.20        2970.00           2427      252705.00   1145325.00
 1272.23        2970.25           2431      228749.00   1032790.00
 1272.26        2970.50           2434      210045.00    945532.20
 1272.30        2970.75           2438      184287.00    826221.30
 1272.33        2971.00           2441      165803.00    741204.60
 1272.36        2971.25           2445      142061.00    632729.30
 1272.39        2971.50           2449      117673.00    522138.30
 1272.42        2971.75           2452       97918.00    433167.60
 1272.45        2972.00           2456       73020.00    321801.20
 1272.48        2972.25           2459       55512.00    243994.40
 1272.51        2972.50           2463       33529.00    146882.10
 1272.54        2972.75           2466       20007.00     87465.03
 1272.57        2973.00           2470        7062.00     30807.76
 1272.60        2973.25           2473        3274.00     14269.78
 1272.63        2973.50           2477        2126.00      9261.42
 1272.66        2973.75           2481        1902.00      8284.37
 1272.69        2974.00           2484        1848.00      8048.85
 1272.72        2974.25           2488        1859.00      8096.82
 1272.75        2974.50           2491        1801.00      7843.85
 1272.78        2974.75           2495        1800.00      7839.49
 1272.81        2975.00           2498        1729.00      7529.83
 1272.85        2975.25           2502        1734.00      7551.63
 1272.88        2975.50           2505        1728.00      7525.47
 1272.91        2975.75           2509        1712.00      7455.68
 1272.94        2976.00           2512        1653.00      7198.36
 1272.97        2976.25           2516        1664.00      7246.34
 1273.00        2976.50           2520        1625.00      7076.24
 1273.03        2976.75           2523        1603.00      6980.30
 1273.06        2977.00           2527        1609.00      7006.47
 1273.09        2977.25           2530        1571.00      6840.74
 1273.12        2977.50           2534        1566.00      6818.93
 1273.15        2977.75           2537        1548.00      6740.43
 1273.18        2978.00           2541        1524.00      6635.76
 1273.21        2978.25           2544        1524.00      6635.76
 1273.24        2978.50           2548        1548.00      6740.43
 1273.27        2978.75           2552        1520.00      6618.32
 1273.30        2979.00           2555        1477.00      6430.79
 1273.33        2979.25           2559        1465.00      6378.45
 1273.37        2979.50           2562        1445.00      6291.23
 1273.40        2979.75           2566        1475.00      6422.07
 1273.43        2980.00           2569        1462.00      6365.37
 1273.46        2980.25           2573        1449.00      6308.68
 1273.49        2980.50           2577        1432.00      6234.54
 1273.52        2980.75           2580        1432.00      6234.54
 1273.55        2981.00           2584        1465.00      6378.45
 1273.58        2981.25           2587        1415.00      6160.40
 1273.61        2981.50           2591        1423.00      6195.29
 1273.64        2981.75           2594        1425.00      6204.01
 1273.67        2982.00           2598        1391.00      6055.74
 1273.70        2982.25           2601        1366.00      5946.71
 1273.73        2982.50           2605        1404.00      6112.43
 1273.76        2982.75           2609        1359.00      5916.19
 1273.79        2983.00           2612        1358.00      5911.82
 1273.82        2983.25           2616        1371.00      5968.52
 1273.85        2983.50           2619        1347.00      5863.85
 1273.89        2983.75           2623        1373.00      5977.24
 1273.92        2984.00           2626        1362.00      5929.27
HS scan finished at 21:14:08
end
