************************************************************
  HS Scan of (1) Internal mercury lamp
************************************************************
Integration time is 0.2294 seconds per sample
dh060619Reading 51.44 .94 3.33pr1000
************************************************************
Dead Time -------------------------  3.4E-08 
Number of Cycles Used -------------  4 
Starting Wavelength (Angstroms) ---  2950 
Final Wavelength (Angstoms) -------  2984 
Wavelength Increment (Angstroms) --  .25 
Filter Wheel #1 Position ---------- (1) Ground quartz diffuser (ND=2.32)
Filter Wheel #2 Position ---------- (1) Neutral Density 0.494



************************************************************
HS scan start time = 02:35:36
Dark Count =  1.9 


Time (GMT)  Wavelength (Ang)  Step Number  Raw Counts  Counts/Second

  156.50        2950.00           2144        1222.00      5319.62
  156.69        2950.25           2147        1252.00      5450.44
  156.72        2950.50           2151        1220.00      5310.90
  156.75        2950.75           2155        1255.00      5463.53
  156.78        2951.00           2158        1230.00      5354.51
  156.82        2951.25           2162        1241.00      5402.47
  156.85        2951.50           2165        1259.00      5480.97
  156.88        2951.75           2169        1250.00      5441.72
  156.91        2952.00           2172        1262.00      5494.05
  156.94        2952.25           2176        1231.00      5358.87
  156.97        2952.50           2179        1261.00      5489.69
  157.00        2952.75           2183        1326.00      5773.15
  157.03        2953.00           2186        1294.00      5633.60
  157.06        2953.25           2190        1280.00      5572.55
  157.09        2953.50           2193        1308.00      5694.65
  157.13        2953.75           2197        1289.00      5611.79
  157.16        2954.00           2200        1309.00      5699.01
  157.19        2954.25           2204        1322.00      5755.70
  157.22        2954.50           2208        1339.00      5829.84
  157.25        2954.75           2211        1287.00      5603.07
  157.28        2955.00           2215        1351.00      5882.17
  157.31        2955.25           2218        1367.00      5951.95
  157.34        2955.50           2222        1361.00      5925.78
  157.37        2955.75           2225        1358.00      5912.70
  157.40        2956.00           2229        1390.00      6052.25
  157.43        2956.25           2232        1447.00      6300.83
  157.46        2956.50           2236        1417.00      6170.00
  157.49        2956.75           2239        1440.00      6270.30
  157.53        2957.00           2243        1455.00      6335.72
  157.56        2957.25           2246        1484.00      6462.19
  157.59        2957.50           2250        1458.00      6348.80
  157.62        2957.75           2254        1468.00      6392.41
  157.65        2958.00           2257        1496.00      6514.52
  157.68        2958.25           2261        1536.00      6688.97
  157.71        2958.50           2264        1561.00      6798.00
  157.74        2958.75           2268        1586.00      6907.03
  157.77        2959.00           2271        1576.00      6863.42
  157.80        2959.25           2275        1602.00      6976.81
  157.83        2959.50           2278        1630.00      7098.92
  157.86        2959.75           2282        1640.00      7142.54
  157.89        2960.00           2285        1716.00      7474.00
  157.92        2960.25           2289        1729.00      7530.70
  157.95        2960.50           2293        1802.00      7849.09
  157.98        2960.75           2296        1900.00      8276.52
  158.01        2961.00           2300        2586.00     11268.92
  158.05        2961.25           2303        5453.00     23781.65
  158.08        2961.50           2307       17573.00     76796.16
  158.11        2961.75           2310       31708.00    138867.30
  158.14        2962.00           2314       54915.00    241349.50
  158.17        2962.25           2317       73905.00    325746.10
  158.20        2962.50           2321       99631.00    440861.90
  158.23        2962.75           2324      118641.00    526512.80
  158.26        2963.00           2328      139727.00    622109.90
  158.29        2963.25           2331      157854.00    704797.00
  158.32        2963.50           2335      186821.00    837916.10
  158.35        2963.75           2339      214630.00    966874.40
  158.38        2964.00           2342      234870.00   1061461.00
  158.41        2964.25           2346      260563.00   1182431.00
  158.44        2964.50           2349      277995.00   1265089.00
  158.47        2964.75           2353      302140.00   1380367.00
  158.50        2965.00           2356      319020.00   1461513.00
  158.53        2965.25           2360      339728.00   1561692.00
  158.56        2965.50           2363      357626.00   1648847.00
  158.60        2965.75           2367      381710.00   1766970.00
  158.63        2966.00           2370      396606.00   1840522.00
  158.66        2966.25           2374      415277.00   1933254.00
  158.69        2966.50           2378      422207.00   1967828.00
  158.72        2966.75           2381      422895.00   1971265.00
  158.75        2967.00           2385      423409.00   1973833.00
  158.78        2967.25           2388      425022.00   1981896.00
  158.81        2967.50           2392      423447.00   1974023.00
  158.84        2967.75           2395      419915.00   1956384.00
  158.87        2968.00           2399      401494.00   1864740.00
  158.90        2968.25           2402      392949.00   1822429.00
  158.93        2968.50           2406      371693.00   1717721.00
  158.96        2968.75           2409      356092.00   1641356.00
  158.99        2969.00           2413      330995.00   1519359.00
  159.02        2969.25           2417      310214.00   1419123.00
  159.05        2969.50           2420      292161.00   1332611.00
  159.08        2969.75           2424      266265.00   1209416.00
  159.12        2970.00           2427      246243.00   1114884.00
  159.15        2970.25           2431      221953.00   1001025.00
  159.18        2970.50           2434      204084.00    917834.20
  159.21        2970.75           2438      178545.00    799758.60
  159.24        2971.00           2441      157634.00    703790.50
  159.27        2971.25           2445      130417.00    579824.00
  159.30        2971.50           2449      103367.00    457655.10
  159.33        2971.75           2452       83722.00    369567.20
  159.36        2972.00           2456       60064.00    264185.00
  159.39        2972.25           2459       41641.00    182643.80
  159.42        2972.50           2463       19324.00     84471.12
  159.45        2972.75           2466        8424.00     36759.52
  159.48        2973.00           2470        3051.00     13297.64
  159.51        2973.25           2473        2141.00      9327.72
  159.54        2973.50           2477        1987.00      8655.99
  159.57        2973.75           2481        1873.00      8158.76
  159.61        2974.00           2484        1888.00      8224.18
  159.64        2974.25           2488        1844.00      8032.27
  159.67        2974.50           2491        1812.00      7892.70
  159.70        2974.75           2495        1752.00      7631.01
  159.73        2975.00           2498        1760.00      7665.90
  159.76        2975.25           2502        1760.00      7665.90
  159.79        2975.50           2505        1671.00      7277.74
  159.82        2975.75           2509        1688.00      7351.88
  159.85        2976.00           2512        1694.00      7378.05
  159.88        2976.25           2516        1629.00      7094.56
  159.91        2976.50           2520        1596.00      6950.64
  159.94        2976.75           2523        1643.00      7155.62
  159.97        2977.00           2527        1595.00      6946.28
  160.00        2977.25           2530        1598.00      6959.36
  160.03        2977.50           2534        1581.00      6885.22
  160.06        2977.75           2537        1550.00      6750.02
  160.09        2978.00           2541        1541.00      6710.77
  160.12        2978.25           2544        1542.00      6715.13
  160.16        2978.50           2548        1504.00      6549.41
  160.19        2978.75           2552        1434.00      6244.13
  160.22        2979.00           2555        1524.00      6636.63
  160.25        2979.25           2559        1463.00      6370.60
  160.28        2979.50           2562        1433.00      6239.77
  160.31        2979.75           2566        1475.00      6422.94
  160.34        2980.00           2569        1425.00      6204.88
  160.37        2980.25           2573        1409.00      6135.11
  160.40        2980.50           2577        1442.00      6279.02
  160.43        2980.75           2580        1363.00      5934.50
  160.46        2981.00           2584        1372.00      5973.75
  160.49        2981.25           2587        1386.00      6034.80
  160.52        2981.50           2591        1403.00      6108.94
  160.55        2981.75           2594        1386.00      6034.80
  160.58        2982.00           2598        1368.00      5956.31
  160.61        2982.25           2601        1333.00      5803.67
  160.64        2982.50           2605        1368.00      5956.31
  160.68        2982.75           2609        1366.00      5947.58
  160.71        2983.00           2612        1370.00      5965.03
  160.74        2983.25           2616        1374.00      5982.47
  160.77        2983.50           2619        1357.00      5908.34
  160.80        2983.75           2623        1306.00      5685.93
  160.83        2984.00           2626        1364.00      5938.86
HS scan finished at 02:41:03
end
************************************************************
  HS Scan of (1) Internal mercury lamp
************************************************************
Integration time is 0.2294 seconds per sample
dh060619Reading 51.44 .94 3.47pr1000
************************************************************
Dead Time -------------------------  3.4E-08 
Number of Cycles Used -------------  4 
Starting Wavelength (Angstroms) ---  2950 
Final Wavelength (Angstoms) -------  2984 
Wavelength Increment (Angstroms) --  .25 
Filter Wheel #1 Position ---------- (1) Ground quartz diffuser (ND=2.32)
Filter Wheel #2 Position ---------- (1) Neutral Density 0.494



************************************************************
HS scan start time = 21:08:43
Dark Count =  3.1 


Time (GMT)  Wavelength (Ang)  Step Number  Raw Counts  Counts/Second

 1269.62        2950.00           2144        1150.00      5000.41
 1269.81        2950.25           2147        1170.00      5087.63
 1269.84        2950.50           2151        1177.00      5118.15
 1269.87        2950.75           2155        1169.00      5083.27
 1269.90        2951.00           2158        1161.00      5048.38
 1269.93        2951.25           2162        1154.00      5017.86
 1269.96        2951.50           2165        1175.00      5109.43
 1270.00        2951.75           2169        1211.00      5266.42
 1270.03        2952.00           2172        1152.00      5009.14
 1270.06        2952.25           2176        1222.00      5314.39
 1270.09        2952.50           2179        1168.00      5078.91
 1270.12        2952.75           2183        1196.00      5201.01
 1270.15        2953.00           2186        1193.00      5187.93
 1270.18        2953.25           2190        1184.00      5148.68
 1270.21        2953.50           2193        1229.00      5344.91
 1270.24        2953.75           2197        1238.00      5384.16
 1270.27        2954.00           2200        1217.00      5292.58
 1270.30        2954.25           2204        1251.00      5440.85
 1270.33        2954.50           2208        1246.00      5419.05
 1270.36        2954.75           2211        1271.00      5528.07
 1270.39        2955.00           2215        1238.00      5384.16
 1270.42        2955.25           2218        1245.00      5414.68
 1270.45        2955.50           2222        1229.00      5344.91
 1270.48        2955.75           2225        1243.00      5405.96
 1270.51        2956.00           2229        1277.00      5554.23
 1270.55        2956.25           2232        1279.00      5562.95
 1270.58        2956.50           2236        1306.00      5680.70
 1270.61        2956.75           2239        1296.00      5637.09
 1270.64        2957.00           2243        1322.00      5750.47
 1270.67        2957.25           2246        1357.00      5903.10
 1270.70        2957.50           2250        1336.00      5811.52
 1270.73        2957.75           2254        1327.00      5772.28
 1270.76        2958.00           2257        1357.00      5903.10
 1270.79        2958.25           2261        1390.00      6047.02
 1270.82        2958.50           2264        1368.00      5951.07
 1270.85        2958.75           2268        1396.00      6073.18
 1270.88        2959.00           2271        1412.00      6142.96
 1270.91        2959.25           2275        1432.00      6230.18
 1270.94        2959.50           2278        1439.00      6260.71
 1270.97        2959.75           2282        1463.00      6365.37
 1271.00        2960.00           2285        1533.00      6670.65
 1271.03        2960.25           2289        1498.00      6518.01
 1271.07        2960.50           2293        1552.00      6753.51
 1271.10        2960.75           2296        1601.00      6967.21
 1271.13        2961.00           2300        1681.00      7316.12
 1271.16        2961.25           2303        1775.00      7726.09
 1271.19        2961.50           2307        3765.00     16408.02
 1271.22        2961.75           2310        9126.00     39822.42
 1271.25        2962.00           2314       22459.00     98217.16
 1271.28        2962.25           2317       36682.00    160766.90
 1271.31        2962.50           2321       57052.00    250817.30
 1271.34        2962.75           2324       71855.00    316606.50
 1271.37        2963.00           2328       90477.00    399791.20
 1271.40        2963.25           2331      105196.00    465878.00
 1271.43        2963.50           2335      125119.00    555809.80
 1271.46        2963.75           2339      145302.00    647485.00
 1271.49        2964.00           2342      161546.00    721690.50
 1271.52        2964.25           2346      184420.00    826830.10
 1271.55        2964.50           2349      202472.00    910347.40
 1271.59        2964.75           2353      223062.00   1006199.00
 1271.62        2965.00           2356      237337.00   1073027.00
 1271.65        2965.25           2360      256528.00   1163361.00
 1271.68        2965.50           2363      270682.00   1230349.00
 1271.71        2965.75           2367      291109.00   1327580.00
 1271.74        2966.00           2370      307152.00   1404407.00
 1271.77        2966.25           2374      324249.00   1486738.00
 1271.80        2966.50           2378      339547.00   1560808.00
 1271.83        2966.75           2381      346907.00   1596581.00
 1271.86        2967.00           2385      350364.00   1613415.00
 1271.89        2967.25           2388      350787.00   1615476.00
 1271.92        2967.50           2392      350231.00   1612766.00
 1271.95        2967.75           2395      350488.00   1614019.00
 1271.98        2968.00           2399      347690.00   1600392.00
 1272.01        2968.25           2402      340039.00   1563196.00
 1272.04        2968.50           2406      325024.00   1490481.00
 1272.07        2968.75           2409      312908.00   1432072.00
 1272.11        2969.00           2413      294291.00   1342785.00
 1272.14        2969.25           2417      274690.00   1249375.00
 1272.17        2969.50           2420      258457.00   1172472.00
 1272.20        2969.75           2424      237857.00   1075467.00
 1272.23        2970.00           2427      221763.00   1000133.00
 1272.26        2970.25           2431      200711.00    902178.90
 1272.29        2970.50           2434      184893.00    829012.40
 1272.32        2970.75           2438      163766.00    731861.40
 1272.35        2971.00           2441      147045.00    655429.30
 1272.38        2971.25           2445      126134.00    560406.30
 1272.41        2971.50           2449      105087.00    465387.50
 1272.44        2971.75           2452       89768.00    396615.40
 1272.47        2972.00           2456       70155.00    309036.20
 1272.50        2972.25           2459       55221.00    242700.20
 1272.53        2972.50           2463       35527.00    155677.50
 1272.56        2972.75           2466       21628.00     94570.82
 1272.59        2973.00           2470        7196.00     31388.76
 1272.63        2973.25           2473        3130.00     13637.10
 1272.66        2973.50           2477        1823.00      7935.45
 1272.69        2973.75           2481        1659.00      7220.17
 1272.72        2974.00           2484        1611.00      7010.83
 1272.75        2974.25           2488        1584.00      6893.07
 1272.78        2974.50           2491        1563.00      6801.49
 1272.81        2974.75           2495        1531.00      6661.93
 1272.84        2975.00           2498        1458.00      6343.57
 1272.87        2975.25           2502        1460.00      6352.29
 1272.90        2975.50           2505        1428.00      6212.73
 1272.93        2975.75           2509        1459.00      6347.93
 1272.96        2976.00           2512        1417.00      6164.76
 1272.99        2976.25           2516        1421.00      6182.21
 1273.02        2976.50           2520        1377.00      5990.32
 1273.05        2976.75           2523        1376.00      5985.96
 1273.08        2977.00           2527        1328.00      5776.64
 1273.11        2977.25           2530        1324.00      5759.19
 1273.14        2977.50           2534        1313.00      5711.22
 1273.18        2977.75           2537        1316.00      5724.31
 1273.21        2978.00           2541        1285.00      5589.12
 1273.24        2978.25           2544        1269.00      5519.34
 1273.27        2978.50           2548        1265.00      5501.90
 1273.30        2978.75           2552        1251.00      5440.85
 1273.33        2979.00           2555        1252.00      5445.21
 1273.36        2979.25           2559        1248.00      5427.77
 1273.39        2979.50           2562        1244.00      5410.32
 1273.42        2979.75           2566        1201.00      5222.81
 1273.45        2980.00           2569        1240.00      5392.88
 1273.48        2980.25           2573        1183.00      5144.32
 1273.51        2980.50           2577        1209.00      5257.70
 1273.54        2980.75           2580        1167.00      5074.55
 1273.57        2981.00           2584        1174.00      5105.07
 1273.60        2981.25           2587        1171.00      5091.99
 1273.63        2981.50           2591        1161.00      5048.38
 1273.66        2981.75           2594        1203.00      5231.53
 1273.70        2982.00           2598        1156.00      5026.58
 1273.73        2982.25           2601        1149.00      4996.05
 1273.76        2982.50           2605        1139.00      4952.45
 1273.79        2982.75           2609        1168.00      5078.91
 1273.82        2983.00           2612        1128.00      4904.48
 1273.85        2983.25           2616        1165.00      5065.82
 1273.88        2983.50           2619        1163.00      5057.10
 1273.91        2983.75           2623        1203.00      5231.53
 1273.94        2984.00           2626        1103.00      4795.46
HS scan finished at 21:14:10
end
