************************************************************
  HS Scan of (1) Internal mercury lamp
************************************************************
Integration time is 0.2294 seconds per sample
dh080618Reading 51.44 .94 3.56pr1000
************************************************************
Dead Time -------------------------  3.4E-08 
Number of Cycles Used -------------  4 
Starting Wavelength (Angstroms) ---  2950 
Final Wavelength (Angstoms) -------  2984 
Wavelength Increment (Angstroms) --  .25 
Filter Wheel #1 Position ---------- (1) Ground quartz diffuser (ND=2.32)
Filter Wheel #2 Position ---------- (1) Neutral Density 0.494



************************************************************
HS scan start time = 01:06:57
Dark Count =  2.8 


Time (GMT)  Wavelength (Ang)  Step Number  Raw Counts  Counts/Second

   67.85        2950.00           2144          52.00       214.47
   68.04        2950.25           2147          58.00       240.63
   68.07        2950.50           2151          51.00       210.11
   68.10        2950.75           2155          57.00       236.27
   68.13        2951.00           2158          63.00       262.43
   68.16        2951.25           2162          58.00       240.63
   68.19        2951.50           2165          54.00       223.19
   68.22        2951.75           2169          57.00       236.27
   68.26        2952.00           2172          58.00       240.63
   68.29        2952.25           2176          53.00       218.83
   68.32        2952.50           2179          60.00       249.35
   68.35        2952.75           2183          53.00       218.83
   68.38        2953.00           2186          55.00       227.55
   68.41        2953.25           2190          54.00       223.19
   68.44        2953.50           2193          57.00       236.27
   68.47        2953.75           2197          62.00       258.07
   68.50        2954.00           2200          67.00       279.86
   68.53        2954.25           2204          63.00       262.43
   68.56        2954.50           2208          61.00       253.71
   68.59        2954.75           2211          54.00       223.19
   68.62        2955.00           2215          67.00       279.86
   68.65        2955.25           2218          60.00       249.35
   68.68        2955.50           2222          58.00       240.63
   68.71        2955.75           2225          57.00       236.27
   68.75        2956.00           2229          69.00       288.58
   68.78        2956.25           2232          69.00       288.58
   68.81        2956.50           2236          67.00       279.86
   68.84        2956.75           2239          63.00       262.43
   68.87        2957.00           2243          71.00       297.30
   68.90        2957.25           2246          59.00       244.99
   68.93        2957.50           2250          75.00       314.74
   68.96        2957.75           2254          69.00       288.58
   68.99        2958.00           2257          65.00       271.14
   69.02        2958.25           2261          68.00       284.22
   69.05        2958.50           2264          74.00       310.38
   69.08        2958.75           2268          76.00       319.10
   69.11        2959.00           2271          68.00       284.22
   69.14        2959.25           2275          82.00       345.25
   69.17        2959.50           2278          80.00       336.53
   69.20        2959.75           2282          70.00       292.94
   69.23        2960.00           2285          77.00       323.46
   69.26        2960.25           2289          78.00       327.82
   69.30        2960.50           2293          79.00       332.17
   69.33        2960.75           2296          83.00       349.61
   69.36        2961.00           2300         105.00       445.52
   69.39        2961.25           2303         212.00       911.97
   69.42        2961.50           2307         778.00      3379.64
   69.45        2961.75           2310        1422.00      6187.88
   69.48        2962.00           2314        2464.00     10732.78
   69.51        2962.25           2317        3199.00     13939.47
   69.54        2962.50           2321        4240.00     18482.41
   69.57        2962.75           2324        4914.00     21424.50
   69.60        2963.00           2328        6107.00     26633.53
   69.63        2963.25           2331        7085.00     30905.17
   69.66        2963.50           2335        8289.00     36165.63
   69.69        2963.75           2339        9336.00     40741.67
   69.72        2964.00           2342       10293.00     44925.59
   69.75        2964.25           2346       11450.00     49985.49
   69.78        2964.50           2349       12306.00     53730.16
   69.82        2964.75           2353       13507.00     58985.66
   69.85        2965.00           2356       14310.00     62500.60
   69.88        2965.25           2360       15312.00     66887.78
   69.91        2965.50           2363       16028.00     70023.53
   69.94        2965.75           2367       17143.00     74908.06
   69.97        2966.00           2370       17910.00     78269.04
   70.00        2966.25           2374       18799.00     82165.56
   70.03        2966.50           2378       19509.00     85278.29
   70.06        2966.75           2381       19745.00     86313.09
   70.09        2967.00           2385       19759.00     86374.47
   70.12        2967.25           2388       19705.00     86137.69
   70.15        2967.50           2392       19824.00     86659.49
   70.18        2967.75           2395       19638.00     85843.91
   70.21        2968.00           2399       19121.00     83577.18
   70.24        2968.25           2402       18459.00     80675.21
   70.27        2968.50           2406       17267.00     75451.37
   70.30        2968.75           2409       16384.00     71582.90
   70.34        2969.00           2413       15217.00     66471.77
   70.37        2969.25           2417       14165.00     61865.83
   70.40        2969.50           2420       13560.00     59217.64
   70.43        2969.75           2424       12194.00     53240.15
   70.46        2970.00           2427       11154.00     48690.83
   70.49        2970.25           2431        9952.00     43434.63
   70.52        2970.50           2434        9041.00     39452.19
   70.55        2970.75           2438        7968.00     34762.95
   70.58        2971.00           2441        7071.00     30844.01
   70.61        2971.25           2445        5893.00     25699.00
   70.64        2971.50           2449        4773.00     20808.97
   70.67        2971.75           2452        4000.00     17434.92
   70.70        2972.00           2456        2889.00     12586.90
   70.73        2972.25           2459        2046.00      8909.41
   70.76        2972.50           2463        1090.00      4740.08
   70.79        2972.75           2466         568.00      2464.03
   70.82        2973.00           2470         181.00       776.83
   70.86        2973.25           2473         105.00       445.52
   70.89        2973.50           2477         107.00       454.24
   70.92        2973.75           2481          86.00       362.69
   70.95        2974.00           2484          85.00       358.33
   70.98        2974.25           2488          83.00       349.61
   71.01        2974.50           2491          84.00       353.97
   71.04        2974.75           2495          79.00       332.17
   71.07        2975.00           2498          79.00       332.17
   71.10        2975.25           2502          77.00       323.46
   71.13        2975.50           2505          73.00       306.02
   71.16        2975.75           2509          78.00       327.82
   71.19        2976.00           2512          76.00       319.10
   71.22        2976.25           2516          69.00       288.58
   71.25        2976.50           2520          71.00       297.30
   71.28        2976.75           2523          66.00       275.50
   71.31        2977.00           2527          67.00       279.86
   71.34        2977.25           2530          63.00       262.43
   71.38        2977.50           2534          67.00       279.86
   71.41        2977.75           2537          71.00       297.30
   71.44        2978.00           2541          61.00       253.71
   71.47        2978.25           2544          67.00       279.86
   71.50        2978.50           2548          65.00       271.14
   71.53        2978.75           2552          61.00       253.71
   71.56        2979.00           2555          63.00       262.43
   71.59        2979.25           2559          64.00       266.79
   71.62        2979.50           2562          67.00       279.86
   71.65        2979.75           2566          56.00       231.91
   71.68        2980.00           2569          60.00       249.35
   71.71        2980.25           2573          56.00       231.91
   71.74        2980.50           2577          54.00       223.19
   71.77        2980.75           2580          58.00       240.63
   71.80        2981.00           2584          62.00       258.07
   71.83        2981.25           2587          62.00       258.07
   71.86        2981.50           2591          56.00       231.91
   71.90        2981.75           2594          56.00       231.91
   71.93        2982.00           2598          57.00       236.27
   71.96        2982.25           2601          56.00       231.91
   71.99        2982.50           2605          62.00       258.07
   72.02        2982.75           2609          63.00       262.43
   72.05        2983.00           2612          52.00       214.47
   72.08        2983.25           2616          56.00       231.91
   72.11        2983.50           2619          50.00       205.76
   72.14        2983.75           2623          53.00       218.83
   72.17        2984.00           2626          53.00       218.83
HS scan finished at 01:12:23
end
************************************************************
  HS Scan of (1) Internal mercury lamp
************************************************************
Integration time is 0.2294 seconds per sample
dh080618Reading 51.44 .94 3.78pr1000
************************************************************
Dead Time -------------------------  3.4E-08 
Number of Cycles Used -------------  4 
Starting Wavelength (Angstroms) ---  2950 
Final Wavelength (Angstoms) -------  2984 
Wavelength Increment (Angstroms) --  .25 
Filter Wheel #1 Position ---------- (1) Ground quartz diffuser (ND=2.32)
Filter Wheel #2 Position ---------- (1) Neutral Density 0.494



************************************************************
HS scan start time = 21:07:26
Dark Count =  5.7 


Time (GMT)  Wavelength (Ang)  Step Number  Raw Counts  Counts/Second

 1268.33        2950.00           2144          57.00       223.63
 1268.52        2950.25           2147          56.00       219.27
 1268.55        2950.50           2151          59.00       232.35
 1268.58        2950.75           2155          61.00       241.07
 1268.61        2951.00           2158          61.00       241.07
 1268.64        2951.25           2162          57.00       223.63
 1268.67        2951.50           2165          60.00       236.71
 1268.70        2951.75           2169          63.00       249.78
 1268.73        2952.00           2172          51.00       197.47
 1268.76        2952.25           2176          63.00       249.78
 1268.80        2952.50           2179          62.00       245.42
 1268.83        2952.75           2183          56.00       219.27
 1268.86        2953.00           2186          66.00       262.86
 1268.89        2953.25           2190          63.00       249.78
 1268.92        2953.50           2193          57.00       223.63
 1268.95        2953.75           2197          66.00       262.86
 1268.98        2954.00           2200          57.00       223.63
 1269.01        2954.25           2204          69.00       275.94
 1269.04        2954.50           2208          58.00       227.99
 1269.07        2954.75           2211          66.00       262.86
 1269.10        2955.00           2215          63.00       249.78
 1269.13        2955.25           2218          62.00       245.42
 1269.16        2955.50           2222          60.00       236.71
 1269.19        2955.75           2225          60.00       236.71
 1269.22        2956.00           2229          60.00       236.71
 1269.25        2956.25           2232          62.00       245.42
 1269.28        2956.50           2236          61.00       241.07
 1269.32        2956.75           2239          59.00       232.35
 1269.35        2957.00           2243          64.00       254.14
 1269.38        2957.25           2246          73.00       293.38
 1269.41        2957.50           2250          70.00       280.30
 1269.44        2957.75           2254          68.00       271.58
 1269.47        2958.00           2257          72.00       289.02
 1269.50        2958.25           2261          65.00       258.50
 1269.53        2958.50           2264          68.00       271.58
 1269.56        2958.75           2268          76.00       306.45
 1269.59        2959.00           2271          71.00       284.66
 1269.62        2959.25           2275          79.00       319.53
 1269.65        2959.50           2278          77.00       310.81
 1269.68        2959.75           2282          77.00       310.81
 1269.71        2960.00           2285          78.00       315.17
 1269.74        2960.25           2289          76.00       306.45
 1269.77        2960.50           2293          92.00       376.20
 1269.80        2960.75           2296          78.00       315.17
 1269.84        2961.00           2300         106.00       437.23
 1269.87        2961.25           2303         230.00       977.80
 1269.90        2961.50           2307         812.00      3515.24
 1269.93        2961.75           2310        1538.00      6681.12
 1269.96        2962.00           2314        2583.00     11239.26
 1269.99        2962.25           2317        3434.00     14952.24
 1270.02        2962.50           2321        4490.00     19560.96
 1270.05        2962.75           2324        5163.00     22498.90
 1270.08        2963.00           2328        6382.00     27821.86
 1270.11        2963.25           2331        7411.00     32316.66
 1270.14        2963.50           2335        8559.00     37332.89
 1270.17        2963.75           2339        9612.00     41935.51
 1270.20        2964.00           2342       10448.00     45590.67
 1270.23        2964.25           2346       11669.00     50930.76
 1270.26        2964.50           2349       12752.00     55668.92
 1270.29        2964.75           2353       13827.00     60373.58
 1270.32        2965.00           2356       14571.00     63630.54
 1270.36        2965.25           2360       15833.00     69156.76
 1270.39        2965.50           2363       16481.00     71995.12
 1270.42        2965.75           2367       17596.00     76880.30
 1270.45        2966.00           2370       18495.00     80820.31
 1270.48        2966.25           2374       19310.00     84393.09
 1270.51        2966.50           2378       19552.00     85454.12
 1270.55        2966.75           2381       19721.00     86195.13
 1270.58        2967.00           2385       19602.00     85673.35
 1270.61        2967.25           2388       19682.00     86024.12
 1270.64        2967.50           2392       19626.00     85778.58
 1270.67        2967.75           2395       19397.00     84774.52
 1270.70        2968.00           2399       18762.00     81990.68
 1270.73        2968.25           2402       17912.00     78265.10
 1270.76        2968.50           2406       16927.00     73949.00
 1270.79        2968.75           2409       15944.00     69642.91
 1270.82        2969.00           2413       14858.00     64887.11
 1270.85        2969.25           2417       13732.00     59957.76
 1270.88        2969.50           2420       12760.00     55703.92
 1270.91        2969.75           2424       11805.00     51525.67
 1270.94        2970.00           2427       11092.00     48406.98
 1270.97        2970.25           2431        9873.00     43076.56
 1271.00        2970.50           2434        9014.00     39321.49
 1271.03        2970.75           2438        7964.00     34732.80
 1271.07        2971.00           2441        7069.00     30822.61
 1271.10        2971.25           2445        6069.00     26454.91
 1271.13        2971.50           2449        4842.00     21097.52
 1271.16        2971.75           2452        4036.00     17579.38
 1271.19        2972.00           2456        3045.00     13254.88
 1271.22        2972.25           2459        2261.00      9834.59
 1271.25        2972.50           2463        1108.00      4805.93
 1271.28        2972.75           2466         502.00      2163.63
 1271.31        2973.00           2470         176.00       742.39
 1271.34        2973.25           2473          99.00       406.72
 1271.37        2973.50           2477          96.00       393.64
 1271.40        2973.75           2481          84.00       341.33
 1271.43        2974.00           2484          84.00       341.33
 1271.46        2974.25           2488          89.00       363.13
 1271.49        2974.50           2491          77.00       310.81
 1271.52        2974.75           2495          97.00       398.00
 1271.55        2975.00           2498          75.00       302.10
 1271.59        2975.25           2502          71.00       284.66
 1271.62        2975.50           2505          75.00       302.10
 1271.65        2975.75           2509          76.00       306.45
 1271.68        2976.00           2512          69.00       275.94
 1271.71        2976.25           2516          75.00       302.10
 1271.74        2976.50           2520          63.00       249.78
 1271.77        2976.75           2523          60.00       236.71
 1271.80        2977.00           2527          69.00       275.94
 1271.83        2977.25           2530          68.00       271.58
 1271.86        2977.50           2534          64.00       254.14
 1271.89        2977.75           2537          73.00       293.38
 1271.92        2978.00           2541          74.00       297.74
 1271.95        2978.25           2544          67.00       267.22
 1271.98        2978.50           2548          73.00       293.38
 1272.01        2978.75           2552          60.00       236.71
 1272.04        2979.00           2555          64.00       254.14
 1272.07        2979.25           2559          60.00       236.71
 1272.10        2979.50           2562          63.00       249.78
 1272.14        2979.75           2566          71.00       284.66
 1272.17        2980.00           2569          71.00       284.66
 1272.20        2980.25           2573          66.00       262.86
 1272.23        2980.50           2577          61.00       241.07
 1272.26        2980.75           2580          67.00       267.22
 1272.29        2981.00           2584          62.00       245.42
 1272.32        2981.25           2587          59.00       232.35
 1272.35        2981.50           2591          52.00       201.83
 1272.38        2981.75           2594          56.00       219.27
 1272.41        2982.00           2598          60.00       236.71
 1272.44        2982.25           2601          53.00       206.19
 1272.47        2982.50           2605          59.00       232.35
 1272.50        2982.75           2609          60.00       236.71
 1272.53        2983.00           2612          56.00       219.27
 1272.56        2983.25           2616          53.00       206.19
 1272.59        2983.50           2619          60.00       236.71
 1272.62        2983.75           2623          59.00       232.35
 1272.66        2984.00           2626          56.00       219.27
HS scan finished at 21:12:53
end
