************************************************************
  HS Scan of (1) Internal mercury lamp
************************************************************
Integration time is 0.2294 seconds per sample
dh070618Reading 51.44 .94 3.52pr1000
************************************************************
Dead Time -------------------------  3.4E-08 
Number of Cycles Used -------------  4 
Starting Wavelength (Angstroms) ---  2950 
Final Wavelength (Angstoms) -------  2984 
Wavelength Increment (Angstroms) --  .25 
Filter Wheel #1 Position ---------- (1) Ground quartz diffuser (ND=2.32)
Filter Wheel #2 Position ---------- (1) Neutral Density 0.494



************************************************************
HS scan start time = 01:28:45
Dark Count =  2.5 


Time (GMT)  Wavelength (Ang)  Step Number  Raw Counts  Counts/Second

   89.65        2950.00           2144          63.00       263.73
   89.85        2950.25           2147          54.00       224.50
   89.88        2950.50           2151          60.00       250.66
   89.91        2950.75           2155          61.00       255.02
   89.94        2951.00           2158          61.00       255.02
   89.97        2951.25           2162          66.00       276.81
   90.00        2951.50           2165          61.00       255.02
   90.03        2951.75           2169          68.00       285.53
   90.06        2952.00           2172          58.00       241.94
   90.09        2952.25           2176          62.00       259.37
   90.12        2952.50           2179          54.00       224.50
   90.15        2952.75           2183          63.00       263.73
   90.18        2953.00           2186          58.00       241.94
   90.21        2953.25           2190          64.00       268.09
   90.24        2953.50           2193          69.00       289.89
   90.28        2953.75           2197          62.00       259.37
   90.31        2954.00           2200          69.00       289.89
   90.34        2954.25           2204          61.00       255.02
   90.37        2954.50           2208          64.00       268.09
   90.40        2954.75           2211          63.00       263.73
   90.43        2955.00           2215          67.00       281.17
   90.46        2955.25           2218          60.00       250.66
   90.49        2955.50           2222          62.00       259.37
   90.52        2955.75           2225          68.00       285.53
   90.55        2956.00           2229          70.00       294.25
   90.58        2956.25           2232          63.00       263.73
   90.61        2956.50           2236          61.00       255.02
   90.64        2956.75           2239          73.00       307.33
   90.67        2957.00           2243          62.00       259.37
   90.70        2957.25           2246          66.00       276.81
   90.73        2957.50           2250          64.00       268.09
   90.76        2957.75           2254          72.00       302.97
   90.80        2958.00           2257          69.00       289.89
   90.83        2958.25           2261          74.00       311.69
   90.86        2958.50           2264          74.00       311.69
   90.89        2958.75           2268          70.00       294.25
   90.92        2959.00           2271          78.00       329.12
   90.95        2959.25           2275          81.00       342.20
   90.98        2959.50           2278          71.00       298.61
   91.01        2959.75           2282          77.00       324.76
   91.04        2960.00           2285          81.00       342.20
   91.07        2960.25           2289          85.00       359.64
   91.10        2960.50           2293          83.00       350.92
   91.13        2960.75           2296          91.00       385.79
   91.16        2961.00           2300         118.00       503.50
   91.19        2961.25           2303         169.00       725.82
   91.22        2961.50           2307         730.00      3171.66
   91.25        2961.75           2310        1372.00      5971.13
   91.28        2962.00           2314        2385.00     10389.46
   91.31        2962.25           2317        3176.00     13840.43
   91.35        2962.50           2321        4238.00     18474.99
   91.38        2962.75           2324        5209.00     22713.70
   91.41        2963.00           2328        6475.00     28242.02
   91.44        2963.25           2331        7257.00     31657.86
   91.47        2963.50           2335        8639.00     37696.50
   91.50        2963.75           2339        9653.00     42128.74
   91.53        2964.00           2342       10625.00     46378.66
   91.56        2964.25           2346       12100.00     52830.21
   91.59        2964.50           2349       13289.00     58032.88
   91.62        2964.75           2353       14651.00     63994.80
   91.65        2965.00           2356       15455.00     67515.31
   91.68        2965.25           2360       16616.00     72600.53
   91.71        2965.50           2363       17543.00     76662.08
   91.74        2965.75           2367       18548.00     81066.65
   91.77        2966.00           2370       19376.00     84696.47
   91.80        2966.25           2374       20500.00     89625.36
   91.83        2966.50           2378       21003.00     91831.61
   91.87        2966.75           2381       21328.00     93257.30
   91.90        2967.00           2385       21194.00     92669.46
   91.93        2967.25           2388       21081.00     92173.77
   91.96        2967.50           2392       21054.00     92055.32
   91.99        2967.75           2395       20825.00     91050.83
   92.02        2968.00           2399       19864.00     86836.21
   92.05        2968.25           2402       20155.00     88112.31
   92.08        2968.50           2406       18713.00     81789.91
   92.11        2968.75           2409       17909.00     78265.97
   92.14        2969.00           2413       16340.00     71391.47
   92.17        2969.25           2417       14955.00     65325.84
   92.20        2969.50           2420       14250.00     62239.24
   92.23        2969.75           2424       13071.00     57078.84
   92.26        2970.00           2427       12240.00     53442.71
   92.30        2970.25           2431       10861.00     47410.72
   92.33        2970.50           2434        9970.00     43514.64
   92.36        2970.75           2438        8540.00     37263.84
   92.39        2971.00           2441        7688.00     33540.85
   92.42        2971.25           2445        6406.00     27940.66
   92.45        2971.50           2449        5077.00     22137.41
   92.48        2971.75           2452        4210.00     18352.77
   92.51        2972.00           2456        3103.00     13521.91
   92.54        2972.25           2459        2348.00     10228.06
   92.58        2972.50           2463        1225.00      5330.09
   92.61        2972.75           2466         533.00      2312.74
   92.64        2973.00           2470         174.00       747.62
   92.67        2973.25           2473         109.00       464.26
   92.70        2973.50           2477         120.00       512.21
   92.73        2973.75           2481          90.00       381.43
   92.76        2974.00           2484          82.00       346.56
   92.79        2974.25           2488          85.00       359.64
   92.82        2974.50           2491          77.00       324.76
   92.85        2974.75           2495          77.00       324.76
   92.88        2975.00           2498          83.00       350.92
   92.91        2975.25           2502          81.00       342.20
   92.94        2975.50           2505          73.00       307.33
   92.97        2975.75           2509          78.00       329.12
   93.00        2976.00           2512          72.00       302.97
   93.03        2976.25           2516          71.00       298.61
   93.06        2976.50           2520          72.00       302.97
   93.10        2976.75           2523          74.00       311.69
   93.13        2977.00           2527          66.00       276.81
   93.16        2977.25           2530          69.00       289.89
   93.19        2977.50           2534          67.00       281.17
   93.22        2977.75           2537          67.00       281.17
   93.25        2978.00           2541          74.00       311.69
   93.28        2978.25           2544          71.00       298.61
   93.31        2978.50           2548          72.00       302.97
   93.34        2978.75           2552          66.00       276.81
   93.37        2979.00           2555          59.00       246.30
   93.40        2979.25           2559          54.00       224.50
   93.43        2979.50           2562          55.00       228.86
   93.46        2979.75           2566          63.00       263.73
   93.49        2980.00           2569          61.00       255.02
   93.52        2980.25           2573          63.00       263.73
   93.55        2980.50           2577          58.00       241.94
   93.58        2980.75           2580          59.00       246.30
   93.62        2981.00           2584          59.00       246.30
   93.65        2981.25           2587          65.00       272.45
   93.68        2981.50           2591          72.00       302.97
   93.71        2981.75           2594          58.00       241.94
   93.74        2982.00           2598          52.00       215.78
   93.77        2982.25           2601          58.00       241.94
   93.80        2982.50           2605          63.00       263.73
   93.83        2982.75           2609          55.00       228.86
   93.86        2983.00           2612          64.00       268.09
   93.89        2983.25           2616          60.00       250.66
   93.92        2983.50           2619          60.00       250.66
   93.95        2983.75           2623          58.00       241.94
   93.98        2984.00           2626          59.00       246.30
HS scan finished at 01:34:12
end
************************************************************
  HS Scan of (1) Internal mercury lamp
************************************************************
Integration time is 0.2294 seconds per sample
dh070618Reading 51.44 .94 3.72pr1000
************************************************************
Dead Time -------------------------  3.4E-08 
Number of Cycles Used -------------  4 
Starting Wavelength (Angstroms) ---  2950 
Final Wavelength (Angstoms) -------  2984 
Wavelength Increment (Angstroms) --  .25 
Filter Wheel #1 Position ---------- (1) Ground quartz diffuser (ND=2.32)
Filter Wheel #2 Position ---------- (1) Neutral Density 0.494



************************************************************
HS scan start time = 21:07:25
Dark Count =  4.2 


Time (GMT)  Wavelength (Ang)  Step Number  Raw Counts  Counts/Second

 1268.32        2950.00           2144          61.00       247.60
 1268.52        2950.25           2147          55.00       221.45
 1268.55        2950.50           2151          54.00       217.09
 1268.58        2950.75           2155          61.00       247.60
 1268.61        2951.00           2158          66.00       269.40
 1268.64        2951.25           2162          59.00       238.89
 1268.67        2951.50           2165          57.00       230.17
 1268.70        2951.75           2169          64.00       260.68
 1268.73        2952.00           2172          59.00       238.89
 1268.76        2952.25           2176          59.00       238.89
 1268.79        2952.50           2179          65.00       265.04
 1268.82        2952.75           2183          63.00       256.32
 1268.85        2953.00           2186          51.00       204.01
 1268.88        2953.25           2190          60.00       243.25
 1268.91        2953.50           2193          62.00       251.96
 1268.94        2953.75           2197          56.00       225.81
 1268.97        2954.00           2200          53.00       212.73
 1269.01        2954.25           2204          64.00       260.68
 1269.04        2954.50           2208          64.00       260.68
 1269.07        2954.75           2211          64.00       260.68
 1269.10        2955.00           2215          62.00       251.96
 1269.13        2955.25           2218          74.00       304.28
 1269.16        2955.50           2222          71.00       291.20
 1269.19        2955.75           2225          61.00       247.60
 1269.22        2956.00           2229          63.00       256.32
 1269.25        2956.25           2232          58.00       234.53
 1269.28        2956.50           2236          63.00       256.32
 1269.31        2956.75           2239          58.00       234.53
 1269.34        2957.00           2243          68.00       278.12
 1269.37        2957.25           2246          69.00       282.48
 1269.40        2957.50           2250          63.00       256.32
 1269.43        2957.75           2254          76.00       312.99
 1269.46        2958.00           2257          71.00       291.20
 1269.49        2958.25           2261          58.00       234.53
 1269.52        2958.50           2264          65.00       265.04
 1269.56        2958.75           2268          69.00       282.48
 1269.59        2959.00           2271          74.00       304.28
 1269.62        2959.25           2275          69.00       282.48
 1269.65        2959.50           2278          76.00       312.99
 1269.68        2959.75           2282          74.00       304.28
 1269.71        2960.00           2285         103.00       430.70
 1269.74        2960.25           2289          74.00       304.28
 1269.77        2960.50           2293          81.00       334.79
 1269.80        2960.75           2296          87.00       360.95
 1269.83        2961.00           2300         108.00       452.49
 1269.86        2961.25           2303         241.00      1032.29
 1269.89        2961.50           2307         817.00      3543.58
 1269.92        2961.75           2310        1443.00      6273.35
 1269.95        2962.00           2314        2350.00     10229.36
 1269.98        2962.25           2317        3045.00     13261.43
 1270.01        2962.50           2321        4100.00     17865.25
 1270.05        2962.75           2324        4724.00     20588.95
 1270.08        2963.00           2328        5810.00     25330.44
 1270.11        2963.25           2331        6664.00     29060.09
 1270.14        2963.50           2335        7463.00     32550.39
 1270.17        2963.75           2339        8435.00     36797.54
 1270.20        2964.00           2342        9614.00     41950.81
 1270.23        2964.25           2346       10660.00     46524.28
 1270.26        2964.50           2349       11492.00     50163.08
 1270.29        2964.75           2353       12369.00     53999.67
 1270.32        2965.00           2356       13048.00     56970.76
 1270.35        2965.25           2360       14005.00     61159.31
 1270.38        2965.50           2363       14714.00     64263.19
 1270.41        2965.75           2367       15523.00     67805.66
 1270.44        2966.00           2370       16438.00     71813.32
 1270.47        2966.25           2374       17160.00     74976.43
 1270.50        2966.50           2378       17385.00     75962.28
 1270.53        2966.75           2381       17228.00     75274.37
 1270.57        2967.00           2385       18522.00     80945.22
 1270.60        2967.25           2388       18481.00     80765.51
 1270.63        2967.50           2392       18046.00     78858.94
 1270.66        2967.75           2395       17912.00     78271.68
 1270.69        2968.00           2399       17404.00     76045.55
 1270.72        2968.25           2402       16619.00     72606.22
 1270.75        2968.50           2406       15518.00     67783.77
 1270.78        2968.75           2409       14958.00     65331.53
 1270.81        2969.00           2413       14220.00     62100.48
 1270.84        2969.25           2417       13045.00     56957.63
 1270.87        2969.50           2420       12426.00     54249.06
 1270.90        2969.75           2424       11224.00     48990.86
 1270.93        2970.00           2427       10547.00     46030.14
 1270.96        2970.25           2431        9459.00     41273.22
 1270.99        2970.50           2434        8515.00     37147.15
 1271.02        2970.75           2438        7610.00     33192.63
 1271.05        2971.00           2441        6587.00     28723.77
 1271.08        2971.25           2445        5483.00     23902.59
 1271.12        2971.50           2449        4328.00     18860.39
 1271.15        2971.75           2452        3547.00     15451.88
 1271.18        2972.00           2456        2482.00     10805.19
 1271.21        2972.25           2459        1806.00      7856.50
 1271.24        2972.50           2463         927.00      4023.22
 1271.27        2972.75           2466         456.00      1969.62
 1271.30        2973.00           2470         164.00       696.62
 1271.33        2973.25           2473         129.00       544.04
 1271.36        2973.50           2477          87.00       360.95
 1271.39        2973.75           2481          86.00       356.59
 1271.42        2974.00           2484          79.00       326.07
 1271.45        2974.25           2488          77.00       317.35
 1271.48        2974.50           2491          76.00       312.99
 1271.51        2974.75           2495          75.00       308.63
 1271.54        2975.00           2498          72.00       295.56
 1271.57        2975.25           2502          72.00       295.56
 1271.60        2975.50           2505          66.00       269.40
 1271.64        2975.75           2509          69.00       282.48
 1271.67        2976.00           2512          79.00       326.07
 1271.70        2976.25           2516          71.00       291.20
 1271.73        2976.50           2520          59.00       238.89
 1271.76        2976.75           2523          71.00       291.20
 1271.79        2977.00           2527          70.00       286.84
 1271.82        2977.25           2530          75.00       308.63
 1271.85        2977.50           2534          75.00       308.63
 1271.88        2977.75           2537          60.00       243.25
 1271.91        2978.00           2541          67.00       273.76
 1271.94        2978.25           2544          67.00       273.76
 1271.97        2978.50           2548          60.00       243.25
 1272.00        2978.75           2552          60.00       243.25
 1272.03        2979.00           2555          65.00       265.04
 1272.06        2979.25           2559          58.00       234.53
 1272.09        2979.50           2562          62.00       251.96
 1272.12        2979.75           2566          64.00       260.68
 1272.16        2980.00           2569          57.00       230.17
 1272.19        2980.25           2573          54.00       217.09
 1272.22        2980.50           2577          61.00       247.60
 1272.25        2980.75           2580          69.00       282.48
 1272.28        2981.00           2584          54.00       217.09
 1272.31        2981.25           2587          50.00       199.65
 1272.34        2981.50           2591          53.00       212.73
 1272.37        2981.75           2594          49.00       195.29
 1272.40        2982.00           2598          61.00       247.60
 1272.43        2982.25           2601          53.00       212.73
 1272.46        2982.50           2605          58.00       234.53
 1272.49        2982.75           2609          54.00       217.09
 1272.52        2983.00           2612          59.00       238.89
 1272.55        2983.25           2616          57.00       230.17
 1272.58        2983.50           2619          56.00       225.81
 1272.61        2983.75           2623          49.00       195.29
 1272.64        2984.00           2626          61.00       247.60
HS scan finished at 21:12:52
end
