************************************************************
  HS Scan of (1) Internal mercury lamp
************************************************************
Integration time is 0.2294 seconds per sample
dh060618Reading 51.44 .94 3.35pr1000
************************************************************
Dead Time -------------------------  3.4E-08 
Number of Cycles Used -------------  4 
Starting Wavelength (Angstroms) ---  2950 
Final Wavelength (Angstoms) -------  2984 
Wavelength Increment (Angstroms) --  .25 
Filter Wheel #1 Position ---------- (1) Ground quartz diffuser (ND=2.32)
Filter Wheel #2 Position ---------- (1) Neutral Density 0.494



************************************************************
HS scan start time = 02:34:17
Dark Count =  1.8 


Time (GMT)  Wavelength (Ang)  Step Number  Raw Counts  Counts/Second

  155.19        2950.00           2144          53.00       223.19
  155.38        2950.25           2147          63.00       266.79
  155.41        2950.50           2151          50.00       210.11
  155.44        2950.75           2155          55.00       231.91
  155.47        2951.00           2158          59.00       249.35
  155.50        2951.25           2162          55.00       231.91
  155.53        2951.50           2165          59.00       249.35
  155.56        2951.75           2169          61.00       258.07
  155.60        2952.00           2172          63.00       266.79
  155.63        2952.25           2176          57.00       240.63
  155.66        2952.50           2179          63.00       266.79
  155.69        2952.75           2183          74.00       314.74
  155.72        2953.00           2186          68.00       288.58
  155.75        2953.25           2190          61.00       258.07
  155.78        2953.50           2193          61.00       258.07
  155.81        2953.75           2197          57.00       240.63
  155.84        2954.00           2200          60.00       253.71
  155.87        2954.25           2204          61.00       258.07
  155.90        2954.50           2208          67.00       284.22
  155.93        2954.75           2211          61.00       258.07
  155.96        2955.00           2215          66.00       279.86
  156.00        2955.25           2218          63.00       266.79
  156.03        2955.50           2222          68.00       288.58
  156.06        2955.75           2225          66.00       279.86
  156.09        2956.00           2229          69.00       292.94
  156.12        2956.25           2232          66.00       279.86
  156.15        2956.50           2236          67.00       284.22
  156.18        2956.75           2239          71.00       301.66
  156.21        2957.00           2243          72.00       306.02
  156.24        2957.25           2246          66.00       279.86
  156.27        2957.50           2250          74.00       314.74
  156.30        2957.75           2254          71.00       301.66
  156.33        2958.00           2257          71.00       301.66
  156.36        2958.25           2261          84.00       358.33
  156.39        2958.50           2264          75.00       319.10
  156.42        2958.75           2268          75.00       319.10
  156.45        2959.00           2271          83.00       353.97
  156.48        2959.25           2275          77.00       327.82
  156.52        2959.50           2278          78.00       332.17
  156.55        2959.75           2282          77.00       327.82
  156.58        2960.00           2285          82.00       349.61
  156.61        2960.25           2289          78.00       332.17
  156.64        2960.50           2293          89.00       380.13
  156.67        2960.75           2296          91.00       388.85
  156.70        2961.00           2300         103.00       441.16
  156.73        2961.25           2303         194.00       837.86
  156.76        2961.50           2307         647.00      2812.82
  156.79        2961.75           2310        1215.00      5289.53
  156.82        2962.00           2314        2335.00     10174.40
  156.85        2962.25           2317        3244.00     14140.19
  156.88        2962.50           2321        4454.00     19420.84
  156.91        2962.75           2324        5433.00     23694.76
  156.94        2963.00           2328        6675.00     29118.62
  156.97        2963.25           2331        7672.00     33474.00
  157.00        2963.50           2335        8903.00     38853.39
  157.04        2963.75           2339       10061.00     43915.57
  157.07        2964.00           2342       11057.00     48270.97
  157.10        2964.25           2346       12352.00     53935.79
  157.13        2964.50           2349       13431.00     58657.42
  157.16        2964.75           2353       14854.00     64886.68
  157.19        2965.00           2356       15674.00     68477.47
  157.22        2965.25           2360       16920.00     73935.41
  157.25        2965.50           2363       17782.00     77712.47
  157.28        2965.75           2367       19252.00     84155.88
  157.31        2966.00           2370       20122.00     87970.66
  157.34        2966.25           2374       21273.00     93019.09
  157.37        2966.50           2378       21682.00     94813.44
  157.40        2966.75           2381       21544.00     94207.98
  157.43        2967.00           2385       21719.00     94975.77
  157.46        2967.25           2388       21842.00     95515.43
  157.49        2967.50           2392       22783.00     99644.78
  157.52        2967.75           2395       22548.00     98613.42
  157.55        2968.00           2399       21797.00     95317.99
  157.59        2968.25           2402       20338.00     88917.93
  157.62        2968.50           2406       18718.00     81814.88
  157.65        2968.75           2409       18052.00     78895.74
  157.68        2969.00           2413       16393.00     71626.71
  157.71        2969.25           2417       15739.00     68762.15
  157.74        2969.50           2420       14702.00     64221.16
  157.77        2969.75           2424       13820.00     60360.02
  157.80        2970.00           2427       12681.00     55375.31
  157.83        2970.25           2431       11155.00     48699.58
  157.86        2970.50           2434       10184.00     44453.37
  157.89        2970.75           2438        8760.00     38228.38
  157.92        2971.00           2441        7853.00     34264.83
  157.95        2971.25           2445        6494.00     28328.06
  157.98        2971.50           2449        5151.00     22463.53
  158.01        2971.75           2452        4295.00     18726.83
  158.04        2972.00           2456        3049.00     13289.35
  158.07        2972.25           2459        2129.00      9275.81
  158.11        2972.50           2463        1089.00      4740.08
  158.14        2972.75           2466         556.00      2416.07
  158.17        2973.00           2470         184.00       794.27
  158.20        2973.25           2473         129.00       554.50
  158.23        2973.50           2477         106.00       454.24
  158.26        2973.75           2481         102.00       436.80
  158.29        2974.00           2484          95.00       406.28
  158.32        2974.25           2488          89.00       380.13
  158.35        2974.50           2491          78.00       332.17
  158.38        2974.75           2495          85.00       362.69
  158.41        2975.00           2498          86.00       367.05
  158.44        2975.25           2502          80.00       340.89
  158.47        2975.50           2505          82.00       349.61
  158.50        2975.75           2509          76.00       323.46
  158.53        2976.00           2512          79.00       336.53
  158.56        2976.25           2516          79.00       336.53
  158.60        2976.50           2520          80.00       340.89
  158.63        2976.75           2523          70.00       297.30
  158.66        2977.00           2527          80.00       340.89
  158.69        2977.25           2530          73.00       310.38
  158.72        2977.50           2534          67.00       284.22
  158.75        2977.75           2537          72.00       306.02
  158.78        2978.00           2541          73.00       310.38
  158.81        2978.25           2544          70.00       297.30
  158.84        2978.50           2548          66.00       279.86
  158.87        2978.75           2552          68.00       288.58
  158.90        2979.00           2555          61.00       258.07
  158.93        2979.25           2559          63.00       266.79
  158.96        2979.50           2562          67.00       284.22
  158.99        2979.75           2566          67.00       284.22
  159.02        2980.00           2569          67.00       284.22
  159.05        2980.25           2573          63.00       266.79
  159.08        2980.50           2577          66.00       279.86
  159.12        2980.75           2580          65.00       275.50
  159.15        2981.00           2584          65.00       275.50
  159.18        2981.25           2587          69.00       292.94
  159.21        2981.50           2591          62.00       262.43
  159.24        2981.75           2594          63.00       266.79
  159.27        2982.00           2598          62.00       262.43
  159.30        2982.25           2601          52.00       218.83
  159.33        2982.50           2605          57.00       240.63
  159.36        2982.75           2609          61.00       258.07
  159.39        2983.00           2612          63.00       266.79
  159.42        2983.25           2616          60.00       253.71
  159.45        2983.50           2619          58.00       244.99
  159.48        2983.75           2623          61.00       258.07
  159.51        2984.00           2626          61.00       258.07
HS scan finished at 02:39:44
end
************************************************************
  HS Scan of (1) Internal mercury lamp
************************************************************
Integration time is 0.2294 seconds per sample
dh060618Reading 51.44 .94 3.82pr1000
************************************************************
Dead Time -------------------------  3.4E-08 
Number of Cycles Used -------------  4 
Starting Wavelength (Angstroms) ---  2950 
Final Wavelength (Angstoms) -------  2984 
Wavelength Increment (Angstroms) --  .25 
Filter Wheel #1 Position ---------- (1) Ground quartz diffuser (ND=2.32)
Filter Wheel #2 Position ---------- (1) Neutral Density 0.494



************************************************************
HS scan start time = 21:07:23
Dark Count =  5.6 


Time (GMT)  Wavelength (Ang)  Step Number  Raw Counts  Counts/Second

 1268.28        2950.00           2144          57.00       224.06
 1268.47        2950.25           2147          53.00       206.63
 1268.50        2950.50           2151          49.00       189.19
 1268.53        2950.75           2155          57.00       224.06
 1268.56        2951.00           2158          48.00       184.83
 1268.59        2951.25           2162          52.00       202.27
 1268.62        2951.50           2165          57.00       224.06
 1268.66        2951.75           2169          56.00       219.71
 1268.69        2952.00           2172          54.00       210.99
 1268.72        2952.25           2176          54.00       210.99
 1268.75        2952.50           2179          49.00       189.19
 1268.78        2952.75           2183          53.00       206.63
 1268.81        2953.00           2186          53.00       206.63
 1268.84        2953.25           2190          53.00       206.63
 1268.87        2953.50           2193          55.00       215.35
 1268.90        2953.75           2197          53.00       206.63
 1268.93        2954.00           2200          51.00       197.91
 1268.96        2954.25           2204          51.00       197.91
 1268.99        2954.50           2208          54.00       210.99
 1269.02        2954.75           2211          56.00       219.71
 1269.05        2955.00           2215          57.00       224.06
 1269.08        2955.25           2218          57.00       224.06
 1269.11        2955.50           2222          59.00       232.78
 1269.14        2955.75           2225          46.00       176.11
 1269.17        2956.00           2229          58.00       228.42
 1269.21        2956.25           2232          55.00       215.35
 1269.24        2956.50           2236          50.00       193.55
 1269.27        2956.75           2239          50.00       193.55
 1269.30        2957.00           2243          57.00       224.06
 1269.33        2957.25           2246          61.00       241.50
 1269.36        2957.50           2250          60.00       237.14
 1269.39        2957.75           2254          59.00       232.78
 1269.42        2958.00           2257          65.00       258.94
 1269.45        2958.25           2261          56.00       219.71
 1269.48        2958.50           2264          59.00       232.78
 1269.51        2958.75           2268          61.00       241.50
 1269.54        2959.00           2271          61.00       241.50
 1269.57        2959.25           2275          65.00       258.94
 1269.60        2959.50           2278          58.00       228.42
 1269.63        2959.75           2282          67.00       267.66
 1269.66        2960.00           2285          65.00       258.94
 1269.69        2960.25           2289          76.00       306.89
 1269.73        2960.50           2293          66.00       263.30
 1269.76        2960.75           2296          69.00       276.38
 1269.79        2961.00           2300         100.00       411.51
 1269.82        2961.25           2303         246.00      1047.99
 1269.85        2961.50           2307         766.00      3315.11
 1269.88        2961.75           2310        1322.00      5739.57
 1269.91        2962.00           2314        2188.00      9516.59
 1269.94        2962.25           2317        2778.00     12090.41
 1269.98        2962.50           2321        3775.00     16440.75
 1270.01        2962.75           2324        4515.00     19670.52
 1270.04        2963.00           2328        5566.00     24258.89
 1270.07        2963.25           2331        6302.00     27472.90
 1270.10        2963.50           2335        7272.00     31709.85
 1270.13        2963.75           2339        8333.00     36345.68
 1270.16        2964.00           2342        9255.00     40375.36
 1270.19        2964.25           2346       10047.00     43837.74
 1270.22        2964.50           2349       10842.00     47314.07
 1270.25        2964.75           2353       11809.00     51543.61
 1270.28        2965.00           2356       12476.00     54461.71
 1270.31        2965.25           2360       13598.00     59371.70
 1270.34        2965.50           2363       14314.00     62505.85
 1270.37        2965.75           2367       15299.00     66818.59
 1270.40        2966.00           2370       15930.00     69582.04
 1270.44        2966.25           2374       16728.00     73077.61
 1270.47        2966.50           2378       16998.00     74260.50
 1270.50        2966.75           2381       17100.00     74707.40
 1270.53        2967.00           2385       17068.00     74567.19
 1270.56        2967.25           2388       17230.00     75276.99
 1270.59        2967.50           2392       17186.00     75084.20
 1270.62        2967.75           2395       17015.00     74334.98
 1270.65        2968.00           2399       16619.00     72600.09
 1270.68        2968.25           2402       15961.00     69717.81
 1270.71        2968.50           2406       14937.00     65233.46
 1270.74        2968.75           2409       14217.00     62081.21
 1270.77        2969.00           2413       13190.00     57586.05
 1270.80        2969.25           2417       12075.00     52707.28
 1270.83        2969.50           2420       11333.00     49461.49
 1270.86        2969.75           2424       10205.00     44528.57
 1270.89        2970.00           2427        9574.00     41769.83
 1270.92        2970.25           2431        8615.00     37578.07
 1270.96        2970.50           2434        7684.00     33509.82
 1270.99        2970.75           2438        6711.00     29259.26
 1271.02        2971.00           2441        5897.00     25704.23
 1271.05        2971.25           2445        5077.00     22123.87
 1271.08        2971.50           2449        4094.00     17832.95
 1271.11        2971.75           2452        3288.00     14315.60
 1271.14        2972.00           2456        2267.00      9861.20
 1271.17        2972.25           2459        1603.00      6965.03
 1271.20        2972.50           2463         782.00      3384.87
 1271.23        2972.75           2466         370.00      1588.58
 1271.26        2973.00           2470         144.00       603.33
 1271.29        2973.25           2473          81.00       328.69
 1271.32        2973.50           2477          87.00       354.84
 1271.35        2973.75           2481          82.00       333.05
 1271.38        2974.00           2484          83.00       337.41
 1271.41        2974.25           2488          69.00       276.38
 1271.44        2974.50           2491          64.00       254.58
 1271.48        2974.75           2495          69.00       276.38
 1271.51        2975.00           2498          72.00       289.45
 1271.54        2975.25           2502          70.00       280.74
 1271.57        2975.50           2505          67.00       267.66
 1271.60        2975.75           2509          60.00       237.14
 1271.63        2976.00           2512          65.00       258.94
 1271.66        2976.25           2516          70.00       280.74
 1271.69        2976.50           2520          53.00       206.63
 1271.72        2976.75           2523          59.00       232.78
 1271.75        2977.00           2527          62.00       245.86
 1271.78        2977.25           2530          56.00       219.71
 1271.81        2977.50           2534          58.00       228.42
 1271.84        2977.75           2537          58.00       228.42
 1271.87        2978.00           2541          53.00       206.63
 1271.90        2978.25           2544          61.00       241.50
 1271.93        2978.50           2548          57.00       224.06
 1271.96        2978.75           2552          56.00       219.71
 1271.99        2979.00           2555          55.00       215.35
 1272.03        2979.25           2559          54.00       210.99
 1272.06        2979.50           2562          59.00       232.78
 1272.09        2979.75           2566          63.00       250.22
 1272.12        2980.00           2569          56.00       219.71
 1272.15        2980.25           2573          51.00       197.91
 1272.18        2980.50           2577          54.00       210.99
 1272.21        2980.75           2580          54.00       210.99
 1272.24        2981.00           2584          53.00       206.63
 1272.27        2981.25           2587          56.00       219.71
 1272.30        2981.50           2591          52.00       202.27
 1272.33        2981.75           2594          61.00       241.50
 1272.36        2982.00           2598          54.00       210.99
 1272.39        2982.25           2601          57.00       224.06
 1272.42        2982.50           2605          49.00       189.19
 1272.45        2982.75           2609          56.00       219.71
 1272.48        2983.00           2612          48.00       184.83
 1272.51        2983.25           2616          49.00       189.19
 1272.55        2983.50           2619          52.00       202.27
 1272.58        2983.75           2623          42.00       158.68
 1272.61        2984.00           2626          49.00       189.19
HS scan finished at 21:12:50
end
