************************************************************
  HS Scan of (1) Internal mercury lamp
************************************************************
Integration time is 0.2294 seconds per sample
dh050619Reading 51.44 .94 3.35pr1000
************************************************************
Dead Time -------------------------  3.4E-08 
Number of Cycles Used -------------  4 
Starting Wavelength (Angstroms) ---  2950 
Final Wavelength (Angstoms) -------  2984 
Wavelength Increment (Angstroms) --  .25 
Filter Wheel #1 Position ---------- (1) Ground quartz diffuser (ND=2.32)
Filter Wheel #2 Position ---------- (1) Neutral Density 0.494



************************************************************
HS scan start time = 01:14:27
Dark Count =  1.7 


Time (GMT)  Wavelength (Ang)  Step Number  Raw Counts  Counts/Second

   75.35        2950.00           2144        1354.00      5896.13
   75.54        2950.25           2147        1390.00      6053.12
   75.57        2950.50           2151        1402.00      6105.45
   75.60        2950.75           2155        1396.00      6079.29
   75.63        2951.00           2158        1418.00      6175.23
   75.66        2951.25           2162        1400.00      6096.73
   75.69        2951.50           2165        1408.00      6131.62
   75.72        2951.75           2169        1373.00      5978.98
   75.76        2952.00           2172        1380.00      6009.51
   75.79        2952.25           2176        1421.00      6188.31
   75.82        2952.50           2179        1408.00      6131.62
   75.85        2952.75           2183        1371.00      5970.26
   75.88        2953.00           2186        1429.00      6223.20
   75.91        2953.25           2190        1410.00      6140.34
   75.94        2953.50           2193        1405.00      6118.54
   75.97        2953.75           2197        1449.00      6310.42
   76.00        2954.00           2200        1489.00      6484.87
   76.03        2954.25           2204        1462.00      6367.12
   76.06        2954.50           2208        1473.00      6415.09
   76.09        2954.75           2211        1485.00      6467.42
   76.12        2955.00           2215        1488.00      6480.50
   76.15        2955.25           2218        1516.00      6602.62
   76.18        2955.50           2222        1491.00      6493.59
   76.21        2955.75           2225        1482.00      6454.34
   76.24        2956.00           2229        1530.00      6663.67
   76.28        2956.25           2232        1538.00      6698.56
   76.31        2956.50           2236        1559.00      6790.15
   76.34        2956.75           2239        1541.00      6711.64
   76.37        2957.00           2243        1551.00      6755.26
   76.40        2957.25           2246        1544.00      6724.73
   76.43        2957.50           2250        1579.00      6877.37
   76.46        2957.75           2254        1634.00      7117.24
   76.49        2958.00           2257        1601.00      6973.32
   76.52        2958.25           2261        1611.00      7016.93
   76.55        2958.50           2264        1642.00      7152.13
   76.58        2958.75           2268        1666.00      7256.80
   76.61        2959.00           2271        1673.00      7287.33
   76.64        2959.25           2275        1727.00      7522.85
   76.67        2959.50           2278        1736.00      7562.10
   76.70        2959.75           2282        1788.00      7788.90
   76.73        2960.00           2285        1794.00      7815.07
   76.76        2960.25           2289        1846.00      8041.87
   76.79        2960.50           2293        1876.00      8172.72
   76.83        2960.75           2296        1967.00      8569.63
   76.86        2961.00           2300        2443.00     10645.96
   76.89        2961.25           2303        4910.00     21411.83
   76.92        2961.50           2307       15594.00     68127.54
   76.95        2961.75           2310       28827.00    126195.50
   76.98        2962.00           2314       49854.00    218939.80
   77.01        2962.25           2317       67374.00    296666.50
   77.04        2962.50           2321       90255.00    398803.00
   77.07        2962.75           2324      108397.00    480296.20
   77.10        2963.00           2328      133830.00    595312.50
   77.13        2963.25           2331      154103.00    687648.90
   77.16        2963.50           2335      179826.00    805659.10
   77.19        2963.75           2339      204329.00    918972.50
   77.22        2964.00           2342      222352.00   1002889.00
   77.25        2964.25           2346      247411.00   1120382.00
   77.28        2964.50           2349      265733.00   1206897.00
   77.31        2964.75           2353      290606.00   1325184.00
   77.35        2965.00           2356      308682.00   1411763.00
   77.38        2965.25           2360      331008.00   1519423.00
   77.41        2965.50           2363      347953.00   1601679.00
   77.44        2965.75           2367      370748.00   1713085.00
   77.47        2966.00           2370      385905.00   1787646.00
   77.50        2966.25           2374      405670.00   1885465.00
   77.53        2966.50           2378      418019.00   1946925.00
   77.56        2966.75           2381      421357.00   1963584.00
   77.59        2967.00           2385      422133.00   1967459.00
   77.62        2967.25           2388      422236.00   1967974.00
   77.65        2967.50           2392      421996.00   1966775.00
   77.68        2967.75           2395      421048.00   1962041.00
   77.71        2968.00           2399      413296.00   1923388.00
   77.74        2968.25           2402      400288.00   1858762.00
   77.77        2968.50           2406      377800.00   1747727.00
   77.80        2968.75           2409      360155.00   1661206.00
   77.83        2969.00           2413      337174.00   1549300.00
   77.87        2969.25           2417      312196.00   1428654.00
   77.90        2969.50           2420      294432.00   1343466.00
   77.94        2969.75           2424      269427.00   1224403.00
   77.97        2970.00           2427      247950.00   1122920.00
   78.00        2970.25           2431      222243.00   1002380.00
   78.03        2970.50           2434      203444.00    914864.50
   78.06        2970.75           2438      176021.00    788142.30
   78.09        2971.00           2441      156049.00    696543.10
   78.12        2971.25           2445      133211.00    592502.30
   78.15        2971.50           2449      109307.00    484395.90
   78.18        2971.75           2452       88554.00    391185.50
   78.21        2972.00           2456       61337.00    269837.00
   78.24        2972.25           2459       42471.00    186308.50
   78.27        2972.50           2463       21219.00     92782.65
   78.30        2972.75           2466       10512.00     45888.02
   78.33        2973.00           2470        3870.00     16872.36
   78.36        2973.25           2473        2372.00     10336.24
   78.39        2973.50           2477        2015.00      8778.99
   78.42        2973.75           2481        1954.00      8512.93
   78.46        2974.00           2484        1861.00      8107.29
   78.49        2974.25           2488        1823.00      7941.55
   78.52        2974.50           2491        1860.00      8102.93
   78.55        2974.75           2495        1795.00      7819.43
   78.58        2975.00           2498        1724.00      7509.76
   78.61        2975.25           2502        1727.00      7522.85
   78.64        2975.50           2505        1707.00      7435.62
   78.67        2975.75           2509        1631.00      7104.16
   78.70        2976.00           2512        1688.00      7352.75
   78.73        2976.25           2516        1652.00      7195.75
   78.76        2976.50           2520        1652.00      7195.75
   78.79        2976.75           2523        1612.00      7021.29
   78.82        2977.00           2527        1584.00      6899.18
   78.85        2977.25           2530        1554.00      6768.34
   78.88        2977.50           2534        1576.00      6864.29
   78.91        2977.75           2537        1559.00      6790.15
   78.94        2978.00           2541        1567.00      6825.04
   78.98        2978.25           2544        1527.00      6650.59
   79.01        2978.50           2548        1527.00      6650.59
   79.04        2978.75           2552        1487.00      6476.14
   79.07        2979.00           2555        1476.00      6428.17
   79.10        2979.25           2559        1455.00      6336.59
   79.13        2979.50           2562        1409.00      6135.98
   79.16        2979.75           2566        1446.00      6297.34
   79.19        2980.00           2569        1432.00      6236.28
   79.22        2980.25           2573        1415.00      6162.15
   79.25        2980.50           2577        1416.00      6166.51
   79.28        2980.75           2580        1416.00      6166.51
   79.31        2981.00           2584        1389.00      6048.76
   79.34        2981.25           2587        1393.00      6066.20
   79.37        2981.50           2591        1388.00      6044.40
   79.40        2981.75           2594        1401.00      6101.09
   79.43        2982.00           2598        1354.00      5896.13
   79.46        2982.25           2601        1377.00      5996.43
   79.50        2982.50           2605        1330.00      5791.46
   79.53        2982.75           2609        1341.00      5839.43
   79.56        2983.00           2612        1353.00      5891.76
   79.59        2983.25           2616        1363.00      5935.37
   79.62        2983.50           2619        1386.00      6035.68
   79.65        2983.75           2623        1313.00      5717.33
   79.68        2984.00           2626        1343.00      5848.16
HS scan finished at 01:19:54
end
************************************************************
  HS Scan of (1) Internal mercury lamp
************************************************************
Integration time is 0.2294 seconds per sample
dh050619Reading 51.44 .94 3.43pr1000
************************************************************
Dead Time -------------------------  3.4E-08 
Number of Cycles Used -------------  4 
Starting Wavelength (Angstroms) ---  2950 
Final Wavelength (Angstoms) -------  2984 
Wavelength Increment (Angstroms) --  .25 
Filter Wheel #1 Position ---------- (1) Ground quartz diffuser (ND=2.32)
Filter Wheel #2 Position ---------- (1) Neutral Density 0.494



************************************************************
HS scan start time = 21:08:40
Dark Count =  1.8 


Time (GMT)  Wavelength (Ang)  Step Number  Raw Counts  Counts/Second

 1269.57        2950.00           2144        1186.00      5163.07
 1269.77        2950.25           2147        1212.00      5276.45
 1269.80        2950.50           2151        1183.00      5149.99
 1269.83        2950.75           2155        1235.00      5376.75
 1269.86        2951.00           2158        1222.00      5320.06
 1269.89        2951.25           2162        1225.00      5333.14
 1269.92        2951.50           2165        1208.00      5259.01
 1269.95        2951.75           2169        1234.00      5372.39
 1269.98        2952.00           2172        1209.00      5263.37
 1270.01        2952.25           2176        1253.00      5455.24
 1270.04        2952.50           2179        1235.00      5376.75
 1270.07        2952.75           2183        1239.00      5394.19
 1270.10        2953.00           2186        1255.00      5463.96
 1270.13        2953.25           2190        1280.00      5572.98
 1270.16        2953.50           2193        1277.00      5559.90
 1270.19        2953.75           2197        1271.00      5533.73
 1270.23        2954.00           2200        1274.00      5546.82
 1270.26        2954.25           2204        1230.00      5354.94
 1270.29        2954.50           2208        1271.00      5533.73
 1270.32        2954.75           2211        1261.00      5490.13
 1270.35        2955.00           2215        1301.00      5664.56
 1270.38        2955.25           2218        1288.00      5607.87
 1270.41        2955.50           2222        1272.00      5538.10
 1270.44        2955.75           2225        1304.00      5677.64
 1270.47        2956.00           2229        1354.00      5895.69
 1270.50        2956.25           2232        1333.00      5804.11
 1270.53        2956.50           2236        1337.00      5821.55
 1270.56        2956.75           2239        1340.00      5834.64
 1270.59        2957.00           2243        1336.00      5817.19
 1270.62        2957.25           2246        1382.00      6017.80
 1270.65        2957.50           2250        1435.00      6248.93
 1270.68        2957.75           2254        1414.00      6157.35
 1270.71        2958.00           2257        1399.00      6091.93
 1270.75        2958.25           2261        1437.00      6257.65
 1270.78        2958.50           2264        1448.00      6305.62
 1270.81        2958.75           2268        1472.00      6410.29
 1270.84        2959.00           2271        1482.00      6453.90
 1270.87        2959.25           2275        1498.00      6523.68
 1270.90        2959.50           2278        1533.00      6676.32
 1270.93        2959.75           2282        1548.00      6741.74
 1270.96        2960.00           2285        1536.00      6689.40
 1270.99        2960.25           2289        1609.00      7007.77
 1271.02        2960.50           2293        1617.00      7042.66
 1271.05        2960.75           2296        1657.00      7217.12
 1271.08        2961.00           2300        1691.00      7365.40
 1271.11        2961.25           2303        2053.00      8944.31
 1271.14        2961.50           2307        5493.00     23956.74
 1271.17        2961.75           2310       13435.00     58674.92
 1271.20        2962.00           2314       30751.00    134656.90
 1271.23        2962.25           2317       44878.00    196938.50
 1271.27        2962.50           2321       64099.00    282105.30
 1271.30        2962.75           2324       79317.00    349888.40
 1271.33        2963.00           2328      101162.00    447741.80
 1271.36        2963.25           2331      118127.00    524190.80
 1271.39        2963.50           2335      141496.00    630159.10
 1271.42        2963.75           2339      163571.00    730973.60
 1271.46        2964.00           2342      179232.00    802922.70
 1271.49        2964.25           2346      199832.00    898109.40
 1271.52        2964.50           2349      218056.00    982842.00
 1271.55        2964.75           2353      241824.00   1094103.00
 1271.58        2965.00           2356      258115.00   1170862.00
 1271.61        2965.25           2360      278372.00   1266882.00
 1271.64        2965.50           2363      293668.00   1339813.00
 1271.67        2965.75           2367      313414.00   1434513.00
 1271.70        2966.00           2370      329335.00   1511327.00
 1271.73        2966.25           2374      346834.00   1596232.00
 1271.76        2966.50           2378      359982.00   1660359.00
 1271.79        2966.75           2381      365388.00   1686810.00
 1271.82        2967.00           2385      366699.00   1693232.00
 1271.85        2967.25           2388      366650.00   1692992.00
 1271.88        2967.50           2392      367537.00   1697339.00
 1271.91        2967.75           2395      366474.00   1692130.00
 1271.94        2968.00           2399      362768.00   1673985.00
 1271.98        2968.25           2402      354201.00   1632128.00
 1272.01        2968.50           2406      335025.00   1538879.00
 1272.04        2968.75           2409      320770.00   1469952.00
 1272.07        2969.00           2413      301822.00   1378843.00
 1272.10        2969.25           2417      282026.00   1284271.00
 1272.13        2969.50           2420      267284.00   1214245.00
 1272.16        2969.75           2424      248138.00   1123805.00
 1272.19        2970.00           2427      232670.00   1051151.00
 1272.22        2970.25           2431      209560.00    943278.10
 1272.25        2970.50           2434      191984.00    861772.30
 1272.28        2970.75           2438      170069.00    760783.20
 1272.31        2971.00           2441      154672.00    690248.50
 1272.34        2971.25           2445      133083.00    591920.90
 1272.37        2971.50           2449      112558.00    499051.10
 1272.40        2971.75           2452       95783.00    423586.00
 1272.43        2972.00           2456       75490.00    332812.80
 1272.46        2972.25           2459       58752.00    258363.40
 1272.50        2972.50           2463       35329.00    154811.00
 1272.53        2972.75           2466       20327.00     88869.69
 1272.56        2973.00           2470        7312.00     31901.19
 1272.59        2973.25           2473        3480.00     15169.99
 1272.62        2973.50           2477        1972.00      8591.00
 1272.65        2973.75           2481        1711.00      7452.63
 1272.68        2974.00           2484        1696.00      7387.21
 1272.71        2974.25           2488        1622.00      7064.47
 1272.74        2974.50           2491        1607.00      6999.05
 1272.77        2974.75           2495        1585.00      6903.10
 1272.80        2975.00           2498        1585.00      6903.10
 1272.83        2975.25           2502        1521.00      6623.99
 1272.86        2975.50           2505        1538.00      6698.13
 1272.89        2975.75           2509        1475.00      6423.37
 1272.92        2976.00           2512        1482.00      6453.90
 1272.95        2976.25           2516        1453.00      6327.43
 1272.98        2976.50           2520        1433.00      6240.21
 1273.01        2976.75           2523        1436.00      6253.29
 1273.05        2977.00           2527        1410.00      6139.90
 1273.08        2977.25           2530        1404.00      6113.74
 1273.11        2977.50           2534        1338.00      5825.91
 1273.14        2977.75           2537        1378.00      6000.35
 1273.17        2978.00           2541        1317.00      5734.34
 1273.20        2978.25           2544        1333.00      5804.11
 1273.23        2978.50           2548        1324.00      5764.86
 1273.26        2978.75           2552        1305.00      5682.00
 1273.29        2979.00           2555        1309.00      5699.45
 1273.32        2979.25           2559        1322.00      5756.14
 1273.35        2979.50           2562        1296.00      5642.76
 1273.38        2979.75           2566        1281.00      5577.34
 1273.41        2980.00           2569        1267.00      5516.29
 1273.44        2980.25           2573        1243.00      5411.63
 1273.47        2980.50           2577        1262.00      5494.49
 1273.50        2980.75           2580        1244.00      5415.99
 1273.53        2981.00           2584        1285.00      5594.79
 1273.57        2981.25           2587        1202.00      5232.84
 1273.60        2981.50           2591        1215.00      5289.53
 1273.63        2981.75           2594        1200.00      5224.12
 1273.66        2982.00           2598        1183.00      5149.99
 1273.69        2982.25           2601        1185.00      5158.71
 1273.72        2982.50           2605        1204.00      5241.56
 1273.75        2982.75           2609        1192.00      5189.23
 1273.78        2983.00           2612        1168.00      5084.58
 1273.81        2983.25           2616        1186.00      5163.07
 1273.84        2983.50           2619        1183.00      5149.99
 1273.87        2983.75           2623        1190.00      5180.51
 1273.90        2984.00           2626        1139.00      4958.12
HS scan finished at 21:14:07
end
