************************************************************
  HS Scan of (1) Internal mercury lamp
************************************************************
Integration time is 0.2294 seconds per sample
dh030619Reading 51.44 .94 3.23pr1000
************************************************************
Dead Time -------------------------  3.4E-08 
Number of Cycles Used -------------  4 
Starting Wavelength (Angstroms) ---  2950 
Final Wavelength (Angstoms) -------  2984 
Wavelength Increment (Angstroms) --  .25 
Filter Wheel #1 Position ---------- (1) Ground quartz diffuser (ND=2.32)
Filter Wheel #2 Position ---------- (1) Neutral Density 0.494



************************************************************
HS scan start time = 01:10:46
Dark Count =  1.4 


Time (GMT)  Wavelength (Ang)  Step Number  Raw Counts  Counts/Second

   71.66        2950.00           2144        1415.00      6163.45
   71.85        2950.25           2147        1425.00      6207.06
   71.89        2950.50           2151        1454.00      6333.54
   71.92        2950.75           2155        1449.00      6311.73
   71.95        2951.00           2158        1425.00      6207.06
   71.98        2951.25           2162        1446.00      6298.65
   72.01        2951.50           2165        1439.00      6268.12
   72.04        2951.75           2169        1418.00      6176.54
   72.07        2952.00           2172        1476.00      6429.48
   72.10        2952.25           2176        1434.00      6246.31
   72.13        2952.50           2179        1478.00      6438.20
   72.16        2952.75           2183        1461.00      6364.06
   72.19        2953.00           2186        1471.00      6407.67
   72.22        2953.25           2190        1494.00      6507.98
   72.25        2953.50           2193        1503.00      6547.23
   72.28        2953.75           2197        1475.00      6425.12
   72.31        2954.00           2200        1502.00      6542.87
   72.34        2954.25           2204        1492.00      6499.26
   72.37        2954.50           2208        1494.00      6507.98
   72.41        2954.75           2211        1550.00      6752.20
   72.44        2955.00           2215        1570.00      6839.43
   72.47        2955.25           2218        1537.00      6695.51
   72.50        2955.50           2222        1553.00      6765.29
   72.53        2955.75           2225        1549.00      6747.84
   72.56        2956.00           2229        1565.00      6817.62
   72.59        2956.25           2232        1600.00      6970.27
   72.62        2956.50           2236        1610.00      7013.88
   72.65        2956.75           2239        1577.00      6869.96
   72.68        2957.00           2243        1622.00      7066.21
   72.71        2957.25           2246        1614.00      7031.32
   72.74        2957.50           2250        1641.00      7149.08
   72.77        2957.75           2254        1669.00      7271.20
   72.80        2958.00           2257        1723.00      7506.71
   72.83        2958.25           2261        1713.00      7463.10
   72.86        2958.50           2264        1725.00      7515.43
   72.89        2958.75           2268        1753.00      7637.55
   72.93        2959.00           2271        1764.00      7685.53
   72.96        2959.25           2275        1844.00      8034.45
   72.99        2959.50           2278        1814.00      7903.61
   73.02        2959.75           2282        1831.00      7977.75
   73.05        2960.00           2285        1820.00      7929.78
   73.08        2960.25           2289        1899.00      8274.34
   73.11        2960.50           2293        1912.00      8331.04
   73.14        2960.75           2296        1981.00      8632.00
   73.17        2961.00           2300        2319.00     10106.35
   73.20        2961.25           2303        3952.00     17231.54
   73.23        2961.50           2307       12631.00     55158.28
   73.26        2961.75           2310       24435.00    106898.70
   73.29        2962.00           2314       45100.00    197921.10
   73.32        2962.25           2317       64134.00    282262.60
   73.35        2962.50           2321       88707.00    391871.80
   73.38        2962.75           2324      107622.00    476807.00
   73.41        2963.00           2328      134475.00    598242.50
   73.45        2963.25           2331      154197.00    688079.80
   73.48        2963.50           2335      178477.00    799447.80
   73.51        2963.75           2339      201914.00    907766.40
   73.54        2964.00           2342      220409.00    993820.40
   73.57        2964.25           2346      245870.00   1113131.00
   73.60        2964.50           2349      265080.00   1203807.00
   73.63        2964.75           2353      288529.00   1315271.00
   73.66        2965.00           2356      307501.00   1406091.00
   73.69        2965.25           2360      329389.00   1511590.00
   73.72        2965.50           2363      345747.00   1590945.00
   73.75        2965.75           2367      370109.00   1709951.00
   73.78        2966.00           2370      388621.00   1801049.00
   73.81        2966.25           2374      407770.00   1895899.00
   73.84        2966.50           2378      419047.00   1952055.00
   73.87        2966.75           2381      422343.00   1968509.00
   73.90        2967.00           2385      423537.00   1974475.00
   73.93        2967.25           2388      422870.00   1971142.00
   73.97        2967.50           2392      423723.00   1975405.00
   74.00        2967.75           2395      422285.00   1968220.00
   74.03        2968.00           2399      414392.00   1928848.00
   74.06        2968.25           2402      402248.00   1868482.00
   74.09        2968.50           2406      381250.00   1764707.00
   74.12        2968.75           2409      363975.00   1679894.00
   74.15        2969.00           2413      341585.00   1570713.00
   74.18        2969.25           2417      320585.00   1469062.00
   74.21        2969.50           2420      302428.00   1381750.00
   74.24        2969.75           2424      276060.00   1255892.00
   74.27        2970.00           2427      255687.00   1159398.00
   74.30        2970.25           2431      230408.00   1040558.00
   74.33        2970.50           2434      213252.00    960459.40
   74.36        2970.75           2438      188931.00    847662.90
   74.39        2971.00           2441      167409.00    748574.80
   74.42        2971.25           2445      138125.00    614827.10
   74.45        2971.50           2449      111263.00    493213.20
   74.49        2971.75           2452       92245.00    407721.20
   74.52        2972.00           2456       67846.00    298767.60
   74.55        2972.25           2459       48828.00    214402.10
   74.58        2972.50           2463       26050.00    113992.00
   74.61        2972.75           2466       12970.00     56641.67
   74.64        2973.00           2470        4687.00     20439.66
   74.67        2973.25           2473        2664.00     11611.38
   74.70        2973.50           2477        2112.00      9203.40
   74.73        2973.75           2481        2033.00      8858.81
   74.76        2974.00           2484        1970.00      8584.02
   74.79        2974.25           2488        1893.00      8248.17
   74.82        2974.50           2491        1893.00      8248.17
   74.85        2974.75           2495        1812.00      7894.88
   74.88        2975.00           2498        1782.00      7764.04
   74.91        2975.25           2502        1832.00      7982.11
   74.94        2975.50           2505        1749.00      7620.11
   74.97        2975.75           2509        1739.00      7576.49
   75.01        2976.00           2512        1682.00      7327.89
   75.04        2976.25           2516        1723.00      7506.71
   75.07        2976.50           2520        1688.00      7354.06
   75.10        2976.75           2523        1670.00      7275.56
   75.13        2977.00           2527        1659.00      7227.58
   75.16        2977.25           2530        1626.00      7083.66
   75.19        2977.50           2534        1570.00      6839.43
   75.22        2977.75           2537        1577.00      6869.96
   75.25        2978.00           2541        1577.00      6869.96
   75.28        2978.25           2544        1595.00      6948.46
   75.31        2978.50           2548        1518.00      6612.65
   75.34        2978.75           2552        1559.00      6791.45
   75.37        2979.00           2555        1513.00      6590.84
   75.40        2979.25           2559        1481.00      6451.28
   75.43        2979.50           2562        1477.00      6433.84
   75.46        2979.75           2566        1487.00      6477.45
   75.49        2980.00           2569        1448.00      6307.37
   75.52        2980.25           2573        1511.00      6582.12
   75.56        2980.50           2577        1459.00      6355.34
   75.59        2980.75           2580        1467.00      6390.23
   75.62        2981.00           2584        1422.00      6193.98
   75.65        2981.25           2587        1431.00      6233.23
   75.68        2981.50           2591        1422.00      6193.98
   75.71        2981.75           2594        1429.00      6224.51
   75.74        2982.00           2598        1423.00      6198.34
   75.77        2982.25           2601        1414.00      6159.09
   75.80        2982.50           2605        1426.00      6211.43
   75.83        2982.75           2609        1398.00      6089.32
   75.86        2983.00           2612        1419.00      6180.90
   75.89        2983.25           2616        1375.00      5989.01
   75.92        2983.50           2619        1408.00      6132.93
   75.95        2983.75           2623        1398.00      6089.32
   75.98        2984.00           2626        1361.00      5927.96
HS scan finished at 01:16:12
end
************************************************************
  HS Scan of (1) Internal mercury lamp
************************************************************
Integration time is 0.2294 seconds per sample
dh030619Reading 51.44 .94 3.39pr1000
************************************************************
Dead Time -------------------------  3.4E-08 
Number of Cycles Used -------------  4 
Starting Wavelength (Angstroms) ---  2950 
Final Wavelength (Angstoms) -------  2984 
Wavelength Increment (Angstroms) --  .25 
Filter Wheel #1 Position ---------- (1) Ground quartz diffuser (ND=2.32)
Filter Wheel #2 Position ---------- (1) Neutral Density 0.494



************************************************************
HS scan start time = 21:09:59
Dark Count =  1.6 


Time (GMT)  Wavelength (Ang)  Step Number  Raw Counts  Counts/Second

 1270.88        2950.00           2144         982.00      4274.38
 1271.08        2950.25           2147         990.00      4309.26
 1271.11        2950.50           2151        1043.00      4540.37
 1271.14        2950.75           2155        1018.00      4431.36
 1271.17        2951.00           2158         989.00      4304.90
 1271.20        2951.25           2162        1017.00      4427.00
 1271.23        2951.50           2165        1034.00      4501.13
 1271.26        2951.75           2169        1034.00      4501.13
 1271.29        2952.00           2172        1029.00      4479.32
 1271.32        2952.25           2176        1046.00      4553.45
 1271.35        2952.50           2179        1037.00      4514.21
 1271.38        2952.75           2183        1066.00      4640.66
 1271.41        2953.00           2186        1018.00      4431.36
 1271.45        2953.25           2190        1055.00      4592.70
 1271.48        2953.50           2193        1060.00      4614.50
 1271.51        2953.75           2197        1041.00      4531.65
 1271.54        2954.00           2200        1041.00      4531.65
 1271.57        2954.25           2204        1093.00      4758.40
 1271.60        2954.50           2208        1069.00      4653.74
 1271.63        2954.75           2211        1075.00      4679.91
 1271.66        2955.00           2215        1097.00      4775.84
 1271.69        2955.25           2218        1108.00      4823.81
 1271.72        2955.50           2222        1097.00      4775.84
 1271.75        2955.75           2225        1102.00      4797.64
 1271.78        2956.00           2229        1101.00      4793.28
 1271.81        2956.25           2232        1140.00      4963.35
 1271.84        2956.50           2236        1125.00      4897.94
 1271.87        2956.75           2239        1155.00      5028.76
 1271.90        2957.00           2243        1148.00      4998.23
 1271.93        2957.25           2246        1124.00      4893.58
 1271.97        2957.50           2250        1164.00      5068.01
 1272.00        2957.75           2254        1195.00      5203.19
 1272.03        2958.00           2257        1202.00      5233.71
 1272.06        2958.25           2261        1183.00      5150.86
 1272.09        2958.50           2264        1199.00      5220.63
 1272.12        2958.75           2268        1222.00      5320.93
 1272.15        2959.00           2271        1214.00      5286.04
 1272.18        2959.25           2275        1243.00      5412.50
 1272.21        2959.50           2278        1265.00      5508.44
 1272.24        2959.75           2282        1300.00      5661.07
 1272.27        2960.00           2285        1315.00      5726.49
 1272.30        2960.25           2289        1301.00      5665.43
 1272.33        2960.50           2293        1372.00      5975.06
 1272.36        2960.75           2296        1379.00      6005.59
 1272.39        2961.00           2300        1434.00      6245.44
 1272.42        2961.25           2303        1727.00      7523.28
 1272.45        2961.50           2307        4689.00     20447.52
 1272.48        2961.75           2310       11742.00     51268.02
 1272.52        2962.00           2314       25322.00    110793.20
 1272.55        2962.25           2317       36536.00    160130.10
 1272.58        2962.50           2321       53643.00    235715.00
 1272.61        2962.75           2324       66601.00    293228.90
 1272.64        2963.00           2328       84308.00    372188.40
 1272.67        2963.25           2331       96795.00    428128.50
 1272.71        2963.50           2335      115637.00    512945.90
 1272.74        2963.75           2339      134785.00    599649.50
 1272.77        2964.00           2342      150006.00    668941.60
 1272.80        2964.25           2346      167968.00    751139.00
 1272.83        2964.50           2349      180937.00    810778.30
 1272.86        2964.75           2353      197245.00    886122.10
 1272.89        2965.00           2356      210684.00    948507.00
 1272.92        2965.25           2360      229030.00   1034107.00
 1272.95        2965.50           2363      242968.00   1099481.00
 1272.98        2965.75           2367      260133.00   1180400.00
 1273.01        2966.00           2370      271888.00   1236078.00
 1273.04        2966.25           2374      286027.00   1303336.00
 1273.07        2966.50           2378      300322.00   1371657.00
 1273.10        2966.75           2381      305630.00   1397108.00
 1273.13        2967.00           2385      308008.00   1408525.00
 1273.16        2967.25           2388      308923.00   1412921.00
 1273.19        2967.50           2392      308783.00   1412248.00
 1273.23        2967.75           2395      308546.00   1411110.00
 1273.26        2968.00           2399      305982.00   1398798.00
 1273.29        2968.25           2402      300203.00   1371086.00
 1273.32        2968.50           2406      286532.00   1305744.00
 1273.35        2968.75           2409      273980.00   1246010.00
 1273.38        2969.00           2413      255854.00   1160186.00
 1273.41        2969.25           2417      236363.00   1068465.00
 1273.44        2969.50           2420      222477.00   1003474.00
 1273.47        2969.75           2424      204719.00    920783.80
 1273.50        2970.00           2427      191427.00    859197.60
 1273.53        2970.25           2431      172238.00    770748.10
 1273.56        2970.50           2434      157601.00    703641.00
 1273.59        2970.75           2438      139008.00    618841.20
 1273.62        2971.00           2441      124705.00    553942.10
 1273.65        2971.25           2445      105882.00    468972.20
 1273.68        2971.50           2449       88284.00    389977.10
 1273.71        2971.75           2452       74317.00    327583.90
 1273.75        2972.00           2456       57554.00    253050.10
 1273.78        2972.25           2459       44374.00    194712.90
 1273.81        2972.50           2463       26112.00    114263.50
 1273.84        2972.75           2466       13645.00     59594.92
 1273.87        2973.00           2470        4459.00     19443.54
 1273.90        2973.25           2473        2255.00      9826.30
 1273.93        2973.50           2477        1540.00      6707.72
 1273.96        2973.75           2481        1444.00      6289.05
 1273.99        2974.00           2484        1441.00      6275.97
 1274.02        2974.25           2488        1410.00      6140.78
 1274.05        2974.50           2491        1357.00      5909.64
 1274.08        2974.75           2495        1330.00      5791.90
 1274.11        2975.00           2498        1309.00      5700.32
 1274.14        2975.25           2502        1268.00      5521.53
 1274.17        2975.50           2505        1296.00      5643.63
 1274.20        2975.75           2509        1234.00      5373.26
 1274.23        2976.00           2512        1228.00      5347.09
 1274.27        2976.25           2516        1238.00      5390.70
 1274.30        2976.50           2520        1205.00      5246.80
 1274.33        2976.75           2523        1193.00      5194.47
 1274.36        2977.00           2527        1159.00      5046.20
 1274.39        2977.25           2530        1185.00      5159.58
 1274.42        2977.50           2534        1155.00      5028.76
 1274.45        2977.75           2537        1161.00      5054.92
 1274.48        2978.00           2541        1132.00      4928.46
 1274.51        2978.25           2544        1134.00      4937.18
 1274.54        2978.50           2548        1098.00      4780.20
 1274.57        2978.75           2552        1063.00      4627.58
 1274.60        2979.00           2555        1116.00      4858.69
 1274.63        2979.25           2559        1061.00      4618.86
 1274.66        2979.50           2562        1070.00      4658.11
 1274.69        2979.75           2566        1089.00      4740.96
 1274.72        2980.00           2569        1055.00      4592.70
 1274.75        2980.25           2573        1062.00      4623.22
 1274.78        2980.50           2577        1044.00      4544.73
 1274.82        2980.75           2580        1030.00      4483.68
 1274.85        2981.00           2584        1052.00      4579.61
 1274.88        2981.25           2587        1014.00      4413.91
 1274.91        2981.50           2591        1062.00      4623.22
 1274.94        2981.75           2594         985.00      4287.46
 1274.97        2982.00           2598        1013.00      4409.55
 1275.00        2982.25           2601         985.00      4287.46
 1275.03        2982.50           2605        1010.00      4396.47
 1275.06        2982.75           2609        1023.00      4453.16
 1275.09        2983.00           2612         994.00      4326.70
 1275.12        2983.25           2616        1005.00      4374.67
 1275.15        2983.50           2619         989.00      4304.90
 1275.18        2983.75           2623         995.00      4331.07
 1275.22        2984.00           2626         988.00      4300.54
HS scan finished at 21:15:26
end
