************************************************************
  HS Scan of (1) Internal mercury lamp
************************************************************
Integration time is 0.2294 seconds per sample
dh310519Reading 51.44 .94 3.45pr1000
************************************************************
Dead Time -------------------------  3.4E-08 
Number of Cycles Used -------------  4 
Starting Wavelength (Angstroms) ---  2950 
Final Wavelength (Angstoms) -------  2984 
Wavelength Increment (Angstroms) --  .25 
Filter Wheel #1 Position ---------- (1) Ground quartz diffuser (ND=2.32)
Filter Wheel #2 Position ---------- (1) Neutral Density 0.494



************************************************************
HS scan start time = 01:27:28
Dark Count =  1.8 


Time (GMT)  Wavelength (Ang)  Step Number  Raw Counts  Counts/Second

   88.36        2950.00           2144        1217.00      5298.25
   88.56        2950.25           2147        1252.00      5450.88
   88.59        2950.50           2151        1237.00      5385.47
   88.62        2950.75           2155        1276.00      5555.54
   88.65        2951.00           2158        1283.00      5586.07
   88.68        2951.25           2162        1300.00      5660.20
   88.71        2951.50           2165        1309.00      5699.45
   88.74        2951.75           2169        1307.00      5690.73
   88.77        2952.00           2172        1291.00      5620.95
   88.80        2952.25           2176        1294.00      5634.03
   88.83        2952.50           2179        1317.00      5734.34
   88.86        2952.75           2183        1316.00      5729.97
   88.89        2953.00           2186        1334.00      5808.47
   88.92        2953.25           2190        1334.00      5808.47
   88.95        2953.50           2193        1315.00      5725.61
   88.98        2953.75           2197        1358.00      5913.13
   89.01        2954.00           2200        1372.00      5974.19
   89.05        2954.25           2204        1385.00      6030.88
   89.08        2954.50           2208        1399.00      6091.93
   89.11        2954.75           2211        1413.00      6152.99
   89.14        2955.00           2215        1378.00      6000.35
   89.17        2955.25           2218        1466.00      6384.12
   89.20        2955.50           2222        1449.00      6309.99
   89.23        2955.75           2225        1468.00      6392.85
   89.26        2956.00           2229        1490.00      6488.79
   89.29        2956.25           2232        1515.00      6597.82
   89.32        2956.50           2236        1500.00      6532.40
   89.35        2956.75           2239        1496.00      6514.96
   89.38        2957.00           2243        1590.00      6924.91
   89.41        2957.25           2246        1604.00      6985.97
   89.44        2957.50           2250        1582.00      6890.02
   89.47        2957.75           2254        1602.00      6977.24
   89.50        2958.00           2257        1620.00      7055.75
   89.53        2958.25           2261        1658.00      7221.48
   89.57        2958.50           2264        1624.00      7073.19
   89.60        2958.75           2268        1663.00      7243.28
   89.63        2959.00           2271        1675.00      7295.62
   89.66        2959.25           2275        1690.00      7361.04
   89.69        2959.50           2278        1772.00      7718.68
   89.72        2959.75           2282        1794.00      7814.63
   89.75        2960.00           2285        1820.00      7928.03
   89.78        2960.25           2289        1823.00      7941.11
   89.81        2960.50           2293        1887.00      8220.26
   89.84        2960.75           2296        1969.00      8577.92
   89.87        2961.00           2300        2351.00     10244.20
   89.90        2961.25           2303        3986.00     17378.18
   89.93        2961.50           2307       13694.00     59808.51
   89.96        2961.75           2310       28265.00    123724.30
   89.99        2962.00           2314       52039.00    228610.50
   90.02        2962.25           2317       70735.00    311624.40
   90.05        2962.50           2321       92908.00    410691.40
   90.09        2962.75           2324      110422.00    489420.30
   90.12        2963.00           2328      137770.00    613211.50
   90.15        2963.25           2331      159919.00    714246.90
   90.18        2963.50           2335      186246.00    835262.30
   90.21        2963.75           2339      211607.00    952800.50
   90.24        2964.00           2342      230174.00   1039461.00
   90.27        2964.25           2346      256171.00   1161681.00
   90.30        2964.50           2349      275001.00   1250859.00
   90.33        2964.75           2353      299542.00   1367919.00
   90.36        2965.00           2356      318688.00   1459913.00
   90.39        2965.25           2360      343567.00   1580342.00
   90.43        2965.50           2363      360773.00   1664226.00
   90.46        2965.75           2367      383644.00   1776498.00
   90.49        2966.00           2370      400410.00   1859367.00
   90.52        2966.25           2374      418320.00   1948426.00
   90.55        2966.50           2378      427542.00   1994502.00
   90.58        2966.75           2381      429805.00   2005831.00
   90.61        2967.00           2385      431530.00   2014473.00
   90.64        2967.25           2388      431206.00   2012850.00
   90.67        2967.50           2392      430146.00   2007539.00
   90.70        2967.75           2395      427321.00   1993396.00
   90.73        2968.00           2399      417045.00   1942067.00
   90.76        2968.25           2402      402806.00   1871248.00
   90.80        2968.50           2406      380146.00   1759269.00
   90.83        2968.75           2409      361805.00   1669274.00
   90.86        2969.00           2413      335206.00   1539757.00
   90.89        2969.25           2417      316611.00   1449905.00
   90.92        2969.50           2420      299273.00   1366631.00
   90.95        2969.75           2424      275167.00   1251647.00
   90.98        2970.00           2427      256705.00   1164202.00
   91.01        2970.25           2431      229958.00   1038450.00
   91.04        2970.50           2434      209567.00    943310.60
   91.07        2970.75           2438      182775.00    819249.50
   91.10        2971.00           2441      163327.00    729855.40
   91.13        2971.25           2445      138560.00    616803.10
   91.16        2971.50           2449      115308.00    511459.80
   91.19        2971.75           2452       97544.00    431489.90
   91.22        2972.00           2456       72537.00    319650.50
   91.25        2972.25           2459       51840.00    227729.40
   91.28        2972.50           2463       27021.00    118256.60
   91.32        2972.75           2466       12993.00     56740.58
   91.35        2973.00           2470        4406.00     19211.33
   91.38        2973.25           2473        2563.00     11169.02
   91.41        2973.50           2477        2021.00      8804.73
   91.44        2973.75           2481        1982.00      8634.62
   91.47        2974.00           2484        1891.00      8237.70
   91.50        2974.25           2488        1838.00      8006.54
   91.53        2974.50           2491        1849.00      8054.52
   91.56        2974.75           2495        1772.00      7718.68
   91.59        2975.00           2498        1776.00      7736.12
   91.62        2975.25           2502        1771.00      7714.32
   91.65        2975.50           2505        1720.00      7491.88
   91.68        2975.75           2509        1670.00      7273.81
   91.71        2976.00           2512        1679.00      7313.06
   91.74        2976.25           2516        1622.00      7064.47
   91.77        2976.50           2520        1604.00      6985.97
   91.80        2976.75           2523        1587.00      6911.83
   91.84        2977.00           2527        1573.00      6850.77
   91.87        2977.25           2530        1575.00      6859.49
   91.90        2977.50           2534        1572.00      6846.41
   91.93        2977.75           2537        1536.00      6689.40
   91.96        2978.00           2541        1533.00      6676.32
   91.99        2978.25           2544        1488.00      6480.07
   92.02        2978.50           2548        1542.00      6715.57
   92.05        2978.75           2552        1498.00      6523.68
   92.08        2979.00           2555        1486.00      6471.35
   92.11        2979.25           2559        1467.00      6388.48
   92.14        2979.50           2562        1433.00      6240.21
   92.17        2979.75           2566        1457.00      6344.87
   92.20        2980.00           2569        1473.00      6414.65
   92.23        2980.25           2573        1448.00      6305.62
   92.26        2980.50           2577        1406.00      6122.46
   92.29        2980.75           2580        1414.00      6157.35
   92.32        2981.00           2584        1397.00      6083.21
   92.36        2981.25           2587        1363.00      5934.94
   92.39        2981.50           2591        1336.00      5817.19
   92.42        2981.75           2594        1384.00      6026.52
   92.45        2982.00           2598        1347.00      5865.16
   92.48        2982.25           2601        1366.00      5948.02
   92.51        2982.50           2605        1353.00      5891.33
   92.54        2982.75           2609        1330.00      5791.03
   92.57        2983.00           2612        1367.00      5952.38
   92.60        2983.25           2616        1334.00      5808.47
   92.63        2983.50           2619        1341.00      5839.00
   92.66        2983.75           2623        1310.00      5703.81
   92.69        2984.00           2626        1286.00      5599.15
HS scan finished at 01:32:55
end
************************************************************
  HS Scan of (1) Internal mercury lamp
************************************************************
Integration time is 0.2294 seconds per sample
dh310519Reading 51.44 .94 3.52pr1000
************************************************************
Dead Time -------------------------  3.4E-08 
Number of Cycles Used -------------  4 
Starting Wavelength (Angstroms) ---  2950 
Final Wavelength (Angstoms) -------  2984 
Wavelength Increment (Angstroms) --  .25 
Filter Wheel #1 Position ---------- (1) Ground quartz diffuser (ND=2.32)
Filter Wheel #2 Position ---------- (1) Neutral Density 0.494



************************************************************
HS scan start time = 21:09:54
Dark Count =  3.1 


Time (GMT)  Wavelength (Ang)  Step Number  Raw Counts  Counts/Second

 1270.81        2950.00           2144        1340.00      5828.97
 1271.00        2950.25           2147        1335.00      5807.16
 1271.03        2950.50           2151        1358.00      5907.46
 1271.06        2950.75           2155        1350.00      5872.58
 1271.09        2951.00           2158        1359.00      5911.82
 1271.12        2951.25           2162        1365.00      5937.99
 1271.15        2951.50           2165        1377.00      5990.32
 1271.18        2951.75           2169        1352.00      5881.30
 1271.21        2952.00           2172        1419.00      6173.48
 1271.25        2952.25           2176        1376.00      5985.96
 1271.28        2952.50           2179        1394.00      6064.46
 1271.31        2952.75           2183        1402.00      6099.35
 1271.34        2953.00           2186        1391.00      6051.38
 1271.37        2953.25           2190        1386.00      6029.57
 1271.40        2953.50           2193        1414.00      6151.68
 1271.43        2953.75           2197        1409.00      6129.87
 1271.46        2954.00           2200        1454.00      6326.12
 1271.49        2954.25           2204        1441.00      6269.43
 1271.52        2954.50           2208        1439.00      6260.71
 1271.55        2954.75           2211        1440.00      6265.07
 1271.58        2955.00           2215        1490.00      6483.12
 1271.61        2955.25           2218        1462.00      6361.01
 1271.64        2955.50           2222        1442.00      6273.79
 1271.67        2955.75           2225        1485.00      6461.32
 1271.70        2956.00           2229        1476.00      6422.07
 1271.73        2956.25           2232        1462.00      6361.01
 1271.76        2956.50           2236        1497.00      6513.65
 1271.80        2956.75           2239        1503.00      6539.82
 1271.83        2957.00           2243        1487.00      6470.04
 1271.86        2957.25           2246        1629.00      7089.33
 1271.89        2957.50           2250        1602.00      6971.57
 1271.92        2957.75           2254        1602.00      6971.57
 1271.95        2958.00           2257        1598.00      6954.13
 1271.98        2958.25           2261        1627.00      7080.61
 1272.01        2958.50           2264        1599.00      6958.49
 1272.04        2958.75           2268        1655.00      7202.72
 1272.07        2959.00           2271        1647.00      7167.83
 1272.10        2959.25           2275        1693.00      7368.45
 1272.13        2959.50           2278        1721.00      7490.57
 1272.16        2959.75           2282        1725.00      7508.02
 1272.19        2960.00           2285        1738.00      7564.72
 1272.22        2960.25           2289        1762.00      7669.39
 1272.25        2960.50           2293        1873.00      8153.53
 1272.28        2960.75           2296        1869.00      8136.08
 1272.32        2961.00           2300        2061.00      8973.53
 1272.35        2961.25           2303        2748.00     11970.43
 1272.38        2961.50           2307        7993.00     34870.88
 1272.41        2961.75           2310       17782.00     77706.78
 1272.44        2962.00           2314       36738.00    161013.80
 1272.47        2962.25           2317       53635.00    235673.00
 1272.50        2962.50           2321       77820.00    343200.80
 1272.53        2962.75           2324       97719.00    432269.60
 1272.56        2963.00           2328      124437.00    552722.10
 1272.59        2963.25           2331      141649.00    630849.50
 1272.62        2963.50           2335      166721.00    745410.70
 1272.65        2963.75           2339      192283.00    863149.00
 1272.68        2964.00           2342      211687.00    953166.80
 1272.71        2964.25           2346      236004.00   1066774.00
 1272.74        2964.50           2349      253867.00   1150801.00
 1272.77        2964.75           2353      278311.00   1266586.00
 1272.80        2965.00           2356      295963.00   1350782.00
 1272.84        2965.25           2360      318527.00   1459131.00
 1272.87        2965.50           2363      335145.00   1539455.00
 1272.90        2965.75           2367      356044.00   1641116.00
 1272.93        2966.00           2370      370650.00   1712597.00
 1272.96        2966.25           2374      392761.00   1821494.00
 1272.99        2966.50           2378      407670.00   1895394.00
 1273.02        2966.75           2381      411252.00   1913206.00
 1273.05        2967.00           2385      413581.00   1924800.00
 1273.08        2967.25           2388      414811.00   1930926.00
 1273.11        2967.50           2392      413435.00   1924073.00
 1273.14        2967.75           2395      413539.00   1924591.00
 1273.17        2968.00           2399      408652.00   1900275.00
 1273.20        2968.25           2402      397485.00   1844868.00
 1273.23        2968.50           2406      379229.00   1754750.00
 1273.26        2968.75           2409      364529.00   1682598.00
 1273.29        2969.00           2413      341342.00   1569524.00
 1273.32        2969.25           2417      316532.00   1449518.00
 1273.36        2969.50           2420      298809.00   1364403.00
 1273.39        2969.75           2424      276655.00   1258712.00
 1273.42        2970.00           2427      260066.00   1180076.00
 1273.45        2970.25           2431      234953.00   1061845.00
 1273.48        2970.50           2434      216085.00    973647.80
 1273.51        2970.75           2438      191950.00    861609.10
 1273.54        2971.00           2441      173344.00    775824.50
 1273.57        2971.25           2445      146623.00    653505.40
 1273.60        2971.50           2449      120364.00    534295.40
 1273.63        2971.75           2452      100777.00    446005.70
 1273.66        2972.00           2456       75834.00    334341.00
 1273.69        2972.25           2459       57353.00    252152.10
 1273.72        2972.50           2463       34435.00    150867.40
 1273.75        2972.75           2466       19056.00     83290.90
 1273.78        2973.00           2470        6038.00     26330.89
 1273.81        2973.25           2473        2905.00     12655.40
 1273.84        2973.50           2477        2069.00      9008.43
 1273.88        2973.75           2481        1892.00      8236.39
 1273.91        2974.00           2484        1847.00      8040.12
 1273.94        2974.25           2488        1809.00      7874.38
 1273.97        2974.50           2491        1775.00      7726.09
 1274.00        2974.75           2495        1762.00      7669.39
 1274.03        2975.00           2498        1751.00      7621.42
 1274.06        2975.25           2502        1729.00      7525.47
 1274.09        2975.50           2505        1671.00      7272.50
 1274.12        2975.75           2509        1665.00      7246.34
 1274.15        2976.00           2512        1659.00      7220.17
 1274.18        2976.25           2516        1649.00      7176.56
 1274.21        2976.50           2520        1610.00      7006.47
 1274.24        2976.75           2523        1555.00      6766.60
 1274.27        2977.00           2527        1546.00      6727.35
 1274.30        2977.25           2530        1568.00      6823.29
 1274.33        2977.50           2534        1523.00      6627.04
 1274.36        2977.75           2537        1514.00      6587.79
 1274.39        2978.00           2541        1499.00      6522.37
 1274.43        2978.25           2544        1494.00      6500.57
 1274.46        2978.50           2548        1497.00      6513.65
 1274.49        2978.75           2552        1456.00      6334.84
 1274.52        2979.00           2555        1477.00      6426.43
 1274.55        2979.25           2559        1464.00      6369.73
 1274.58        2979.50           2562        1445.00      6286.87
 1274.61        2979.75           2566        1425.00      6199.65
 1274.64        2980.00           2569        1424.00      6195.29
 1274.67        2980.25           2573        1424.00      6195.29
 1274.70        2980.50           2577        1367.00      5946.71
 1274.73        2980.75           2580        1378.00      5994.68
 1274.76        2981.00           2584        1380.00      6003.41
 1274.79        2981.25           2587        1374.00      5977.24
 1274.82        2981.50           2591        1367.00      5946.71
 1274.85        2981.75           2594        1361.00      5920.55
 1274.88        2982.00           2598        1345.00      5850.77
 1274.92        2982.25           2601        1359.00      5911.82
 1274.95        2982.50           2605        1364.00      5933.63
 1274.98        2982.75           2609        1346.00      5855.13
 1275.01        2983.00           2612        1330.00      5785.36
 1275.04        2983.25           2616        1325.00      5763.55
 1275.07        2983.50           2619        1337.00      5815.88
 1275.10        2983.75           2623        1342.00      5837.69
 1275.13        2984.00           2626        1311.00      5702.50
HS scan finished at 21:15:21
end
