************************************************************
  HS Scan of (1) Internal mercury lamp
************************************************************
Integration time is 0.2294 seconds per sample
dh040619Reading 51.44 .94 3.19pr1000
************************************************************
Dead Time -------------------------  3.4E-08 
Number of Cycles Used -------------  4 
Starting Wavelength (Angstroms) ---  2950 
Final Wavelength (Angstoms) -------  2984 
Wavelength Increment (Angstroms) --  .25 
Filter Wheel #1 Position ---------- (1) Ground quartz diffuser (ND=2.32)
Filter Wheel #2 Position ---------- (1) Neutral Density 0.494



************************************************************
HS scan start time = 01:14:12
Dark Count =  1.3 


Time (GMT)  Wavelength (Ang)  Step Number  Raw Counts  Counts/Second

   75.09        2950.00           2144        1433.00      6242.39
   75.29        2950.25           2147        1471.00      6408.11
   75.32        2950.50           2151        1472.00      6412.47
   75.35        2950.75           2155        1405.00      6120.28
   75.38        2951.00           2158        1466.00      6386.30
   75.41        2951.25           2162        1443.00      6286.00
   75.44        2951.50           2165        1487.00      6477.89
   75.47        2951.75           2169        1464.00      6377.58
   75.50        2952.00           2172        1482.00      6456.08
   75.53        2952.25           2176        1461.00      6364.50
   75.56        2952.50           2179        1468.00      6395.03
   75.59        2952.75           2183        1482.00      6456.08
   75.62        2953.00           2186        1516.00      6604.36
   75.65        2953.25           2190        1529.00      6661.05
   75.68        2953.50           2193        1513.00      6591.28
   75.71        2953.75           2197        1487.00      6477.89
   75.75        2954.00           2200        1498.00      6525.86
   75.78        2954.25           2204        1511.00      6582.55
   75.81        2954.50           2208        1517.00      6608.72
   75.84        2954.75           2211        1557.00      6783.17
   75.87        2955.00           2215        1561.00      6800.61
   75.90        2955.25           2218        1566.00      6822.42
   75.93        2955.50           2222        1630.00      7101.54
   75.96        2955.75           2225        1552.00      6761.36
   75.99        2956.00           2229        1621.00      7062.29
   76.02        2956.25           2232        1610.00      7014.31
   76.05        2956.50           2236        1569.00      6835.50
   76.08        2956.75           2239        1623.00      7071.01
   76.11        2957.00           2243        1590.00      6927.09
   76.14        2957.25           2246        1653.00      7201.85
   76.17        2957.50           2250        1686.00      7345.78
   76.20        2957.75           2254        1724.00      7511.51
   76.23        2958.00           2257        1729.00      7533.32
   76.27        2958.25           2261        1695.00      7385.03
   76.30        2958.50           2264        1750.00      7624.91
   76.33        2958.75           2268        1774.00      7729.58
   76.36        2959.00           2271        1754.00      7642.35
   76.39        2959.25           2275        1762.00      7677.24
   76.42        2959.50           2278        1822.00      7938.93
   76.45        2959.75           2282        1825.00      7952.02
   76.48        2960.00           2285        1836.00      8000.00
   76.51        2960.25           2289        1900.00      8279.14
   76.54        2960.50           2293        1941.00      8457.97
   76.57        2960.75           2296        1993.00      8684.78
   76.60        2961.00           2300        2146.00      9352.15
   76.63        2961.25           2303        2761.00     12035.00
   76.66        2961.50           2307        6895.00     30081.76
   76.69        2961.75           2310       16498.00     72088.85
   76.72        2962.00           2314       37344.00    163692.70
   76.76        2962.25           2317       54642.00    240142.40
   76.79        2962.50           2321       79104.00    348939.70
   76.82        2962.75           2324       96780.00    428062.50
   76.85        2963.00           2328      120465.00    534760.20
   76.88        2963.25           2331      139708.00    622026.20
   76.91        2963.50           2335      165221.00    738539.50
   76.94        2963.75           2339      187872.00    842771.90
   76.97        2964.00           2342      206550.00    929289.40
   77.00        2964.25           2346      232210.00   1048998.00
   77.03        2964.50           2349      252266.00   1143259.00
   77.06        2964.75           2353      277986.00   1265049.00
   77.09        2965.00           2356      296058.00   1351245.00
   77.12        2965.25           2360      319644.00   1464524.00
   77.15        2965.50           2363      334861.00   1538087.00
   77.18        2965.75           2367      356097.00   1641383.00
   77.21        2966.00           2370      378916.00   1753219.00
   77.24        2966.25           2374      401133.00   1862953.00
   77.27        2966.50           2378      415554.00   1934637.00
   77.31        2966.75           2381      419527.00   1954450.00
   77.34        2967.00           2385      420886.00   1961234.00
   77.37        2967.25           2388      421309.00   1963346.00
   77.40        2967.50           2392      421498.00   1964290.00
   77.43        2967.75           2395      419446.00   1954046.00
   77.47        2968.00           2399      410934.00   1911633.00
   77.50        2968.25           2402      399137.00   1853060.00
   77.53        2968.50           2406      380316.00   1760109.00
   77.56        2968.75           2409      364008.00   1680056.00
   77.59        2969.00           2413      343283.00   1578964.00
   77.62        2969.25           2417      320264.00   1467514.00
   77.65        2969.50           2420      301744.00   1378472.00
   77.68        2969.75           2424      274184.00   1246980.00
   77.71        2970.00           2427      254640.00   1154457.00
   77.74        2970.25           2431      228714.00   1032630.00
   77.77        2970.50           2434      210460.00    947466.40
   77.80        2970.75           2438      186763.00    837651.10
   77.83        2971.00           2441      167101.00    747162.20
   77.86        2971.25           2445      141360.00    629542.40
   77.89        2971.50           2449      116400.00    516392.40
   77.92        2971.75           2452       97719.00    432277.80
   77.95        2972.00           2456       73384.00    323426.80
   77.99        2972.25           2459       54100.00    237740.90
   78.02        2972.50           2463       30805.00    134896.70
   78.05        2972.75           2466       16683.00     72899.30
   78.08        2973.00           2470        5178.00     22583.60
   78.11        2973.25           2473        2729.00     11895.39
   78.14        2973.50           2477        2113.00      9208.20
   78.17        2973.75           2481        1981.00      8632.44
   78.20        2974.00           2484        1939.00      8449.24
   78.23        2974.25           2488        1923.00      8379.46
   78.26        2974.50           2491        1888.00      8226.80
   78.29        2974.75           2495        1828.00      7965.10
   78.32        2975.00           2498        1840.00      8017.44
   78.35        2975.25           2502        1759.00      7664.16
   78.38        2975.50           2505        1765.00      7690.33
   78.41        2975.75           2509        1726.00      7520.23
   78.44        2976.00           2512        1750.00      7624.91
   78.47        2976.25           2516        1724.00      7511.51
   78.50        2976.50           2520        1693.00      7376.30
   78.54        2976.75           2523        1686.00      7345.78
   78.57        2977.00           2527        1678.00      7310.88
   78.60        2977.25           2530        1647.00      7175.68
   78.63        2977.50           2534        1645.00      7166.96
   78.66        2977.75           2537        1606.00      6996.87
   78.69        2978.00           2541        1597.00      6957.62
   78.72        2978.25           2544        1545.00      6730.83
   78.75        2978.50           2548        1585.00      6905.28
   78.78        2978.75           2552        1535.00      6687.22
   78.81        2979.00           2555        1560.00      6796.25
   78.84        2979.25           2559        1520.00      6621.80
   78.87        2979.50           2562        1526.00      6647.97
   78.90        2979.75           2566        1522.00      6630.53
   78.93        2980.00           2569        1471.00      6408.11
   78.96        2980.25           2573        1476.00      6429.91
   78.99        2980.50           2577        1516.00      6604.36
   79.02        2980.75           2580        1448.00      6307.80
   79.06        2981.00           2584        1443.00      6286.00
   79.09        2981.25           2587        1475.00      6425.55
   79.12        2981.50           2591        1436.00      6255.47
   79.15        2981.75           2594        1465.00      6381.94
   79.18        2982.00           2598        1448.00      6307.80
   79.21        2982.25           2601        1441.00      6277.28
   79.24        2982.50           2605        1435.00      6251.11
   79.27        2982.75           2609        1388.00      6046.14
   79.30        2983.00           2612        1423.00      6198.78
   79.33        2983.25           2616        1405.00      6120.28
   79.36        2983.50           2619        1393.00      6067.95
   79.39        2983.75           2623        1429.00      6224.94
   79.42        2984.00           2626        1405.00      6120.28
HS scan finished at 01:19:39
end
************************************************************
  HS Scan of (1) Internal mercury lamp
************************************************************
Integration time is 0.2294 seconds per sample
dh040619Reading 51.44 .94 3.43pr1000
************************************************************
Dead Time -------------------------  3.4E-08 
Number of Cycles Used -------------  4 
Starting Wavelength (Angstroms) ---  2950 
Final Wavelength (Angstoms) -------  2984 
Wavelength Increment (Angstroms) --  .25 
Filter Wheel #1 Position ---------- (1) Ground quartz diffuser (ND=2.32)
Filter Wheel #2 Position ---------- (1) Neutral Density 0.494



************************************************************
HS scan start time = 21:09:57
Dark Count =  2.6 


Time (GMT)  Wavelength (Ang)  Step Number  Raw Counts  Counts/Second

 1270.85        2950.00           2144        1281.00      5573.86
 1271.05        2950.25           2147        1334.00      5804.98
 1271.08        2950.50           2151        1294.00      5630.55
 1271.11        2950.75           2155        1322.00      5752.65
 1271.14        2951.00           2158        1325.00      5765.73
 1271.17        2951.25           2162        1326.00      5770.09
 1271.20        2951.50           2165        1355.00      5896.56
 1271.23        2951.75           2169        1329.00      5783.18
 1271.27        2952.00           2172        1359.00      5914.01
 1271.31        2952.25           2176        1337.00      5818.07
 1271.34        2952.50           2179        1357.00      5905.28
 1271.37        2952.75           2183        1315.00      5722.12
 1271.40        2953.00           2186        1341.00      5835.51
 1271.43        2953.25           2190        1345.00      5852.95
 1271.46        2953.50           2193        1339.00      5826.79
 1271.49        2953.75           2197        1348.00      5866.03
 1271.52        2954.00           2200        1354.00      5892.20
 1271.55        2954.25           2204        1377.00      5992.50
 1271.58        2954.50           2208        1393.00      6062.28
 1271.61        2954.75           2211        1378.00      5996.86
 1271.64        2955.00           2215        1384.00      6023.03
 1271.67        2955.25           2218        1434.00      6241.08
 1271.71        2955.50           2222        1414.00      6153.86
 1271.74        2955.75           2225        1392.00      6057.92
 1271.77        2956.00           2229        1460.00      6354.47
 1271.80        2956.25           2232        1433.00      6236.72
 1271.83        2956.50           2236        1442.00      6275.97
 1271.86        2956.75           2239        1430.00      6223.64
 1271.89        2957.00           2243        1475.00      6419.88
 1271.92        2957.25           2246        1453.00      6323.94
 1271.95        2957.50           2250        1503.00      6542.00
 1271.98        2957.75           2254        1510.00      6572.52
 1272.01        2958.00           2257        1559.00      6786.22
 1272.04        2958.25           2261        1537.00      6690.28
 1272.07        2958.50           2264        1526.00      6642.30
 1272.10        2958.75           2268        1536.00      6685.91
 1272.13        2959.00           2271        1594.00      6938.86
 1272.16        2959.25           2275        1627.00      7082.79
 1272.19        2959.50           2278        1630.00      7095.87
 1272.23        2959.75           2282        1645.00      7161.29
 1272.26        2960.00           2285        1685.00      7335.75
 1272.29        2960.25           2289        1709.00      7440.42
 1272.32        2960.50           2293        1780.00      7750.08
 1272.35        2960.75           2296        1742.00      7584.34
 1272.38        2961.00           2300        1920.00      8360.70
 1272.41        2961.25           2303        2317.00     10092.39
 1272.44        2961.50           2307        5587.00     24363.68
 1272.47        2961.75           2310       13555.00     59196.63
 1272.50        2962.00           2314       29632.00    129731.40
 1272.53        2962.25           2317       44212.00    193992.80
 1272.56        2962.50           2321       66424.00    292437.30
 1272.59        2962.75           2324       84460.00    372863.60
 1272.62        2963.00           2328      109419.00    484896.50
 1272.65        2963.25           2331      127640.00    567231.50
 1272.68        2963.50           2335      152034.00    678194.30
 1272.71        2963.75           2339      176096.00    788483.20
 1272.75        2964.00           2342      194067.00    871404.20
 1272.78        2964.25           2346      217708.00    981215.70
 1272.81        2964.50           2349      235872.00   1066157.00
 1272.84        2964.75           2353      256680.00   1164081.00
 1272.87        2965.00           2356      272487.00   1238917.00
 1272.90        2965.25           2360      295514.00   1348636.00
 1272.93        2965.50           2363      311206.00   1423889.00
 1272.96        2965.75           2367      330545.00   1517178.00
 1272.99        2966.00           2370      345179.00   1588176.00
 1273.02        2966.25           2374      366228.00   1690921.00
 1273.05        2966.50           2378      382026.00   1768522.00
 1273.08        2966.75           2381      387008.00   1793083.00
 1273.11        2967.00           2385      389372.00   1804751.00
 1273.14        2967.25           2388      388696.00   1801414.00
 1273.17        2967.50           2392      389541.00   1805586.00
 1273.20        2967.75           2395      388843.00   1802139.00
 1273.24        2968.00           2399      385195.00   1784140.00
 1273.27        2968.25           2402      375973.00   1738740.00
 1273.30        2968.50           2406      356738.00   1644507.00
 1273.33        2968.75           2409      341824.00   1571868.00
 1273.36        2969.00           2413      322505.00   1478320.00
 1273.39        2969.25           2417      303288.00   1385868.00
 1273.42        2969.50           2420      286691.00   1306497.00
 1273.45        2969.75           2424      263210.00   1194949.00
 1273.48        2970.00           2427      246448.00   1115845.00
 1273.51        2970.25           2431      220826.00    995761.00
 1273.54        2970.50           2434      204581.00    920138.40
 1273.57        2970.75           2438      183611.00    823100.90
 1273.60        2971.00           2441      165196.00    738418.90
 1273.63        2971.25           2445      139654.00    621774.70
 1273.66        2971.50           2449      116250.00    515709.20
 1273.69        2971.75           2452       97802.00    432644.60
 1273.72        2972.00           2456       71913.00    316867.10
 1273.75        2972.25           2459       54307.00    238652.30
 1273.79        2972.50           2463       32728.00    143353.50
 1273.82        2972.75           2466       17641.00     77091.08
 1273.85        2973.00           2470        5924.00     25835.24
 1273.88        2973.25           2473        3020.00     13159.33
 1273.91        2973.50           2477        1979.00      8618.04
 1273.94        2973.75           2481        1871.00      8146.98
 1273.97        2974.00           2484        1764.00      7680.30
 1274.00        2974.25           2488        1795.00      7815.50
 1274.03        2974.50           2491        1716.00      7470.95
 1274.06        2974.75           2495        1715.00      7466.59
 1274.09        2975.00           2498        1681.00      7318.30
 1274.12        2975.25           2502        1689.00      7353.19
 1274.15        2975.50           2505        1602.00      6973.76
 1274.18        2975.75           2509        1604.00      6982.48
 1274.21        2976.00           2512        1594.00      6938.86
 1274.24        2976.25           2516        1575.00      6856.00
 1274.27        2976.50           2520        1539.00      6699.00
 1274.31        2976.75           2523        1541.00      6707.72
 1274.34        2977.00           2527        1499.00      6524.55
 1274.37        2977.25           2530        1492.00      6494.02
 1274.40        2977.50           2534        1497.00      6515.83
 1274.43        2977.75           2537        1470.00      6398.08
 1274.46        2978.00           2541        1405.00      6114.61
 1274.49        2978.25           2544        1443.00      6280.33
 1274.52        2978.50           2548        1402.00      6101.53
 1274.55        2978.75           2552        1440.00      6267.25
 1274.58        2979.00           2555        1417.00      6166.94
 1274.61        2979.25           2559        1382.00      6014.31
 1274.64        2979.50           2562        1379.00      6001.23
 1274.67        2979.75           2566        1352.00      5883.48
 1274.70        2980.00           2569        1350.00      5874.76
 1274.73        2980.25           2573        1349.00      5870.40
 1274.76        2980.50           2577        1340.00      5831.15
 1274.79        2980.75           2580        1348.00      5866.03
 1274.83        2981.00           2584        1289.00      5608.74
 1274.86        2981.25           2587        1304.00      5674.16
 1274.89        2981.50           2591        1301.00      5661.07
 1274.92        2981.75           2594        1309.00      5695.96
 1274.95        2982.00           2598        1289.00      5608.74
 1274.98        2982.25           2601        1306.00      5682.88
 1275.01        2982.50           2605        1281.00      5573.86
 1275.04        2982.75           2609        1314.00      5717.76
 1275.07        2983.00           2612        1264.00      5499.72
 1275.10        2983.25           2616        1265.00      5504.08
 1275.13        2983.50           2619        1277.00      5556.41
 1275.16        2983.75           2623        1260.00      5482.28
 1275.19        2984.00           2626        1221.00      5312.21
HS scan finished at 21:15:25
end
