************************************************************
  HS Scan of (1) Internal mercury lamp
************************************************************
Integration time is 0.2294 seconds per sample
dh010619Reading 51.44 .94 3.29pr1000
************************************************************
Dead Time -------------------------  3.4E-08 
Number of Cycles Used -------------  4 
Starting Wavelength (Angstroms) ---  2950 
Final Wavelength (Angstoms) -------  2984 
Wavelength Increment (Angstroms) --  .25 
Filter Wheel #1 Position ---------- (1) Ground quartz diffuser (ND=2.32)
Filter Wheel #2 Position ---------- (1) Neutral Density 0.494



************************************************************
HS scan start time = 01:05:40
Dark Count =  1.3 


Time (GMT)  Wavelength (Ang)  Step Number  Raw Counts  Counts/Second

   66.56        2950.00           2144        1448.00      6307.80
   66.76        2950.25           2147        1428.00      6220.58
   66.79        2950.50           2151        1422.00      6194.42
   66.82        2950.75           2155        1464.00      6377.58
   66.85        2951.00           2158        1419.00      6181.33
   66.88        2951.25           2162        1435.00      6251.11
   66.91        2951.50           2165        1439.00      6268.55
   66.94        2951.75           2169        1446.00      6299.08
   66.97        2952.00           2172        1444.00      6290.36
   67.00        2952.25           2176        1421.00      6190.06
   67.03        2952.50           2179        1451.00      6320.89
   67.06        2952.75           2183        1439.00      6268.55
   67.09        2953.00           2186        1467.00      6390.67
   67.12        2953.25           2190        1498.00      6525.86
   67.15        2953.50           2193        1491.00      6495.33
   67.18        2953.75           2197        1492.00      6499.69
   67.21        2954.00           2200        1481.00      6451.72
   67.24        2954.25           2204        1519.00      6617.44
   67.28        2954.50           2208        1487.00      6477.89
   67.31        2954.75           2211        1537.00      6695.95
   67.34        2955.00           2215        1497.00      6521.50
   67.37        2955.25           2218        1544.00      6726.47
   67.40        2955.50           2222        1554.00      6770.08
   67.43        2955.75           2225        1588.00      6918.37
   67.46        2956.00           2229        1550.00      6752.64
   67.49        2956.25           2232        1560.00      6796.25
   67.52        2956.50           2236        1630.00      7101.54
   67.55        2956.75           2239        1599.00      6966.34
   67.58        2957.00           2243        1581.00      6887.84
   67.61        2957.25           2246        1644.00      7162.60
   67.64        2957.50           2250        1680.00      7319.61
   67.67        2957.75           2254        1705.00      7428.64
   67.70        2958.00           2257        1679.00      7315.25
   67.73        2958.25           2261        1706.00      7433.00
   67.76        2958.50           2264        1714.00      7467.89
   67.79        2958.75           2268        1726.00      7520.23
   67.83        2959.00           2271        1735.00      7559.48
   67.86        2959.25           2275        1779.00      7751.39
   67.89        2959.50           2278        1756.00      7651.07
   67.92        2959.75           2282        1824.00      7947.66
   67.95        2960.00           2285        1829.00      7969.47
   67.98        2960.25           2289        1942.00      8462.33
   68.01        2960.50           2293        1917.00      8353.29
   68.04        2960.75           2296        2044.00      8907.23
   68.07        2961.00           2300        2409.00     10499.39
   68.10        2961.25           2303        4330.00     18881.78
   68.13        2961.50           2307       14259.00     62283.89
   68.16        2961.75           2310       27293.00    119454.10
   68.19        2962.00           2314       48987.00    215105.80
   68.22        2962.25           2317       67380.00    296695.00
   68.25        2962.50           2321       92795.00    410187.00
   68.28        2962.75           2324      113228.00    502075.70
   68.31        2963.00           2328      140548.00    625847.50
   68.35        2963.25           2331      159827.00    713828.10
   68.38        2963.50           2335      184541.00    827396.70
   68.41        2963.75           2339      209134.00    941299.40
   68.44        2964.00           2342      229477.00   1036201.00
   68.47        2964.25           2346      257084.00   1165995.00
   68.50        2964.50           2349      274568.00   1248804.00
   68.53        2964.75           2353      298593.00   1363377.00
   68.56        2965.00           2356      316211.00   1447980.00
   68.59        2965.25           2360      335972.00   1543473.00
   68.62        2965.50           2363      354153.00   1631896.00
   68.65        2965.75           2367      378639.00   1751856.00
   68.68        2966.00           2370      395862.00   1836842.00
   68.71        2966.25           2374      415978.00   1936751.00
   68.74        2966.50           2378      425049.00   1982034.00
   68.77        2966.75           2381      426772.00   1990651.00
   68.80        2967.00           2385      428924.00   2001422.00
   68.83        2967.25           2388      428200.00   1997797.00
   68.87        2967.50           2392      428513.00   1999364.00
   68.90        2967.75           2395      426053.00   1987054.00
   68.93        2968.00           2399      415257.00   1933157.00
   68.96        2968.25           2402      400393.00   1859285.00
   68.99        2968.50           2406      379670.00   1756929.00
   69.03        2968.75           2409      363631.00   1678211.00
   69.06        2969.00           2413      342529.00   1575300.00
   69.09        2969.25           2417      318555.00   1459274.00
   69.13        2969.50           2420      300560.00   1372798.00
   69.16        2969.75           2424      274060.00   1246391.00
   69.19        2970.00           2427      254148.00   1152135.00
   69.22        2970.25           2431      228982.00   1033884.00
   69.25        2970.50           2434      211221.00    951006.80
   69.28        2970.75           2438      184587.00    827608.90
   69.31        2971.00           2441      163575.00    730994.30
   69.34        2971.25           2445      133848.00    595396.00
   69.37        2971.50           2449      106247.00    470616.50
   69.40        2971.75           2452       87190.00    385081.70
   69.43        2972.00           2456       62876.00    276673.70
   69.46        2972.25           2459       45376.00    199141.10
   69.49        2972.50           2463       23708.00    103707.20
   69.52        2972.75           2466       11230.00     49029.80
   69.55        2973.00           2470        3826.00     16682.08
   69.58        2973.25           2473        2396.00     10442.68
   69.61        2973.50           2477        2049.00      8929.04
   69.64        2973.75           2481        1941.00      8457.97
   69.68        2974.00           2484        1902.00      8287.86
   69.71        2974.25           2488        1905.00      8300.95
   69.74        2974.50           2491        1862.00      8113.40
   69.77        2974.75           2495        1835.00      7995.64
   69.80        2975.00           2498        1846.00      8043.61
   69.83        2975.25           2502        1752.00      7633.63
   69.86        2975.50           2505        1745.00      7603.10
   69.89        2975.75           2509        1722.00      7502.79
   69.92        2976.00           2512        1666.00      7258.55
   69.95        2976.25           2516        1686.00      7345.78
   69.98        2976.50           2520        1678.00      7310.88
   70.01        2976.75           2523        1641.00      7149.51
   70.04        2977.00           2527        1605.00      6992.51
   70.07        2977.25           2530        1648.00      7180.04
   70.10        2977.50           2534        1611.00      7018.68
   70.13        2977.75           2537        1582.00      6892.20
   70.17        2978.00           2541        1552.00      6761.36
   70.20        2978.25           2544        1514.00      6595.64
   70.23        2978.50           2548        1518.00      6613.08
   70.26        2978.75           2552        1527.00      6652.33
   70.29        2979.00           2555        1517.00      6608.72
   70.32        2979.25           2559        1523.00      6634.89
   70.35        2979.50           2562        1455.00      6338.33
   70.38        2979.75           2566        1468.00      6395.03
   70.41        2980.00           2569        1453.00      6329.61
   70.44        2980.25           2573        1481.00      6451.72
   70.47        2980.50           2577        1477.00      6434.28
   70.50        2980.75           2580        1449.00      6312.17
   70.53        2981.00           2584        1432.00      6238.03
   70.56        2981.25           2587        1436.00      6255.47
   70.59        2981.50           2591        1441.00      6277.28
   70.62        2981.75           2594        1398.00      6089.75
   70.65        2982.00           2598        1413.00      6155.17
   70.68        2982.25           2601        1400.00      6098.47
   70.72        2982.50           2605        1370.00      5967.64
   70.75        2982.75           2609        1395.00      6076.67
   70.78        2983.00           2612        1381.00      6015.62
   70.81        2983.25           2616        1384.00      6028.70
   70.84        2983.50           2619        1365.00      5945.84
   70.87        2983.75           2623        1430.00      6229.31
   70.90        2984.00           2626        1383.00      6024.34
HS scan finished at 01:11:07
end
************************************************************
  HS Scan of (1) Internal mercury lamp
************************************************************
Integration time is 0.2294 seconds per sample
dh010619Reading 51.44 .94 3.82pr1000
************************************************************
Dead Time -------------------------  3.4E-08 
Number of Cycles Used -------------  4 
Starting Wavelength (Angstroms) ---  2950 
Final Wavelength (Angstoms) -------  2984 
Wavelength Increment (Angstroms) --  .25 
Filter Wheel #1 Position ---------- (1) Ground quartz diffuser (ND=2.32)
Filter Wheel #2 Position ---------- (1) Neutral Density 0.494



************************************************************
HS scan start time = 21:08:37
Dark Count =  5.2 


Time (GMT)  Wavelength (Ang)  Step Number  Raw Counts  Counts/Second

 1269.51        2950.00           2144        1043.00      4524.67
 1269.70        2950.25           2147        1008.00      4372.05
 1269.73        2950.50           2151        1013.00      4393.86
 1269.76        2950.75           2155        1062.00      4607.52
 1269.79        2951.00           2158        1051.00      4559.56
 1269.82        2951.25           2162        1024.00      4441.82
 1269.85        2951.50           2165        1022.00      4433.10
 1269.88        2951.75           2169        1047.00      4542.11
 1269.91        2952.00           2172        1041.00      4515.95
 1269.95        2952.25           2176        1091.00      4733.98
 1269.98        2952.50           2179        1057.00      4585.72
 1270.01        2952.75           2183        1057.00      4585.72
 1270.04        2953.00           2186        1077.00      4672.93
 1270.07        2953.25           2190        1032.00      4476.71
 1270.10        2953.50           2193        1091.00      4733.98
 1270.13        2953.75           2197        1083.00      4699.09
 1270.16        2954.00           2200        1109.00      4812.47
 1270.19        2954.25           2204        1086.00      4712.18
 1270.22        2954.50           2208        1113.00      4829.91
 1270.25        2954.75           2211        1101.00      4777.59
 1270.28        2955.00           2215        1146.00      4973.81
 1270.31        2955.25           2218        1107.00      4803.75
 1270.34        2955.50           2222        1143.00      4960.73
 1270.37        2955.75           2225        1125.00      4882.24
 1270.40        2956.00           2229        1106.00      4799.39
 1270.43        2956.25           2232        1149.00      4986.90
 1270.47        2956.50           2236        1199.00      5204.93
 1270.50        2956.75           2239        1171.00      5082.83
 1270.53        2957.00           2243        1183.00      5135.16
 1270.56        2957.25           2246        1197.00      5196.21
 1270.59        2957.50           2250        1225.00      5318.31
 1270.62        2957.75           2254        1213.00      5265.98
 1270.65        2958.00           2257        1240.00      5383.72
 1270.68        2958.25           2261        1221.00      5300.87
 1270.71        2958.50           2264        1235.00      5361.92
 1270.74        2958.75           2268        1263.00      5484.02
 1270.77        2959.00           2271        1284.00      5575.60
 1270.80        2959.25           2275        1322.00      5741.31
 1270.83        2959.50           2278        1313.00      5702.06
 1270.86        2959.75           2282        1346.00      5845.98
 1270.89        2960.00           2285        1358.00      5898.31
 1270.92        2960.25           2289        1424.00      6186.13
 1270.95        2960.50           2293        1458.00      6334.41
 1270.98        2960.75           2296        1427.00      6199.21
 1271.02        2961.00           2300        1583.00      6879.55
 1271.05        2961.25           2303        1926.00      8375.53
 1271.08        2961.50           2307        4878.00     21256.86
 1271.11        2961.75           2310       12406.00     54157.18
 1271.14        2962.00           2314       28714.00    125683.30
 1271.17        2962.25           2317       42274.00    185423.40
 1271.20        2962.50           2321       61862.00    272152.70
 1271.23        2962.75           2324       76306.00    336436.80
 1271.26        2963.00           2328       96634.00    427389.70
 1271.29        2963.25           2331      110516.00    489828.60
 1271.32        2963.50           2335      130963.00    582285.60
 1271.35        2963.75           2339      151217.00    674452.30
 1271.38        2964.00           2342      168602.00    754032.30
 1271.41        2964.25           2346      190809.00    856324.00
 1271.44        2964.50           2349      206283.00    928030.80
 1271.47        2964.75           2353      225898.00   1019441.00
 1271.51        2965.00           2356      239203.00   1081776.00
 1271.54        2965.25           2360      256592.00   1163653.00
 1271.57        2965.50           2363      273217.00   1242370.00
 1271.60        2965.75           2367      293482.00   1338908.00
 1271.63        2966.00           2370      307374.00   1405463.00
 1271.66        2966.25           2374      324686.00   1488838.00
 1271.69        2966.50           2378      338554.00   1555978.00
 1271.72        2966.75           2381      339921.00   1562614.00
 1271.75        2967.00           2385      346258.00   1593413.00
 1271.78        2967.25           2388      346617.00   1595159.00
 1271.81        2967.50           2392      346061.00   1592454.00
 1271.84        2967.75           2395      346289.00   1593564.00
 1271.87        2968.00           2399      341065.00   1568169.00
 1271.90        2968.25           2402      331277.00   1520708.00
 1271.93        2968.50           2406      316158.00   1447707.00
 1271.96        2968.75           2409      303471.00   1386733.00
 1271.99        2969.00           2413      285528.00   1300940.00
 1272.02        2969.25           2417      264816.00   1202539.00
 1272.06        2969.50           2420      249456.00   1129996.00
 1272.09        2969.75           2424      229169.00   1034741.00
 1272.12        2970.00           2427      213735.00    962690.80
 1272.15        2970.25           2431      191124.00    857780.10
 1272.18        2970.50           2434      177840.00    796497.60
 1272.21        2970.75           2438      156289.00    697624.50
 1272.24        2971.00           2441      140170.00    624110.10
 1272.27        2971.25           2445      117495.00    521320.20
 1272.30        2971.50           2449       97153.00    429719.20
 1272.33        2971.75           2452       82368.00    363500.60
 1272.36        2972.00           2456       62931.00    276900.70
 1272.39        2972.25           2459       48320.00    212138.40
 1272.42        2972.50           2463       28338.00    124030.20
 1272.45        2972.75           2466       14833.00     64779.84
 1272.48        2973.00           2470        4590.00     19999.65
 1272.51        2973.25           2473        2423.00     10543.45
 1272.54        2973.50           2477        1649.00      7167.40
 1272.58        2973.75           2481        1512.00      6569.91
 1272.61        2974.00           2484        1436.00      6238.46
 1272.64        2974.25           2488        1449.00      6295.16
 1272.67        2974.50           2491        1393.00      6050.94
 1272.70        2974.75           2495        1360.00      5907.03
 1272.73        2975.00           2498        1357.00      5893.95
 1272.76        2975.25           2502        1318.00      5723.87
 1272.79        2975.50           2505        1297.00      5632.29
 1272.82        2975.75           2509        1277.00      5545.07
 1272.85        2976.00           2512        1283.00      5571.24
 1272.88        2976.25           2516        1252.00      5436.05
 1272.91        2976.50           2520        1260.00      5470.94
 1272.94        2976.75           2523        1227.00      5327.03
 1272.97        2977.00           2527        1198.00      5200.57
 1273.00        2977.25           2530        1212.00      5261.62
 1273.03        2977.50           2534        1225.00      5318.31
 1273.06        2977.75           2537        1181.00      5126.44
 1273.10        2978.00           2541        1160.00      5034.86
 1273.13        2978.25           2544        1185.00      5143.88
 1273.16        2978.50           2548        1106.00      4799.39
 1273.19        2978.75           2552        1141.00      4952.01
 1273.22        2979.00           2555        1115.00      4838.63
 1273.25        2979.25           2559        1130.00      4904.04
 1273.28        2979.50           2562        1088.00      4720.90
 1273.31        2979.75           2566        1115.00      4838.63
 1273.34        2980.00           2569        1118.00      4851.72
 1273.37        2980.25           2573        1062.00      4607.52
 1273.40        2980.50           2577        1115.00      4838.63
 1273.43        2980.75           2580        1080.00      4686.01
 1273.46        2981.00           2584        1090.00      4729.62
 1273.49        2981.25           2587        1082.00      4694.73
 1273.52        2981.50           2591        1077.00      4672.93
 1273.55        2981.75           2594        1092.00      4738.34
 1273.58        2982.00           2598        1060.00      4598.80
 1273.62        2982.25           2601        1026.00      4450.54
 1273.65        2982.50           2605        1073.00      4655.49
 1273.68        2982.75           2609        1010.00      4380.78
 1273.71        2983.00           2612        1048.00      4546.47
 1273.74        2983.25           2616        1023.00      4437.46
 1273.77        2983.50           2619        1000.00      4337.17
 1273.80        2983.75           2623        1036.00      4494.15
 1273.83        2984.00           2626        1037.00      4498.51
HS scan finished at 21:14:03
end
