************************************************************
  HS Scan of (1) Internal mercury lamp
************************************************************
Integration time is 0.2294 seconds per sample
dh300519Reading 51.44 .94 3.62pr1000
************************************************************
Dead Time -------------------------  3.4E-08 
Number of Cycles Used -------------  4 
Starting Wavelength (Angstroms) ---  2950 
Final Wavelength (Angstoms) -------  2984 
Wavelength Increment (Angstroms) --  .25 
Filter Wheel #1 Position ---------- (1) Ground quartz diffuser (ND=2.32)
Filter Wheel #2 Position ---------- (1) Neutral Density 0.494



************************************************************
HS scan start time = 02:33:10
Dark Count =  3.3 


Time (GMT)  Wavelength (Ang)  Step Number  Raw Counts  Counts/Second

  154.07        2950.00           2144        1095.00      4759.71
  154.26        2950.25           2147        1135.00      4934.13
  154.29        2950.50           2151        1123.00      4881.80
  154.32        2950.75           2155        1130.00      4912.33
  154.35        2951.00           2158        1160.00      5043.15
  154.39        2951.25           2162        1157.00      5030.07
  154.42        2951.50           2165        1173.00      5099.84
  154.45        2951.75           2169        1123.00      4881.80
  154.48        2952.00           2172        1139.00      4951.57
  154.51        2952.25           2176        1151.00      5003.90
  154.54        2952.50           2179        1159.00      5038.79
  154.57        2952.75           2183        1176.00      5112.92
  154.60        2953.00           2186        1191.00      5178.33
  154.63        2953.25           2190        1186.00      5156.53
  154.66        2953.50           2193        1178.00      5121.64
  154.69        2953.75           2197        1206.00      5243.74
  154.72        2954.00           2200        1204.00      5235.02
  154.75        2954.25           2204        1210.00      5261.19
  154.78        2954.50           2208        1238.00      5383.29
  154.81        2954.75           2211        1228.00      5339.68
  154.84        2955.00           2215        1214.00      5278.63
  154.87        2955.25           2218        1227.00      5335.32
  154.90        2955.50           2222        1270.00      5522.83
  154.94        2955.75           2225        1280.00      5566.44
  154.97        2956.00           2229        1269.00      5518.47
  155.00        2956.25           2232        1271.00      5527.19
  155.03        2956.50           2236        1289.00      5605.69
  155.06        2956.75           2239        1304.00      5671.10
  155.09        2957.00           2243        1338.00      5819.37
  155.12        2957.25           2246        1346.00      5854.26
  155.15        2957.50           2250        1367.00      5945.84
  155.18        2957.75           2254        1365.00      5937.12
  155.21        2958.00           2257        1395.00      6067.95
  155.24        2958.25           2261        1367.00      5945.84
  155.27        2958.50           2264        1395.00      6067.95
  155.30        2958.75           2268        1444.00      6281.64
  155.33        2959.00           2271        1431.00      6224.94
  155.36        2959.25           2275        1500.00      6525.86
  155.39        2959.50           2278        1486.00      6464.80
  155.42        2959.75           2282        1573.00      6844.23
  155.46        2960.00           2285        1598.00      6953.26
  155.49        2960.25           2289        1590.00      6918.37
  155.52        2960.50           2293        1630.00      7092.82
  155.55        2960.75           2296        1733.00      7542.04
  155.58        2961.00           2300        2289.00      9967.20
  155.61        2961.25           2303        4853.00     21156.01
  155.64        2961.50           2307       15388.00     67218.40
  155.67        2961.75           2310       28423.00    124412.30
  155.70        2962.00           2314       51183.00    224814.30
  155.73        2962.25           2317       68836.00    303164.20
  155.76        2962.50           2321       91025.00    402245.50
  155.79        2962.75           2324      108283.00    479775.50
  155.82        2963.00           2328      134142.00    596721.80
  155.85        2963.25           2331      154498.00    689446.50
  155.88        2963.50           2335      179452.00    803929.10
  155.91        2963.75           2339      202994.00    912768.60
  155.94        2964.00           2342      218847.00    986524.10
  155.98        2964.25           2346      243165.00   1100399.00
  156.01        2964.50           2349      263654.00   1197047.00
  156.04        2964.75           2353      288542.00   1315324.00
  156.07        2965.00           2356      305800.00   1397916.00
  156.10        2965.25           2360      326807.00   1499095.00
  156.13        2965.50           2363      342855.00   1576874.00
  156.16        2965.75           2367      362162.00   1671013.00
  156.19        2966.00           2370      378431.00   1750823.00
  156.22        2966.25           2374      399215.00   1853436.00
  156.25        2966.50           2378      409978.00   1906867.00
  156.28        2966.75           2381      412050.00   1917176.00
  156.31        2967.00           2385      413764.00   1925710.00
  156.34        2967.25           2388      413916.00   1926467.00
  156.37        2967.50           2392      413734.00   1925561.00
  156.40        2967.75           2395      412144.00   1917644.00
  156.43        2968.00           2399      403720.00   1875776.00
  156.46        2968.25           2402      389764.00   1806684.00
  156.50        2968.50           2406      368544.00   1702267.00
  156.53        2968.75           2409      350914.00   1616093.00
  156.56        2969.00           2413      328247.00   1506057.00
  156.59        2969.25           2417      306739.00   1402423.00
  156.62        2969.50           2420      289451.00   1319662.00
  156.65        2969.75           2424      263395.00   1195821.00
  156.68        2970.00           2427      242830.00   1098824.00
  156.71        2970.25           2431      215463.00    970748.60
  156.74        2970.50           2434      196282.00    881654.20
  156.77        2970.75           2438      171164.00    765805.60
  156.80        2971.00           2441      152419.00    679949.20
  156.83        2971.25           2445      128796.00    572467.60
  156.86        2971.50           2449      103143.00    456641.40
  156.89        2971.75           2452       83152.00    367013.00
  156.92        2972.00           2456       57504.00    252820.90
  156.95        2972.25           2459       39955.00    175197.90
  156.98        2972.50           2463       19699.00     86109.18
  157.02        2972.75           2466        9281.00     40499.06
  157.05        2973.00           2470        3410.00     14857.98
  157.08        2973.25           2473        2178.00      9483.00
  157.11        2973.50           2477        1887.00      8213.72
  157.14        2973.75           2481        1821.00      7925.85
  157.17        2974.00           2484        1767.00      7690.33
  157.20        2974.25           2488        1763.00      7672.88
  157.23        2974.50           2491        1720.00      7485.34
  157.26        2974.75           2495        1668.00      7258.55
  157.29        2975.00           2498        1664.00      7241.10
  157.32        2975.25           2502        1612.00      7014.31
  157.35        2975.50           2505        1642.00      7145.15
  157.38        2975.75           2509        1571.00      6835.50
  157.41        2976.00           2512        1592.00      6927.09
  157.44        2976.25           2516        1549.00      6739.56
  157.47        2976.50           2520        1540.00      6700.31
  157.50        2976.75           2523        1551.00      6748.28
  157.53        2977.00           2527        1548.00      6735.20
  157.57        2977.25           2530        1463.00      6364.50
  157.60        2977.50           2534        1434.00      6238.03
  157.63        2977.75           2537        1448.00      6299.08
  157.66        2978.00           2541        1479.00      6434.28
  157.69        2978.25           2544        1441.00      6268.55
  157.72        2978.50           2548        1442.00      6272.92
  157.75        2978.75           2552        1403.00      6102.84
  157.78        2979.00           2555        1379.00      5998.17
  157.81        2979.25           2559        1404.00      6107.20
  157.84        2979.50           2562        1370.00      5958.92
  157.87        2979.75           2566        1356.00      5897.87
  157.90        2980.00           2569        1361.00      5919.68
  157.93        2980.25           2573        1374.00      5976.37
  157.96        2980.50           2577        1334.00      5801.93
  157.99        2980.75           2580        1383.00      6015.62
  158.02        2981.00           2584        1290.00      5610.05
  158.05        2981.25           2587        1297.00      5640.58
  158.09        2981.50           2591        1284.00      5583.89
  158.12        2981.75           2594        1290.00      5610.05
  158.15        2982.00           2598        1320.00      5740.88
  158.18        2982.25           2601        1315.00      5719.07
  158.21        2982.50           2605        1283.00      5579.52
  158.24        2982.75           2609        1311.00      5701.63
  158.27        2983.00           2612        1302.00      5662.38
  158.30        2983.25           2616        1272.00      5531.55
  158.33        2983.50           2619        1253.00      5448.70
  158.36        2983.75           2623        1273.00      5535.92
  158.39        2984.00           2626        1247.00      5422.53
HS scan finished at 02:38:37
end
