************************************************************
  HS Scan of (1) Internal mercury lamp
************************************************************
Integration time is 0.2294 seconds per sample
dh180618Reading 51.44 .94 3.49pr1000
************************************************************
Dead Time -------------------------  3.4E-08 
Number of Cycles Used -------------  4 
Starting Wavelength (Angstroms) ---  2950 
Final Wavelength (Angstoms) -------  2984 
Wavelength Increment (Angstroms) --  .25 
Filter Wheel #1 Position ---------- (1) Ground quartz diffuser (ND=2.32)
Filter Wheel #2 Position ---------- (1) Neutral Density 0.494



************************************************************
HS scan start time = 01:17:03
Dark Count =  2 


Time (GMT)  Wavelength (Ang)  Step Number  Raw Counts  Counts/Second

   77.95        2950.00           2144          68.00       287.71
   78.14        2950.25           2147          70.00       296.43
   78.17        2950.50           2151          74.00       313.87
   78.20        2950.75           2155          64.00       270.27
   78.23        2951.00           2158          71.00       300.79
   78.27        2951.25           2162          64.00       270.27
   78.30        2951.50           2165          71.00       300.79
   78.33        2951.75           2169          70.00       296.43
   78.36        2952.00           2172          60.00       252.84
   78.39        2952.25           2176          66.00       278.99
   78.42        2952.50           2179          71.00       300.79
   78.45        2952.75           2183          69.00       292.07
   78.48        2953.00           2186          73.00       309.51
   78.51        2953.25           2190          71.00       300.79
   78.54        2953.50           2193          69.00       292.07
   78.57        2953.75           2197          68.00       287.71
   78.60        2954.00           2200          65.00       274.63
   78.63        2954.25           2204          72.00       305.15
   78.66        2954.50           2208          74.00       313.87
   78.69        2954.75           2211          75.00       318.22
   78.72        2955.00           2215          74.00       313.87
   78.75        2955.25           2218          65.00       274.63
   78.79        2955.50           2222          69.00       292.07
   78.82        2955.75           2225          68.00       287.71
   78.85        2956.00           2229          70.00       296.43
   78.88        2956.25           2232          71.00       300.79
   78.91        2956.50           2236          77.00       326.94
   78.94        2956.75           2239          75.00       318.22
   78.97        2957.00           2243          78.00       331.30
   79.00        2957.25           2246          73.00       309.51
   79.03        2957.50           2250          76.00       322.58
   79.06        2957.75           2254          80.00       340.02
   79.09        2958.00           2257          85.00       361.82
   79.12        2958.25           2261          84.00       357.46
   79.15        2958.50           2264         103.00       440.29
   79.18        2958.75           2268          84.00       357.46
   79.21        2959.00           2271          84.00       357.46
   79.24        2959.25           2275          77.00       326.94
   79.27        2959.50           2278          89.00       379.26
   79.31        2959.75           2282         107.00       457.72
   79.34        2960.00           2285          90.00       383.61
   79.37        2960.25           2289          85.00       361.82
   79.40        2960.50           2293         106.00       453.36
   79.43        2960.75           2296         138.00       592.86
   79.46        2961.00           2300         131.00       562.35
   79.49        2961.25           2303         293.00      1268.58
   79.52        2961.50           2307        1028.00      4473.22
   79.55        2961.75           2310        1866.00      8127.79
   79.58        2962.00           2314        3306.00     14409.85
   79.61        2962.25           2317        4383.00     19110.06
   79.64        2962.50           2321        5643.00     24610.82
   79.67        2962.75           2324        6570.00     28659.13
   79.70        2963.00           2328        8062.00     35177.18
   79.73        2963.25           2331        9284.00     40517.85
   79.76        2963.50           2335       10811.00     47194.24
   79.79        2963.75           2339       12195.00     53248.02
   79.83        2964.00           2342       13157.00     57457.39
   79.86        2964.25           2346       14673.00     64093.31
   79.89        2964.50           2349       15830.00     69159.81
   79.92        2964.75           2353       17389.00     75989.46
   79.95        2965.00           2356       18432.00     80560.38
   79.98        2965.25           2360       19791.00     86518.30
   80.01        2965.50           2363       20718.00     90583.69
   80.04        2965.75           2367       22024.00     96313.13
   80.07        2966.00           2370       22962.00    100429.50
   80.10        2966.25           2374       23984.00    104915.90
   80.13        2966.50           2378       25017.00    109451.90
   80.16        2966.75           2381       25186.00    110194.10
   80.19        2967.00           2385       25185.00    110189.70
   80.22        2967.25           2388       25269.00    110558.70
   80.25        2967.50           2392       25402.00    111142.80
   80.28        2967.75           2395       25059.00    109636.40
   80.31        2968.00           2399       24022.00    105082.70
   80.34        2968.25           2402       23028.00    100719.20
   80.38        2968.50           2406       21688.00     94838.89
   80.41        2968.75           2409       20671.00     90377.55
   80.44        2969.00           2413       19148.00     83699.06
   80.47        2969.25           2417       17498.00     76467.08
   80.50        2969.50           2420       16629.00     72659.66
   80.53        2969.75           2424       15196.00     66383.32
   80.56        2970.00           2427       14099.00     61580.41
   80.59        2970.25           2431       12511.00     54630.59
   80.62        2970.50           2434       11468.00     50067.73
   80.65        2970.75           2438       10130.00     44216.39
   80.68        2971.00           2441        9186.00     40089.48
   80.71        2971.25           2445        7680.00     33508.08
   80.74        2971.50           2449        6184.00     26973.29
   80.77        2971.75           2452        5089.00     22191.98
   80.80        2972.00           2456        3704.00     16146.61
   80.83        2972.25           2459        2585.00     11264.12
   80.86        2972.50           2463        1395.00      6073.62
   80.90        2972.75           2466         663.00      2881.71
   80.93        2973.00           2470         203.00       876.22
   80.96        2973.25           2473         146.00       627.74
   80.99        2973.50           2477         129.00       553.63
   81.02        2973.75           2481          97.00       414.13
   81.05        2974.00           2484         103.00       440.29
   81.08        2974.25           2488          96.00       409.77
   81.11        2974.50           2491          86.00       366.18
   81.14        2974.75           2495          94.00       401.05
   81.17        2975.00           2498          84.00       357.46
   81.20        2975.25           2502          84.00       357.46
   81.23        2975.50           2505          77.00       326.94
   81.26        2975.75           2509          84.00       357.46
   81.29        2976.00           2512          89.00       379.26
   81.32        2976.25           2516          85.00       361.82
   81.35        2976.50           2520          84.00       357.46
   81.38        2976.75           2523          80.00       340.02
   81.42        2977.00           2527          87.00       370.54
   81.45        2977.25           2530          87.00       370.54
   81.48        2977.50           2534          84.00       357.46
   81.51        2977.75           2537          79.00       335.66
   81.54        2978.00           2541          76.00       322.58
   81.57        2978.25           2544          80.00       340.02
   81.60        2978.50           2548          75.00       318.22
   81.63        2978.75           2552          70.00       296.43
   81.66        2979.00           2555          82.00       348.74
   81.69        2979.25           2559          73.00       309.51
   81.72        2979.50           2562          88.00       374.90
   81.75        2979.75           2566          75.00       318.22
   81.78        2980.00           2569          69.00       292.07
   81.81        2980.25           2573          82.00       348.74
   81.84        2980.50           2577          68.00       287.71
   81.87        2980.75           2580          63.00       265.91
   81.90        2981.00           2584          66.00       278.99
   81.94        2981.25           2587          73.00       309.51
   81.97        2981.50           2591          71.00       300.79
   82.00        2981.75           2594          68.00       287.71
   82.03        2982.00           2598          68.00       287.71
   82.06        2982.25           2601          66.00       278.99
   82.09        2982.50           2605          61.00       257.19
   82.12        2982.75           2609          65.00       274.63
   82.15        2983.00           2612          64.00       270.27
   82.18        2983.25           2616          60.00       252.84
   82.21        2983.50           2619          64.00       270.27
   82.24        2983.75           2623          62.00       261.55
   82.27        2984.00           2626          65.00       274.63
HS scan finished at 01:22:30
end
************************************************************
  HS Scan of (1) Internal mercury lamp
************************************************************
Integration time is 0.2294 seconds per sample
dh180618Reading 51.44 .94 3.74pr1000
************************************************************
Dead Time -------------------------  3.4E-08 
Number of Cycles Used -------------  4 
Starting Wavelength (Angstroms) ---  2950 
Final Wavelength (Angstoms) -------  2984 
Wavelength Increment (Angstroms) --  .25 
Filter Wheel #1 Position ---------- (1) Ground quartz diffuser (ND=2.32)
Filter Wheel #2 Position ---------- (1) Neutral Density 0.494



************************************************************
HS scan start time = 21:07:27
Dark Count =  4.2 


Time (GMT)  Wavelength (Ang)  Step Number  Raw Counts  Counts/Second

 1268.35        2950.00           2144          45.00       177.86
 1268.55        2950.25           2147          53.00       212.73
 1268.58        2950.50           2151          44.00       173.50
 1268.61        2950.75           2155          49.00       195.29
 1268.64        2951.00           2158          49.00       195.29
 1268.67        2951.25           2162          54.00       217.09
 1268.70        2951.50           2165          43.00       169.14
 1268.73        2951.75           2169          52.00       208.37
 1268.76        2952.00           2172          53.00       212.73
 1268.79        2952.25           2176          49.00       195.29
 1268.82        2952.50           2179          49.00       195.29
 1268.85        2952.75           2183          48.00       190.93
 1268.88        2953.00           2186          52.00       208.37
 1268.91        2953.25           2190          54.00       217.09
 1268.94        2953.50           2193          49.00       195.29
 1268.97        2953.75           2197          59.00       238.89
 1269.00        2954.00           2200          54.00       217.09
 1269.04        2954.25           2204          54.00       217.09
 1269.07        2954.50           2208          49.00       195.29
 1269.10        2954.75           2211          57.00       230.17
 1269.13        2955.00           2215          54.00       217.09
 1269.16        2955.25           2218          58.00       234.53
 1269.19        2955.50           2222          62.00       251.96
 1269.22        2955.75           2225          56.00       225.81
 1269.25        2956.00           2229          61.00       247.60
 1269.28        2956.25           2232          54.00       217.09
 1269.31        2956.50           2236          63.00       256.32
 1269.34        2956.75           2239          57.00       230.17
 1269.37        2957.00           2243          68.00       278.12
 1269.40        2957.25           2246          65.00       265.04
 1269.43        2957.50           2250          55.00       221.45
 1269.46        2957.75           2254          56.00       225.81
 1269.49        2958.00           2257          61.00       247.60
 1269.52        2958.25           2261          57.00       230.17
 1269.56        2958.50           2264          70.00       286.84
 1269.59        2958.75           2268          61.00       247.60
 1269.62        2959.00           2271          65.00       265.04
 1269.65        2959.25           2275          59.00       238.89
 1269.68        2959.50           2278          67.00       273.76
 1269.71        2959.75           2282          67.00       273.76
 1269.74        2960.00           2285          65.00       265.04
 1269.77        2960.25           2289          67.00       273.76
 1269.80        2960.50           2293          65.00       265.04
 1269.83        2960.75           2296          67.00       273.76
 1269.86        2961.00           2300          91.00       378.38
 1269.89        2961.25           2303         208.00       888.43
 1269.92        2961.50           2307         806.00      3495.62
 1269.95        2961.75           2310        1430.00      6216.66
 1269.98        2962.00           2314        2354.00     10246.81
 1270.01        2962.25           2317        3060.00     13326.88
 1270.04        2962.50           2321        4063.00     17703.77
 1270.08        2962.75           2324        4697.00     20471.09
 1270.11        2963.00           2328        5724.00     24954.90
 1270.14        2963.25           2331        6651.00     29003.30
 1270.17        2963.50           2335        7681.00     33502.83
 1270.20        2963.75           2339        8748.00     38165.45
 1270.23        2964.00           2342        9479.00     41360.65
 1270.26        2964.25           2346       10496.00     45807.12
 1270.29        2964.50           2349       11340.00     49498.23
 1270.32        2964.75           2353       12533.00     54717.23
 1270.35        2965.00           2356       13362.00     58344.92
 1270.38        2965.25           2360       14548.00     63536.41
 1270.41        2965.50           2363       14979.00     65423.48
 1270.44        2965.75           2367       15970.00     69763.37
 1270.47        2966.00           2370       16678.00     72864.70
 1270.50        2966.25           2374       17430.00     76159.47
 1270.53        2966.50           2378       18073.00     78977.28
 1270.56        2966.75           2381       18100.00     79095.60
 1270.60        2967.00           2385       18390.00     80366.65
 1270.63        2967.25           2388       18326.00     80086.13
 1270.66        2967.50           2392       18537.00     81010.98
 1270.69        2967.75           2395       18416.00     80480.61
 1270.72        2968.00           2399       17602.00     76913.16
 1270.75        2968.25           2402       16985.00     74209.68
 1270.78        2968.50           2406       16056.00     70140.05
 1270.81        2968.75           2409       15157.00     66202.90
 1270.84        2969.00           2413       14158.00     61829.06
 1270.87        2969.25           2417       13011.00     56808.83
 1270.90        2969.50           2420       12281.00     53614.65
 1270.93        2969.75           2424       11226.00     48999.62
 1270.96        2970.00           2427       10365.00     45234.29
 1270.99        2970.25           2431        9257.00     40390.22
 1271.02        2970.50           2434        8381.00     36561.55
 1271.05        2970.75           2438        7195.00     31379.59
 1271.08        2971.00           2441        6391.00     27867.72
 1271.12        2971.25           2445        5344.00     23295.69
 1271.15        2971.50           2449        4383.00     19100.45
 1271.18        2971.75           2452        3556.00     15491.16
 1271.21        2972.00           2456        2416.00     10517.27
 1271.24        2972.25           2459        1699.00      7389.83
 1271.27        2972.50           2463         811.00      3517.42
 1271.30        2972.75           2466         389.00      1677.51
 1271.33        2973.00           2470         161.00       683.54
 1271.36        2973.25           2473          96.00       400.18
 1271.39        2973.50           2477          86.00       356.59
 1271.42        2973.75           2481          74.00       304.28
 1271.45        2974.00           2484          78.00       321.71
 1271.48        2974.25           2488          75.00       308.63
 1271.51        2974.50           2491          73.00       299.92
 1271.54        2974.75           2495          67.00       273.76
 1271.57        2975.00           2498          64.00       260.68
 1271.60        2975.25           2502          67.00       273.76
 1271.64        2975.50           2505          64.00       260.68
 1271.67        2975.75           2509          61.00       247.60
 1271.70        2976.00           2512          65.00       265.04
 1271.73        2976.25           2516          68.00       278.12
 1271.76        2976.50           2520          57.00       230.17
 1271.79        2976.75           2523          64.00       260.68
 1271.82        2977.00           2527          53.00       212.73
 1271.85        2977.25           2530          58.00       234.53
 1271.88        2977.50           2534          58.00       234.53
 1271.91        2977.75           2537          55.00       221.45
 1271.95        2978.00           2541          56.00       225.81
 1271.99        2978.25           2544          53.00       212.73
 1272.02        2978.50           2548          57.00       230.17
 1272.05        2978.75           2552          55.00       221.45
 1272.08        2979.00           2555          51.00       204.01
 1272.11        2979.25           2559          56.00       225.81
 1272.14        2979.50           2562          57.00       230.17
 1272.17        2979.75           2566          54.00       217.09
 1272.20        2980.00           2569          54.00       217.09
 1272.23        2980.25           2573          57.00       230.17
 1272.26        2980.50           2577          52.00       208.37
 1272.29        2980.75           2580          47.00       186.57
 1272.32        2981.00           2584          48.00       190.93
 1272.35        2981.25           2587          48.00       190.93
 1272.38        2981.50           2591          57.00       230.17
 1272.42        2981.75           2594          54.00       217.09
 1272.45        2982.00           2598          48.00       190.93
 1272.48        2982.25           2601          49.00       195.29
 1272.51        2982.50           2605          51.00       204.01
 1272.54        2982.75           2609          49.00       195.29
 1272.57        2983.00           2612          47.00       186.57
 1272.60        2983.25           2616          48.00       190.93
 1272.63        2983.50           2619          51.00       204.01
 1272.66        2983.75           2623          44.00       173.50
 1272.69        2984.00           2626          49.00       195.29
HS scan finished at 21:12:55
end
