************************************************************
  HS Scan of (1) Internal mercury lamp
************************************************************
Integration time is 0.2294 seconds per sample
dh090619Reading 51.44 .94 3.03pr1000
************************************************************
Dead Time -------------------------  3.4E-08 
Number of Cycles Used -------------  4 
Starting Wavelength (Angstroms) ---  2950 
Final Wavelength (Angstoms) -------  2984 
Wavelength Increment (Angstroms) --  .25 
Filter Wheel #1 Position ---------- (1) Ground quartz diffuser (ND=2.32)
Filter Wheel #2 Position ---------- (1) Neutral Density 0.494



************************************************************
HS scan start time = 01:08:19
Dark Count =  .8 


Time (GMT)  Wavelength (Ang)  Step Number  Raw Counts  Counts/Second

   69.21        2950.00           2144        1450.00      6318.71
   69.40        2950.25           2147        1477.00      6436.46
   69.43        2950.50           2151        1510.00      6580.37
   69.46        2950.75           2155        1502.00      6545.48
   69.49        2951.00           2158        1532.00      6676.32
   69.52        2951.25           2162        1502.00      6545.48
   69.55        2951.50           2165        1497.00      6523.68
   69.59        2951.75           2169        1479.00      6445.18
   69.62        2952.00           2172        1459.00      6357.96
   69.65        2952.25           2176        1493.00      6506.23
   69.68        2952.50           2179        1516.00      6606.54
   69.71        2952.75           2183        1506.00      6562.93
   69.74        2953.00           2186        1509.00      6576.01
   69.77        2953.25           2190        1483.00      6462.62
   69.80        2953.50           2193        1574.00      6859.49
   69.83        2953.75           2197        1536.00      6693.76
   69.86        2954.00           2200        1531.00      6671.96
   69.89        2954.25           2204        1538.00      6702.49
   69.92        2954.50           2208        1572.00      6850.77
   69.95        2954.75           2211        1591.00      6933.63
   69.98        2955.00           2215        1586.00      6911.83
   70.01        2955.25           2218        1575.00      6863.85
   70.04        2955.50           2222        1651.00      7195.31
   70.08        2955.75           2225        1594.00      6946.72
   70.11        2956.00           2229        1620.00      7060.11
   70.14        2956.25           2232        1618.00      7051.39
   70.17        2956.50           2236        1674.00      7295.62
   70.20        2956.75           2239        1633.00      7116.80
   70.23        2957.00           2243        1675.00      7299.98
   70.26        2957.25           2246        1672.00      7286.90
   70.29        2957.50           2250        1683.00      7334.87
   70.32        2957.75           2254        1741.00      7587.83
   70.35        2958.00           2257        1705.00      7430.82
   70.38        2958.25           2261        1761.00      7675.06
   70.41        2958.50           2264        1742.00      7592.20
   70.44        2958.75           2268        1790.00      7801.55
   70.47        2959.00           2271        1768.00      7705.59
   70.50        2959.25           2275        1817.00      7919.31
   70.53        2959.50           2278        1847.00      8050.15
   70.56        2959.75           2282        1890.00      8237.70
   70.60        2960.00           2285        1879.00      8189.73
   70.63        2960.25           2289        1906.00      8307.49
   70.66        2960.50           2293        1959.00      8538.66
   70.69        2960.75           2296        2012.00      8769.83
   70.72        2961.00           2300        2192.00      9554.98
   70.75        2961.25           2303        3199.00     13948.20
   70.78        2961.50           2307        9641.00     42083.71
   70.81        2961.75           2310       20715.00     90575.80
   70.84        2962.00           2314       41827.00    183469.60
   70.87        2962.25           2317       59037.00    259632.30
   70.90        2962.50           2321       80656.00    355872.00
   70.93        2962.75           2324       95127.00    420647.30
   70.96        2963.00           2328      118375.00    525315.90
   70.99        2963.25           2331      138877.00    618249.10
   71.02        2963.50           2335      165054.00    737776.10
   71.05        2963.75           2339      190830.00    856441.40
   71.08        2964.00           2342      209828.00    944529.00
   71.11        2964.25           2346      233787.00   1056390.00
   71.15        2964.50           2349      252015.00   1142078.00
   71.18        2964.75           2353      276215.00   1256632.00
   71.21        2965.00           2356      294708.00   1344790.00
   71.24        2965.25           2360      317104.00   1452284.00
   71.27        2965.50           2363      333744.00   1532677.00
   71.30        2965.75           2367      353651.00   1629450.00
   71.33        2966.00           2370      369802.00   1708448.00
   71.36        2966.25           2374      391609.00   1815811.00
   71.39        2966.50           2378      406582.00   1889999.00
   71.42        2966.75           2381      411975.00   1916816.00
   71.45        2967.00           2385      414214.00   1927964.00
   71.48        2967.25           2388      414808.00   1930923.00
   71.51        2967.50           2392      413554.00   1924677.00
   71.54        2967.75           2395      412889.00   1921365.00
   71.57        2968.00           2399      407296.00   1893547.00
   71.60        2968.25           2402      396344.00   1839230.00
   71.63        2968.50           2406      376192.00   1739825.00
   71.67        2968.75           2409      358894.00   1655047.00
   71.70        2969.00           2413      335025.00   1538884.00
   71.73        2969.25           2417      311810.00   1426802.00
   71.76        2969.50           2420      295716.00   1349611.00
   71.79        2969.75           2424      272275.00   1237919.00
   71.82        2970.00           2427      251851.00   1141304.00
   71.85        2970.25           2431      223443.00   1007989.00
   71.88        2970.50           2434      204514.00    919835.70
   71.91        2970.75           2438      179911.00    806054.80
   71.94        2971.00           2441      162017.00    723858.30
   71.97        2971.25           2445      138402.00    616089.30
   72.00        2971.50           2449      114286.00    506851.60
   72.03        2971.75           2452       95443.00    422065.00
   72.06        2972.00           2456       70346.00    309896.80
   72.09        2972.25           2459       52488.00    230603.10
   72.12        2972.50           2463       29311.00    128327.70
   72.16        2972.75           2466       15034.00     65679.20
   72.19        2973.00           2470        5018.00     21887.25
   72.22        2973.25           2473        2879.00     12552.00
   72.25        2973.50           2477        2165.00      9437.20
   72.28        2973.75           2481        2051.00      8939.94
   72.31        2974.00           2484        1975.00      8608.45
   72.34        2974.25           2488        1963.00      8556.11
   72.37        2974.50           2491        1882.00      8202.81
   72.40        2974.75           2495        1883.00      8207.17
   72.43        2975.00           2498        1839.00      8015.26
   72.46        2975.25           2502        1823.00      7945.48
   72.49        2975.50           2505        1842.00      8028.35
   72.52        2975.75           2509        1793.00      7814.63
   72.55        2976.00           2512        1743.00      7596.56
   72.58        2976.25           2516        1757.00      7657.62
   72.61        2976.50           2520        1694.00      7382.85
   72.64        2976.75           2523        1684.00      7339.23
   72.67        2977.00           2527        1672.00      7286.90
   72.71        2977.25           2530        1668.00      7269.45
   72.74        2977.50           2534        1632.00      7112.44
   72.77        2977.75           2537        1665.00      7256.37
   72.80        2978.00           2541        1604.00      6990.33
   72.83        2978.25           2544        1606.00      6999.05
   72.86        2978.50           2548        1586.00      6911.83
   72.89        2978.75           2552        1593.00      6942.35
   72.92        2979.00           2555        1559.00      6794.07
   72.95        2979.25           2559        1544.00      6728.65
   72.98        2979.50           2562        1561.00      6802.79
   73.01        2979.75           2566        1543.00      6724.29
   73.04        2980.00           2569        1541.00      6715.57
   73.07        2980.25           2573        1514.00      6597.82
   73.10        2980.50           2577        1529.00      6663.24
   73.13        2980.75           2580        1484.00      6466.98
   73.16        2981.00           2584        1488.00      6484.43
   73.19        2981.25           2587        1498.00      6528.04
   73.23        2981.50           2591        1459.00      6357.96
   73.26        2981.75           2594        1472.00      6414.65
   73.29        2982.00           2598        1459.00      6357.96
   73.32        2982.25           2601        1481.00      6453.90
   73.35        2982.50           2605        1471.00      6410.29
   73.38        2982.75           2609        1452.00      6327.43
   73.41        2983.00           2612        1461.00      6366.68
   73.44        2983.25           2616        1442.00      6283.82
   73.47        2983.50           2619        1444.00      6292.54
   73.50        2983.75           2623        1440.00      6275.10
   73.53        2984.00           2626        1461.00      6366.68
HS scan finished at 01:13:45
end
************************************************************
  HS Scan of (1) Internal mercury lamp
************************************************************
Integration time is 0.2294 seconds per sample
dh090619Reading 51.44 .94 3.39pr1000
************************************************************
Dead Time -------------------------  3.4E-08 
Number of Cycles Used -------------  4 
Starting Wavelength (Angstroms) ---  2950 
Final Wavelength (Angstoms) -------  2984 
Wavelength Increment (Angstroms) --  .25 
Filter Wheel #1 Position ---------- (1) Ground quartz diffuser (ND=2.32)
Filter Wheel #2 Position ---------- (1) Neutral Density 0.494



************************************************************
HS scan start time = 21:08:43
Dark Count =  2.2 


Time (GMT)  Wavelength (Ang)  Step Number  Raw Counts  Counts/Second

 1269.62        2950.00           2144        1189.00      5174.41
 1269.81        2950.25           2147        1200.00      5222.38
 1269.84        2950.50           2151        1189.00      5174.41
 1269.87        2950.75           2155        1198.00      5213.65
 1269.90        2951.00           2158        1226.00      5335.75
 1269.93        2951.25           2162        1194.00      5196.21
 1269.97        2951.50           2165        1190.00      5178.77
 1270.00        2951.75           2169        1198.00      5213.65
 1270.03        2952.00           2172        1235.00      5375.00
 1270.06        2952.25           2176        1196.00      5204.93
 1270.09        2952.50           2179        1226.00      5335.75
 1270.12        2952.75           2183        1212.00      5274.70
 1270.15        2953.00           2186        1223.00      5322.67
 1270.18        2953.25           2190        1255.00      5462.22
 1270.21        2953.50           2193        1269.00      5523.27
 1270.24        2953.75           2197        1233.00      5366.28
 1270.27        2954.00           2200        1256.00      5466.58
 1270.30        2954.25           2204        1286.00      5597.40
 1270.33        2954.50           2208        1274.00      5545.07
 1270.36        2954.75           2211        1247.00      5427.33
 1270.39        2955.00           2215        1272.00      5536.35
 1270.42        2955.25           2218        1289.00      5610.49
 1270.45        2955.50           2222        1303.00      5671.54
 1270.49        2955.75           2225        1317.00      5732.59
 1270.52        2956.00           2229        1358.00      5911.39
 1270.55        2956.25           2232        1328.00      5780.56
 1270.58        2956.50           2236        1323.00      5758.76
 1270.61        2956.75           2239        1322.00      5754.40
 1270.64        2957.00           2243        1373.00      5976.80
 1270.67        2957.25           2246        1353.00      5889.58
 1270.70        2957.50           2250        1358.00      5911.39
 1270.73        2957.75           2254        1415.00      6159.97
 1270.76        2958.00           2257        1400.00      6094.55
 1270.79        2958.25           2261        1442.00      6277.71
 1270.82        2958.50           2264        1437.00      6255.91
 1270.85        2958.75           2268        1429.00      6221.02
 1270.88        2959.00           2271        1416.00      6164.33
 1270.91        2959.25           2275        1469.00      6395.46
 1270.94        2959.50           2278        1462.00      6364.94
 1270.97        2959.75           2282        1467.00      6386.74
 1271.01        2960.00           2285        1526.00      6644.05
 1271.04        2960.25           2289        1589.00      6918.80
 1271.07        2960.50           2293        1587.00      6910.08
 1271.10        2960.75           2296        1609.00      7006.03
 1271.13        2961.00           2300        1711.00      7450.89
 1271.16        2961.25           2303        2130.00      9278.43
 1271.19        2961.50           2307        6090.00     26561.90
 1271.22        2961.75           2310       14615.00     63838.50
 1271.25        2962.00           2314       29595.00    129570.40
 1271.28        2962.25           2317       42609.00    186915.60
 1271.31        2962.50           2321       62946.00    276980.70
 1271.34        2962.75           2324       80451.00    354950.20
 1271.37        2963.00           2328      101973.00    451385.50
 1271.40        2963.25           2331      116811.00    518244.40
 1271.43        2963.50           2335      137707.00    612923.30
 1271.46        2963.75           2339      158758.00    708931.50
 1271.49        2964.00           2342      176380.00    789791.70
 1271.53        2964.25           2346      198571.00    892262.80
 1271.56        2964.50           2349      214088.00    964348.50
 1271.59        2964.75           2353      233564.00   1055338.00
 1271.62        2965.00           2356      248290.00   1124519.00
 1271.65        2965.25           2360      269425.00   1224392.00
 1271.68        2965.50           2363      283627.00   1291894.00
 1271.71        2965.75           2367      302886.00   1383942.00
 1271.74        2966.00           2370      318177.00   1457448.00
 1271.77        2966.25           2374      335410.00   1540744.00
 1271.80        2966.50           2378      348492.00   1604301.00
 1271.83        2966.75           2381      353437.00   1628399.00
 1271.86        2967.00           2385      354638.00   1634258.00
 1271.89        2967.25           2388      354963.00   1635844.00
 1271.92        2967.50           2392      354983.00   1635942.00
 1271.95        2967.75           2395      355280.00   1637391.00
 1271.98        2968.00           2399      350805.00   1615568.00
 1272.01        2968.25           2402      341434.00   1569975.00
 1272.04        2968.50           2406      326244.00   1496380.00
 1272.08        2968.75           2409      313524.00   1435041.00
 1272.11        2969.00           2413      294691.00   1344702.00
 1272.14        2969.25           2417      274373.00   1247874.00
 1272.17        2969.50           2420      259209.00   1176030.00
 1272.20        2969.75           2424      238775.00   1079781.00
 1272.23        2970.00           2427      223396.00   1007763.00
 1272.26        2970.25           2431      202364.00    909850.30
 1272.29        2970.50           2434      187067.00    839050.50
 1272.32        2970.75           2438      166080.00    742474.60
 1272.35        2971.00           2441      151246.00    674598.40
 1272.38        2971.25           2445      128898.00    572935.00
 1272.41        2971.50           2449      107010.00    474047.50
 1272.44        2971.75           2452       89979.00    397564.50
 1272.47        2972.00           2456       67580.00    297580.70
 1272.50        2972.25           2459       51940.00    228170.40
 1272.53        2972.50           2463       32532.00    142492.50
 1272.56        2972.75           2466       18701.00     81738.62
 1272.60        2973.00           2470        5891.00     25692.88
 1272.63        2973.25           2473        2656.00     11572.99
 1272.66        2973.50           2477        1810.00      7882.67
 1272.69        2973.75           2481        1714.00      7463.97
 1272.72        2974.00           2484        1665.00      7250.26
 1272.75        2974.25           2488        1593.00      6936.25
 1272.78        2974.50           2491        1543.00      6718.19
 1272.81        2974.75           2495        1548.00      6739.99
 1272.84        2975.00           2498        1531.00      6665.85
 1272.87        2975.25           2502        1511.00      6578.63
 1272.90        2975.50           2505        1507.00      6561.19
 1272.93        2975.75           2509        1468.00      6391.10
 1272.96        2976.00           2512        1447.00      6299.52
 1272.99        2976.25           2516        1471.00      6404.18
 1273.02        2976.50           2520        1425.00      6203.58
 1273.05        2976.75           2523        1434.00      6242.83
 1273.08        2977.00           2527        1384.00      6024.77
 1273.12        2977.25           2530        1395.00      6072.74
 1273.15        2977.50           2534        1361.00      5924.47
 1273.18        2977.75           2537        1342.00      5841.61
 1273.21        2978.00           2541        1301.00      5662.82
 1273.24        2978.25           2544        1334.00      5806.73
 1273.27        2978.50           2548        1281.00      5575.60
 1273.30        2978.75           2552        1276.00      5553.80
 1273.33        2979.00           2555        1286.00      5597.40
 1273.36        2979.25           2559        1244.00      5414.25
 1273.39        2979.50           2562        1268.00      5518.91
 1273.42        2979.75           2566        1225.00      5331.39
 1273.45        2980.00           2569        1261.00      5488.38
 1273.48        2980.25           2573        1205.00      5244.18
 1273.51        2980.50           2577        1221.00      5313.95
 1273.54        2980.75           2580        1240.00      5396.81
 1273.57        2981.00           2584        1228.00      5344.48
 1273.60        2981.25           2587        1207.00      5252.90
 1273.64        2981.50           2591        1210.00      5265.98
 1273.67        2981.75           2594        1233.00      5366.28
 1273.70        2982.00           2598        1180.00      5135.16
 1273.73        2982.25           2601        1199.00      5218.01
 1273.76        2982.50           2605        1173.00      5104.64
 1273.79        2982.75           2609        1158.00      5039.22
 1273.82        2983.00           2612        1203.00      5235.46
 1273.85        2983.25           2616        1165.00      5069.75
 1273.88        2983.50           2619        1199.00      5218.01
 1273.91        2983.75           2623        1182.00      5143.88
 1273.94        2984.00           2626        1180.00      5135.16
HS scan finished at 21:14:10
end
