************************************************************
  HS Scan of (1) Internal mercury lamp
************************************************************
Integration time is 0.2294 seconds per sample
dh100618Reading 51.44 .94 3.54pr1000
************************************************************
Dead Time -------------------------  3.4E-08 
Number of Cycles Used -------------  4 
Starting Wavelength (Angstroms) ---  2950 
Final Wavelength (Angstoms) -------  2984 
Wavelength Increment (Angstroms) --  .25 
Filter Wheel #1 Position ---------- (1) Ground quartz diffuser (ND=2.32)
Filter Wheel #2 Position ---------- (1) Neutral Density 0.494



************************************************************
HS scan start time = 01:12:05
Dark Count =  2.4 


Time (GMT)  Wavelength (Ang)  Step Number  Raw Counts  Counts/Second

   72.98        2950.00           2144          54.00       224.94
   73.17        2950.25           2147          56.00       233.65
   73.20        2950.50           2151          64.00       268.53
   73.23        2950.75           2155          71.00       299.04
   73.27        2951.00           2158          61.00       255.45
   73.30        2951.25           2162          60.00       251.09
   73.33        2951.50           2165          69.00       290.33
   73.36        2951.75           2169          61.00       255.45
   73.39        2952.00           2172          64.00       268.53
   73.42        2952.25           2176          69.00       290.33
   73.45        2952.50           2179          64.00       268.53
   73.48        2952.75           2183          65.00       272.89
   73.51        2953.00           2186          65.00       272.89
   73.54        2953.25           2190          69.00       290.33
   73.57        2953.50           2193          69.00       290.33
   73.60        2953.75           2197          64.00       268.53
   73.63        2954.00           2200          63.00       264.17
   73.66        2954.25           2204          66.00       277.25
   73.69        2954.50           2208          73.00       307.76
   73.72        2954.75           2211          66.00       277.25
   73.75        2955.00           2215          62.00       259.81
   73.79        2955.25           2218          70.00       294.68
   73.82        2955.50           2222          73.00       307.76
   73.85        2955.75           2225          73.00       307.76
   73.88        2956.00           2229          74.00       312.12
   73.91        2956.25           2232          64.00       268.53
   73.94        2956.50           2236          63.00       264.17
   73.97        2956.75           2239          75.00       316.48
   74.00        2957.00           2243          67.00       281.61
   74.03        2957.25           2246          76.00       320.84
   74.06        2957.50           2250          68.00       285.97
   74.09        2957.75           2254          75.00       316.48
   74.12        2958.00           2257          76.00       320.84
   74.15        2958.25           2261          78.00       329.56
   74.18        2958.50           2264          79.00       333.92
   74.21        2958.75           2268          72.00       303.40
   74.24        2959.00           2271          78.00       329.56
   74.27        2959.25           2275          72.00       303.40
   74.31        2959.50           2278          87.00       368.79
   74.34        2959.75           2282          82.00       347.00
   74.37        2960.00           2285          82.00       347.00
   74.40        2960.25           2289          87.00       368.79
   74.43        2960.50           2293          85.00       360.07
   74.46        2960.75           2296          94.00       399.31
   74.49        2961.00           2300         183.00       787.29
   74.52        2961.25           2303         293.00      1266.84
   74.55        2961.50           2307         966.00      4201.12
   74.58        2961.75           2310        1731.00      7537.24
   74.61        2962.00           2314        2881.00     12553.74
   74.64        2962.25           2317        3716.00     16197.24
   74.67        2962.50           2321        4958.00     21618.33
   74.70        2962.75           2324        5701.00     24862.34
   74.73        2963.00           2328        6943.00     30286.63
   74.76        2963.25           2331        7998.00     34895.78
   74.79        2963.50           2335        9350.00     40804.61
   74.82        2963.75           2339       10748.00     46916.98
   74.86        2964.00           2342       11721.00     51172.65
   74.89        2964.25           2346       12924.00     56436.00
   74.92        2964.50           2349       13905.00     60729.45
   74.95        2964.75           2353       15056.00     65768.53
   74.98        2965.00           2356       15936.00     69622.34
   75.01        2965.25           2360       17387.00     75978.94
   75.04        2965.50           2363       18235.00     79695.18
   75.07        2965.75           2367       19278.00     84267.25
   75.10        2966.00           2370       20335.00     88902.14
   75.13        2966.25           2374       21284.00     93064.71
   75.16        2966.50           2378       22043.00     96394.74
   75.19        2966.75           2381       22066.00     96495.68
   75.22        2967.00           2385       21927.00     95885.76
   75.25        2967.25           2388       22191.00     97044.18
   75.28        2967.50           2392       22116.00     96715.07
   75.31        2967.75           2395       22022.00     96302.61
   75.34        2968.00           2399       21339.00     93305.99
   75.38        2968.25           2402       20519.00     89709.12
   75.41        2968.50           2406       19242.00     84109.41
   75.44        2968.75           2409       18218.00     79620.66
   75.47        2969.00           2413       16921.00     73937.16
   75.50        2969.25           2417       15478.00     67616.47
   75.53        2969.50           2420       14588.00     63719.41
   75.56        2969.75           2424       13432.00     58659.16
   75.59        2970.00           2427       12309.00     53745.03
   75.62        2970.25           2431       10816.00     47214.35
   75.65        2970.50           2434        9906.00     43235.26
   75.68        2970.75           2438        8606.00     37552.71
   75.71        2971.00           2441        7725.00     33702.94
   75.74        2971.25           2445        6450.00     28133.26
   75.77        2971.50           2449        5163.00     22513.31
   75.80        2971.75           2452        4322.00     18842.06
   75.83        2972.00           2456        3049.00     13286.73
   75.86        2972.25           2459        2089.00      9098.72
   75.90        2972.50           2463         964.00      4192.40
   75.93        2972.75           2466         432.00      1872.83
   75.96        2973.00           2470         149.00       639.07
   75.99        2973.25           2473         117.00       499.57
   76.02        2973.50           2477         100.00       425.46
   76.05        2973.75           2481          95.00       403.67
   76.08        2974.00           2484         115.00       490.85
   76.11        2974.25           2488          93.00       394.95
   76.14        2974.50           2491          84.00       355.71
   76.17        2974.75           2495          73.00       307.76
   76.20        2975.00           2498          94.00       399.31
   76.23        2975.25           2502          76.00       320.84
   76.26        2975.50           2505          82.00       347.00
   76.29        2975.75           2509          77.00       325.20
   76.32        2976.00           2512          73.00       307.76
   76.35        2976.25           2516          76.00       320.84
   76.38        2976.50           2520          78.00       329.56
   76.42        2976.75           2523          72.00       303.40
   76.45        2977.00           2527          77.00       325.20
   76.48        2977.25           2530          74.00       312.12
   76.51        2977.50           2534          70.00       294.68
   76.54        2977.75           2537          72.00       303.40
   76.57        2978.00           2541          73.00       307.76
   76.60        2978.25           2544          69.00       290.33
   76.63        2978.50           2548          68.00       285.97
   76.66        2978.75           2552          69.00       290.33
   76.69        2979.00           2555          71.00       299.04
   76.72        2979.25           2559          68.00       285.97
   76.75        2979.50           2562          63.00       264.17
   76.78        2979.75           2566          80.00       338.28
   76.81        2980.00           2569          62.00       259.81
   76.84        2980.25           2573          68.00       285.97
   76.87        2980.50           2577          66.00       277.25
   76.90        2980.75           2580          73.00       307.76
   76.94        2981.00           2584          66.00       277.25
   76.97        2981.25           2587          59.00       246.73
   77.00        2981.50           2591          65.00       272.89
   77.03        2981.75           2594          64.00       268.53
   77.06        2982.00           2598          62.00       259.81
   77.09        2982.25           2601          57.00       238.01
   77.12        2982.50           2605          60.00       251.09
   77.15        2982.75           2609          59.00       246.73
   77.18        2983.00           2612          62.00       259.81
   77.21        2983.25           2616          59.00       246.73
   77.24        2983.50           2619          62.00       259.81
   77.27        2983.75           2623          58.00       242.37
   77.30        2984.00           2626          66.00       277.25
HS scan finished at 01:17:31
end
************************************************************
  HS Scan of (1) Internal mercury lamp
************************************************************
Integration time is 0.2294 seconds per sample
dh100618Reading 51.44 .94 3.86pr1000
************************************************************
Dead Time -------------------------  3.4E-08 
Number of Cycles Used -------------  4 
Starting Wavelength (Angstroms) ---  2950 
Final Wavelength (Angstoms) -------  2984 
Wavelength Increment (Angstroms) --  .25 
Filter Wheel #1 Position ---------- (1) Ground quartz diffuser (ND=2.32)
Filter Wheel #2 Position ---------- (1) Neutral Density 0.494



************************************************************
HS scan start time = 21:07:26
Dark Count =  6.5 


Time (GMT)  Wavelength (Ang)  Step Number  Raw Counts  Counts/Second

 1268.33        2950.00           2144          49.00       185.27
 1268.52        2950.25           2147          48.00       180.91
 1268.55        2950.50           2151          52.00       198.34
 1268.58        2950.75           2155          45.00       167.83
 1268.62        2951.00           2158          40.00       146.03
 1268.65        2951.25           2162          44.00       163.47
 1268.68        2951.50           2165          42.00       154.75
 1268.71        2951.75           2169          46.00       172.19
 1268.74        2952.00           2172          48.00       180.91
 1268.77        2952.25           2176          50.00       189.63
 1268.80        2952.50           2179          38.00       137.32
 1268.83        2952.75           2183          50.00       189.63
 1268.86        2953.00           2186          45.00       167.83
 1268.89        2953.25           2190          52.00       198.34
 1268.92        2953.50           2193          50.00       189.63
 1268.95        2953.75           2197          52.00       198.34
 1268.98        2954.00           2200          50.00       189.63
 1269.02        2954.25           2204          48.00       180.91
 1269.06        2954.50           2208          51.00       193.99
 1269.09        2954.75           2211          47.00       176.55
 1269.12        2955.00           2215          47.00       176.55
 1269.15        2955.25           2218          46.00       172.19
 1269.18        2955.50           2222          50.00       189.63
 1269.21        2955.75           2225          50.00       189.63
 1269.24        2956.00           2229          52.00       198.34
 1269.27        2956.25           2232          56.00       215.78
 1269.30        2956.50           2236          58.00       224.50
 1269.33        2956.75           2239          55.00       211.42
 1269.36        2957.00           2243          53.00       202.70
 1269.39        2957.25           2246          56.00       215.78
 1269.43        2957.50           2250          48.00       180.91
 1269.46        2957.75           2254          61.00       237.58
 1269.49        2958.00           2257          54.00       207.06
 1269.52        2958.25           2261          54.00       207.06
 1269.55        2958.50           2264          51.00       193.99
 1269.58        2958.75           2268          57.00       220.14
 1269.61        2959.00           2271          56.00       215.78
 1269.64        2959.25           2275          59.00       228.86
 1269.67        2959.50           2278          63.00       246.30
 1269.70        2959.75           2282          60.00       233.22
 1269.73        2960.00           2285          63.00       246.30
 1269.76        2960.25           2289          66.00       259.37
 1269.79        2960.50           2293          61.00       237.58
 1269.82        2960.75           2296          66.00       259.37
 1269.85        2961.00           2300          89.00       359.64
 1269.88        2961.25           2303         191.00       804.29
 1269.92        2961.50           2307         673.00      2905.69
 1269.95        2961.75           2310        1263.00      5478.35
 1269.98        2962.00           2314        2019.00      8775.50
 1270.01        2962.25           2317        2597.00     11296.84
 1270.04        2962.50           2321        3362.00     14634.57
 1270.07        2962.75           2324        4008.00     17453.68
 1270.10        2963.00           2328        4986.00     21722.67
 1270.13        2963.25           2331        5648.00     24613.01
 1270.16        2963.50           2335        6520.00     28421.09
 1270.19        2963.75           2339        7358.00     32081.62
 1270.22        2964.00           2342        8108.00     35358.53
 1270.25        2964.25           2346        9005.00     39278.66
 1270.28        2964.50           2349        9731.00     42452.25
 1270.31        2964.75           2353       10770.00     46995.26
 1270.34        2965.00           2356       11585.00     50559.82
 1270.37        2965.25           2360       12267.00     53543.33
 1270.40        2965.50           2363       12937.00     56474.95
 1270.44        2965.75           2367       13952.00     60917.24
 1270.47        2966.00           2370       14533.00     63460.67
 1270.50        2966.25           2374       15308.00     66854.06
 1270.53        2966.50           2378       15802.00     69017.48
 1270.56        2966.75           2381       15784.00     68938.65
 1270.59        2967.00           2385       15778.00     68912.37
 1270.62        2967.25           2388       15763.00     68846.68
 1270.65        2967.50           2392       15783.00     68934.27
 1270.68        2967.75           2395       15616.00     68202.88
 1270.71        2968.00           2399       15321.00     66910.99
 1270.74        2968.25           2402       14852.00     64857.34
 1270.77        2968.50           2406       13900.00     60689.62
 1270.80        2968.75           2409       13124.00     57293.28
 1270.83        2969.00           2413       12402.00     54133.99
 1270.86        2969.25           2417       11445.00     49947.44
 1270.89        2969.50           2420       10719.00     46772.24
 1270.92        2969.75           2424        9756.00     42561.55
 1270.96        2970.00           2427        8831.00     38518.15
 1270.99        2970.25           2431        7882.00     34371.01
 1271.02        2970.50           2434        6978.00     30421.60
 1271.05        2970.75           2438        6175.00     26914.33
 1271.08        2971.00           2441        5553.00     24198.19
 1271.11        2971.25           2445        4697.00     20461.05
 1271.14        2971.50           2449        3697.00     16096.43
 1271.17        2971.75           2452        3007.00     13085.59
 1271.20        2972.00           2456        2167.00      9421.06
 1271.23        2972.25           2459        1531.00      6647.10
 1271.26        2972.50           2463         759.00      3280.66
 1271.29        2972.75           2466         383.00      1641.33
 1271.32        2973.00           2470         130.00       538.37
 1271.35        2973.25           2473          86.00       346.56
 1271.38        2973.50           2477          74.00       294.25
 1271.41        2973.75           2481          68.00       268.09
 1271.44        2974.00           2484          72.00       285.53
 1271.47        2974.25           2488          67.00       263.73
 1271.51        2974.50           2491          60.00       233.22
 1271.54        2974.75           2495          62.00       241.94
 1271.57        2975.00           2498          63.00       246.30
 1271.60        2975.25           2502          61.00       237.58
 1271.63        2975.50           2505          59.00       228.86
 1271.67        2975.75           2509          68.00       268.09
 1271.70        2976.00           2512          62.00       241.94
 1271.73        2976.25           2516          61.00       237.58
 1271.76        2976.50           2520          54.00       207.06
 1271.79        2976.75           2523          59.00       228.86
 1271.82        2977.00           2527          56.00       215.78
 1271.85        2977.25           2530          55.00       211.42
 1271.88        2977.50           2534          55.00       211.42
 1271.91        2977.75           2537          54.00       207.06
 1271.94        2978.00           2541          54.00       207.06
 1271.97        2978.25           2544          48.00       180.91
 1272.00        2978.50           2548          50.00       189.63
 1272.03        2978.75           2552          55.00       211.42
 1272.06        2979.00           2555          50.00       189.63
 1272.09        2979.25           2559          53.00       202.70
 1272.12        2979.50           2562          49.00       185.27
 1272.15        2979.75           2566          49.00       185.27
 1272.19        2980.00           2569          52.00       198.34
 1272.22        2980.25           2573          53.00       202.70
 1272.25        2980.50           2577          50.00       189.63
 1272.28        2980.75           2580          57.00       220.14
 1272.31        2981.00           2584          54.00       207.06
 1272.34        2981.25           2587          52.00       198.34
 1272.37        2981.50           2591          51.00       193.99
 1272.40        2981.75           2594          45.00       167.83
 1272.43        2982.00           2598          45.00       167.83
 1272.46        2982.25           2601          50.00       189.63
 1272.49        2982.50           2605          46.00       172.19
 1272.52        2982.75           2609          48.00       180.91
 1272.55        2983.00           2612          51.00       193.99
 1272.58        2983.25           2616          37.00       132.96
 1272.61        2983.50           2619          43.00       159.11
 1272.64        2983.75           2623          54.00       207.06
 1272.67        2984.00           2626          54.00       207.06
HS scan finished at 21:12:54
end
