************************************************************
  HS Scan of (1) Internal mercury lamp
************************************************************
Integration time is 0.2294 seconds per sample
dh140619Reading 51.44 .94 3.29pr1000
************************************************************
Dead Time -------------------------  3.4E-08 
Number of Cycles Used -------------  4 
Starting Wavelength (Angstroms) ---  2950 
Final Wavelength (Angstoms) -------  2984 
Wavelength Increment (Angstroms) --  .25 
Filter Wheel #1 Position ---------- (1) Ground quartz diffuser (ND=2.32)
Filter Wheel #2 Position ---------- (1) Neutral Density 0.494



************************************************************
HS scan start time = 01:31:25
Dark Count =  1.4 


Time (GMT)  Wavelength (Ang)  Step Number  Raw Counts  Counts/Second

   92.32        2950.00           2144        1358.00      5914.88
   92.51        2950.25           2147        1339.00      5832.02
   92.54        2950.50           2151        1347.00      5866.91
   92.57        2950.75           2155        1363.00      5936.68
   92.60        2951.00           2158        1347.00      5866.91
   92.63        2951.25           2162        1356.00      5906.16
   92.66        2951.50           2165        1400.00      6098.04
   92.69        2951.75           2169        1407.00      6128.57
   92.72        2952.00           2172        1397.00      6084.96
   92.75        2952.25           2176        1424.00      6202.70
   92.78        2952.50           2179        1390.00      6054.43
   92.81        2952.75           2183        1417.00      6172.18
   92.85        2953.00           2186        1400.00      6098.04
   92.88        2953.25           2190        1434.00      6246.31
   92.91        2953.50           2193        1427.00      6215.79
   92.94        2953.75           2197        1428.00      6220.15
   92.97        2954.00           2200        1446.00      6298.65
   93.00        2954.25           2204        1427.00      6215.79
   93.03        2954.50           2208        1457.00      6346.62
   93.06        2954.75           2211        1506.00      6560.31
   93.09        2955.00           2215        1519.00      6617.01
   93.12        2955.25           2218        1527.00      6651.90
   93.15        2955.50           2222        1510.00      6577.76
   93.18        2955.75           2225        1497.00      6521.06
   93.21        2956.00           2229        1505.00      6555.95
   93.24        2956.25           2232        1525.00      6643.17
   93.27        2956.50           2236        1504.00      6551.59
   93.30        2956.75           2239        1563.00      6808.90
   93.33        2957.00           2243        1570.00      6839.43
   93.37        2957.25           2246        1598.00      6961.54
   93.40        2957.50           2250        1597.00      6957.18
   93.43        2957.75           2254        1657.00      7218.86
   93.46        2958.00           2257        1646.00      7170.88
   93.49        2958.25           2261        1633.00      7114.19
   93.52        2958.50           2264        1650.00      7188.33
   93.55        2958.75           2268        1663.00      7245.03
   93.58        2959.00           2271        1697.00      7393.31
   93.61        2959.25           2275        1719.00      7489.26
   93.64        2959.50           2278        1738.00      7572.13
   93.67        2959.75           2282        1783.00      7768.40
   93.70        2960.00           2285        1831.00      7977.75
   93.73        2960.25           2289        1876.00      8174.02
   93.76        2960.50           2293        1901.00      8283.06
   93.79        2960.75           2296        1964.00      8557.85
   93.82        2961.00           2300        2537.00     11057.34
   93.85        2961.25           2303        5311.00     23163.83
   93.88        2961.50           2307       16932.00     73989.74
   93.92        2961.75           2310       30435.00    133268.60
   93.95        2962.00           2314       52596.00    231078.70
   93.98        2962.25           2317       71307.00    314173.40
   94.01        2962.50           2321       95347.00    421631.60
   94.04        2962.75           2324      112973.00    500924.90
   94.07        2963.00           2328      136984.00    609640.70
   94.10        2963.25           2331      157336.00    702429.70
   94.13        2963.50           2335      183425.00    822248.60
   94.16        2963.75           2339      210409.00    947228.60
   94.19        2964.00           2342      228610.00   1032143.00
   94.22        2964.25           2346      251655.00   1140377.00
   94.25        2964.50           2349      270647.00   1230191.00
   94.28        2964.75           2353      296829.00   1354933.00
   94.31        2965.00           2356      314790.00   1441138.00
   94.34        2965.25           2360      338497.00   1555720.00
   94.37        2965.50           2363      354938.00   1635726.00
   94.40        2965.75           2367      377141.00   1744487.00
   94.44        2966.00           2370      392855.00   1821967.00
   94.47        2966.25           2374      409802.00   1906001.00
   94.50        2966.50           2378      416918.00   1941436.00
   94.53        2966.75           2381      418691.00   1950279.00
   94.56        2967.00           2385      419399.00   1953811.00
   94.59        2967.25           2388      419929.00   1956456.00
   94.62        2967.50           2392      417993.00   1946797.00
   94.65        2967.75           2395      414797.00   1930865.00
   94.68        2968.00           2399      403106.00   1872739.00
   94.71        2968.25           2402      389121.00   1803518.00
   94.74        2968.50           2406      368504.00   1702081.00
   94.77        2968.75           2409      350858.00   1615830.00
   94.80        2969.00           2413      326629.00   1498244.00
   94.83        2969.25           2417      304348.00   1390958.00
   94.86        2969.50           2420      287188.00   1308873.00
   94.89        2969.75           2424      263913.00   1198282.00
   94.92        2970.00           2427      243911.00   1103916.00
   94.96        2970.25           2431      220720.00    995271.90
   94.99        2970.50           2434      199988.00    898834.40
   95.02        2970.75           2438      173771.00    777795.30
   95.05        2971.00           2441      154395.00    688984.50
   95.08        2971.25           2445      130172.00    578715.10
   95.11        2971.50           2449      105907.00    469085.60
   95.14        2971.75           2452       89578.00    395772.10
   95.17        2972.00           2456       68143.00    300089.00
   95.20        2972.25           2459       51454.00    226022.40
   95.23        2972.50           2463       26321.00    115182.50
   95.26        2972.75           2466       10947.00     47791.63
   95.29        2973.00           2470        3215.00     14015.40
   95.32        2973.25           2473        2211.00      9635.24
   95.35        2973.50           2477        1951.00      8501.15
   95.38        2973.75           2481        1907.00      8309.23
   95.41        2974.00           2484        1840.00      8017.01
   95.44        2974.25           2488        1849.00      8056.26
   95.48        2974.50           2491        1803.00      7855.63
   95.51        2974.75           2495        1753.00      7637.55
   95.54        2975.00           2498        1820.00      7929.78
   95.57        2975.25           2502        1726.00      7519.80
   95.60        2975.50           2505        1723.00      7506.71
   95.63        2975.75           2509        1671.00      7279.92
   95.66        2976.00           2512        1667.00      7262.47
   95.69        2976.25           2516        1656.00      7214.50
   95.72        2976.50           2520        1629.00      7096.74
   95.75        2976.75           2523        1597.00      6957.18
   95.78        2977.00           2527        1560.00      6795.82
   95.81        2977.25           2530        1590.00      6926.65
   95.84        2977.50           2534        1554.00      6769.65
   95.87        2977.75           2537        1531.00      6669.34
   95.90        2978.00           2541        1536.00      6691.15
   95.93        2978.25           2544        1514.00      6595.20
   95.96        2978.50           2548        1496.00      6516.70
   96.00        2978.75           2552        1449.00      6311.73
   96.03        2979.00           2555        1455.00      6337.90
   96.06        2979.25           2559        1466.00      6385.87
   96.09        2979.50           2562        1474.00      6420.76
   96.12        2979.75           2566        1415.00      6163.45
   96.15        2980.00           2569        1420.00      6185.26
   96.18        2980.25           2573        1429.00      6224.51
   96.21        2980.50           2577        1413.00      6154.73
   96.24        2980.75           2580        1415.00      6163.45
   96.27        2981.00           2584        1375.00      5989.01
   96.30        2981.25           2587        1413.00      6154.73
   96.33        2981.50           2591        1379.00      6006.46
   96.36        2981.75           2594        1374.00      5984.65
   96.39        2982.00           2598        1362.00      5932.32
   96.42        2982.25           2601        1372.00      5975.93
   96.45        2982.50           2605        1410.00      6141.65
   96.48        2982.75           2609        1365.00      5945.40
   96.52        2983.00           2612        1346.00      5862.55
   96.55        2983.25           2616        1364.00      5941.04
   96.58        2983.50           2619        1303.00      5675.03
   96.61        2983.75           2623        1317.00      5736.08
   96.64        2984.00           2626        1325.00      5770.97
HS scan finished at 01:36:52
end
