************************************************************
  HS Scan of (1) Internal mercury lamp
************************************************************
Integration time is 0.2294 seconds per sample
dh180617Reading 51.44 .94 3.72pr1000
************************************************************
Dead Time -------------------------  3.4E-08 
Number of Cycles Used -------------  4 
Starting Wavelength (Angstroms) ---  2950 
Final Wavelength (Angstoms) -------  2984 
Wavelength Increment (Angstroms) --  .25 
Filter Wheel #1 Position ---------- (1) Ground quartz diffuser (ND=2.32)
Filter Wheel #2 Position ---------- (1) Neutral Density 0.494



************************************************************
HS scan start time = 01:17:08
Dark Count =  4.7 


Time (GMT)  Wavelength (Ang)  Step Number  Raw Counts  Counts/Second

   78.03        2950.00           2144         310.00      1330.92
   78.23        2950.25           2147         326.00      1400.68
   78.26        2950.50           2151         305.00      1309.13
   78.29        2950.75           2155         319.00      1370.16
   78.32        2951.00           2158         320.00      1374.52
   78.35        2951.25           2162         326.00      1400.68
   78.38        2951.50           2165         326.00      1400.68
   78.41        2951.75           2169         327.00      1405.04
   78.44        2952.00           2172         324.00      1391.96
   78.47        2952.25           2176         364.00      1566.34
   78.50        2952.50           2179         375.00      1614.30
   78.53        2952.75           2183         340.00      1461.71
   78.56        2953.00           2186         331.00      1422.48
   78.59        2953.25           2190         353.00      1518.39
   78.62        2953.50           2193         350.00      1505.31
   78.65        2953.75           2197         341.00      1466.07
   78.69        2954.00           2200         362.00      1557.62
   78.72        2954.25           2204         350.00      1505.31
   78.75        2954.50           2208         350.00      1505.31
   78.78        2954.75           2211         342.00      1470.43
   78.81        2955.00           2215         355.00      1527.11
   78.84        2955.25           2218         352.00      1514.03
   78.87        2955.50           2222         377.00      1623.02
   78.90        2955.75           2225         384.00      1653.54
   78.93        2956.00           2229         387.00      1666.62
   78.96        2956.25           2232         373.00      1605.58
   78.99        2956.50           2236         364.00      1566.34
   79.02        2956.75           2239         367.00      1579.42
   79.05        2957.00           2243         383.00      1649.18
   79.08        2957.25           2246         376.00      1618.66
   79.11        2957.50           2250         377.00      1623.02
   79.14        2957.75           2254         401.00      1727.65
   79.17        2958.00           2257         394.00      1697.13
   79.20        2958.25           2261         410.00      1766.89
   79.24        2958.50           2264         407.00      1753.81
   79.27        2958.75           2268         408.00      1758.17
   79.30        2959.00           2271         425.00      1832.29
   79.33        2959.25           2275         456.00      1967.44
   79.36        2959.50           2278         450.00      1941.28
   79.39        2959.75           2282         468.00      2019.76
   79.42        2960.00           2285         451.00      1945.64
   79.45        2960.25           2289         511.00      2207.23
   79.48        2960.50           2293         501.00      2163.63
   79.51        2960.75           2296         513.00      2215.95
   79.54        2961.00           2300         601.00      2599.62
   79.57        2961.25           2303        1091.00      4736.16
   79.60        2961.50           2307        4575.00     19936.35
   79.63        2961.75           2310        9534.00     41598.90
   79.66        2962.00           2314       17239.00     75320.37
   79.69        2962.25           2317       22564.00     98670.92
   79.72        2962.50           2321       29767.00    130315.90
   79.76        2962.75           2324       35560.00    155815.90
   79.79        2963.00           2328       43276.00    189849.70
   79.82        2963.25           2331       49542.00    217546.10
   79.85        2963.50           2335       57472.00    252672.70
   79.88        2963.75           2339       64867.00    285505.70
   79.91        2964.00           2342       71538.00    315187.50
   79.94        2964.25           2346       80457.00    354965.80
   79.97        2964.50           2349       86272.00    380958.80
   80.00        2964.75           2353       93802.00    414686.80
   80.03        2965.00           2356       99575.00    440597.80
   80.06        2965.25           2360      107595.00    476670.50
   80.09        2965.50           2363      112908.00    500616.70
   80.12        2965.75           2367      120313.00    534057.60
   80.15        2966.00           2370      126076.00    560136.40
   80.18        2966.25           2374      131439.00    584447.20
   80.21        2966.50           2378      134015.00    596138.80
   80.24        2966.75           2381      134909.00    600198.60
   80.28        2967.00           2385      134906.00    600184.90
   80.31        2967.25           2388      135005.00    600634.50
   80.34        2967.50           2392      134898.00    600148.50
   80.37        2967.75           2395      133848.00    595380.50
   80.40        2968.00           2399      129527.00    575775.30
   80.43        2968.25           2402      124056.00    550990.20
   80.46        2968.50           2406      116663.00    517564.70
   80.49        2968.75           2409      111470.00    494131.60
   80.52        2969.00           2413      104623.00    463292.50
   80.55        2969.25           2417       96809.00    428177.40
   80.58        2969.50           2420       91310.00    403516.10
   80.61        2969.75           2424       83932.00    370493.50
   80.64        2970.00           2427       78269.00    345197.40
   80.67        2970.25           2431       69635.00    306714.10
   80.70        2970.50           2434       63417.00    279062.00
   80.73        2970.75           2438       55255.00    242843.80
   80.76        2971.00           2441       49355.00    216718.70
   80.80        2971.25           2445       42357.00    185792.00
   80.83        2971.50           2449       35123.00    153890.70
   80.86        2971.75           2452       29223.00    127923.60
   80.89        2972.00           2456       21227.00     92804.58
   80.92        2972.25           2459       15344.00     67019.60
   80.95        2972.50           2463        8070.00     35200.35
   80.98        2972.75           2466        4192.00     18264.61
   81.01        2973.00           2470        1319.00      5730.41
   81.04        2973.25           2473         769.00      3332.11
   81.07        2973.50           2477         572.00      2473.18
   81.10        2973.75           2481         542.00      2342.38
   81.13        2974.00           2484         503.00      2172.35
   81.16        2974.25           2488         500.00      2159.27
   81.19        2974.50           2491         481.00      2076.43
   81.22        2974.75           2495         482.00      2080.79
   81.25        2975.00           2498         468.00      2019.76
   81.28        2975.25           2502         449.00      1936.92
   81.32        2975.50           2505         457.00      1971.80
   81.35        2975.75           2509         438.00      1888.96
   81.38        2976.00           2512         432.00      1862.80
   81.41        2976.25           2516         438.00      1888.96
   81.44        2976.50           2520         422.00      1819.21
   81.47        2976.75           2523         431.00      1858.44
   81.50        2977.00           2527         403.00      1736.37
   81.53        2977.25           2530         441.00      1902.04
   81.56        2977.50           2534         388.00      1670.98
   81.59        2977.75           2537         404.00      1740.73
   81.62        2978.00           2541         377.00      1623.02
   81.65        2978.25           2544         381.00      1640.46
   81.68        2978.50           2548         404.00      1740.73
   81.71        2978.75           2552         380.00      1636.10
   81.74        2979.00           2555         365.00      1570.70
   81.77        2979.25           2559         379.00      1631.74
   81.80        2979.50           2562         375.00      1614.30
   81.84        2979.75           2566         370.00      1592.50
   81.87        2980.00           2569         377.00      1623.02
   81.90        2980.25           2573         375.00      1614.30
   81.93        2980.50           2577         382.00      1644.82
   81.96        2980.75           2580         375.00      1614.30
   81.99        2981.00           2584         351.00      1509.67
   82.02        2981.25           2587         347.00      1492.23
   82.05        2981.50           2591         343.00      1474.79
   82.08        2981.75           2594         382.00      1644.82
   82.11        2982.00           2598         356.00      1531.47
   82.14        2982.25           2601         353.00      1518.39
   82.17        2982.50           2605         340.00      1461.71
   82.20        2982.75           2609         352.00      1514.03
   82.23        2983.00           2612         319.00      1370.16
   82.26        2983.25           2616         327.00      1405.04
   82.29        2983.50           2619         352.00      1514.03
   82.32        2983.75           2623         333.00      1431.19
   82.36        2984.00           2626         340.00      1461.71
HS scan finished at 01:22:35
end
************************************************************
  HS Scan of (1) Internal mercury lamp
************************************************************
Integration time is 0.2294 seconds per sample
dh180617Reading 51.44 .94 4.21pr1000
************************************************************
Dead Time -------------------------  3.4E-08 
Number of Cycles Used -------------  4 
Starting Wavelength (Angstroms) ---  2950 
Final Wavelength (Angstoms) -------  2984 
Wavelength Increment (Angstroms) --  .25 
Filter Wheel #1 Position ---------- (1) Ground quartz diffuser (ND=2.32)
Filter Wheel #2 Position ---------- (1) Neutral Density 0.494



************************************************************
HS scan start time = 21:07:21
Dark Count =  16.2 


Time (GMT)  Wavelength (Ang)  Step Number  Raw Counts  Counts/Second

 1268.24        2950.00           2144         146.00       565.83
 1268.43        2950.25           2147         142.00       548.40
 1268.46        2950.50           2151         154.00       600.71
 1268.49        2950.75           2155         170.00       670.46
 1268.53        2951.00           2158         153.00       596.35
 1268.56        2951.25           2162         157.00       613.79
 1268.59        2951.50           2165         144.00       557.12
 1268.62        2951.75           2169         153.00       596.35
 1268.65        2952.00           2172         145.00       561.48
 1268.68        2952.25           2176         147.00       570.19
 1268.71        2952.50           2179         157.00       613.79
 1268.74        2952.75           2183         158.00       618.15
 1268.77        2953.00           2186         157.00       613.79
 1268.80        2953.25           2190         154.00       600.71
 1268.83        2953.50           2193         150.00       583.27
 1268.86        2953.75           2197         150.00       583.27
 1268.89        2954.00           2200         166.00       653.02
 1268.92        2954.25           2204         145.00       561.48
 1268.95        2954.50           2208         169.00       666.10
 1268.98        2954.75           2211         152.00       591.99
 1269.01        2955.00           2215         158.00       618.15
 1269.05        2955.25           2218         154.00       600.71
 1269.08        2955.50           2222         172.00       679.18
 1269.11        2955.75           2225         173.00       683.54
 1269.14        2956.00           2229         167.00       657.38
 1269.17        2956.25           2232         157.00       613.79
 1269.20        2956.50           2236         155.00       605.07
 1269.23        2956.75           2239         174.00       687.90
 1269.26        2957.00           2243         175.00       692.26
 1269.29        2957.25           2246         182.00       722.77
 1269.32        2957.50           2250         181.00       718.41
 1269.35        2957.75           2254         178.00       705.34
 1269.38        2958.00           2257         173.00       683.54
 1269.41        2958.25           2261         183.00       727.13
 1269.44        2958.50           2264         181.00       718.41
 1269.47        2958.75           2268         195.00       779.45
 1269.50        2959.00           2271         187.00       744.57
 1269.53        2959.25           2275         196.00       783.80
 1269.57        2959.50           2278         194.00       775.09
 1269.60        2959.75           2282         197.00       788.16
 1269.63        2960.00           2285         189.00       753.29
 1269.66        2960.25           2289         217.00       875.35
 1269.69        2960.50           2293         213.00       857.92
 1269.72        2960.75           2296         223.00       901.51
 1269.75        2961.00           2300         249.00      1014.86
 1269.78        2961.25           2303         464.00      1952.18
 1269.81        2961.50           2307        1885.00      8148.73
 1269.84        2961.75           2310        3723.00     16167.56
 1269.87        2962.00           2314        6674.00     29051.35
 1269.90        2962.25           2317        8910.00     38821.04
 1269.93        2962.50           2321       12018.00     52411.54
 1269.96        2962.75           2324       14274.00     62284.33
 1269.99        2963.00           2328       17395.00     75953.53
 1270.02        2963.25           2331       19979.00     87280.42
 1270.05        2963.50           2335       23631.00    103303.80
 1270.09        2963.75           2339       27168.00    118839.30
 1270.12        2964.00           2342       29794.00    130384.10
 1270.15        2964.25           2346       32956.00    144297.30
 1270.18        2964.50           2349       35249.00    154395.10
 1270.21        2964.75           2353       38468.00    168582.50
 1270.24        2965.00           2356       41078.00    180095.90
 1270.27        2965.25           2360       44214.00    193941.60
 1270.30        2965.50           2363       46483.00    203967.60
 1270.33        2965.75           2367       49520.00    217397.90
 1270.36        2966.00           2370       51944.00    228126.10
 1270.39        2966.25           2374       54407.00    239035.10
 1270.42        2966.50           2378       56617.00    248830.40
 1270.45        2966.75           2381       57260.00    251681.60
 1270.48        2967.00           2385       57496.00    252728.20
 1270.51        2967.25           2388       57364.00    252142.80
 1270.54        2967.50           2392       57392.00    252267.00
 1270.57        2967.75           2395       57337.00    252023.00
 1270.61        2968.00           2399       55910.00    245696.10
 1270.64        2968.25           2402       54383.00    238928.80
 1270.67        2968.50           2406       51627.00    226722.70
 1270.70        2968.75           2409       49064.00    215380.60
 1270.73        2969.00           2413       45598.00    200056.20
 1270.76        2969.25           2417       41838.00    183450.20
 1270.79        2969.50           2420       39120.00    171457.90
 1270.82        2969.75           2424       36124.00    158250.20
 1270.85        2970.00           2427       33665.00    147418.80
 1270.88        2970.25           2431       30136.00    131888.30
 1270.91        2970.50           2434       27605.00    120759.90
 1270.94        2970.75           2438       23946.00    104686.70
 1270.97        2971.00           2441       21266.00     92925.21
 1271.00        2971.25           2445       18266.00     79770.55
 1271.03        2971.50           2449       15052.00     65690.59
 1271.06        2971.75           2452       12692.00     55360.42
 1271.09        2972.00           2456        9187.00     40031.78
 1271.13        2972.25           2459        6754.00     29400.78
 1271.16        2972.50           2463        3602.00     15639.53
 1271.19        2972.75           2466        1799.00      7773.63
 1271.22        2973.00           2470         569.00      2409.96
 1271.25        2973.25           2473         306.00      1263.35
 1271.28        2973.50           2477         265.00      1084.61
 1271.31        2973.75           2481         250.00      1019.22
 1271.34        2974.00           2484         261.00      1067.17
 1271.37        2974.25           2488         220.00       888.43
 1271.40        2974.50           2491         217.00       875.35
 1271.43        2974.75           2495         203.00       814.32
 1271.46        2975.00           2498         200.00       801.24
 1271.49        2975.25           2502         203.00       814.32
 1271.52        2975.50           2505         205.00       823.04
 1271.55        2975.75           2509         200.00       801.24
 1271.58        2976.00           2512         198.00       792.52
 1271.61        2976.25           2516         210.00       844.84
 1271.65        2976.50           2520         204.00       818.68
 1271.68        2976.75           2523         182.00       722.77
 1271.71        2977.00           2527         178.00       705.34
 1271.74        2977.25           2530         184.00       731.49
 1271.77        2977.50           2534         182.00       722.77
 1271.80        2977.75           2537         182.00       722.77
 1271.83        2978.00           2541         175.00       692.26
 1271.86        2978.25           2544         161.00       631.23
 1271.89        2978.50           2548         170.00       670.46
 1271.92        2978.75           2552         167.00       657.38
 1271.95        2979.00           2555         175.00       692.26
 1271.98        2979.25           2559         158.00       618.15
 1272.01        2979.50           2562         171.00       674.82
 1272.04        2979.75           2566         164.00       644.30
 1272.07        2980.00           2569         158.00       618.15
 1272.10        2980.25           2573         153.00       596.35
 1272.13        2980.50           2577         155.00       605.07
 1272.17        2980.75           2580         164.00       644.30
 1272.20        2981.00           2584         164.00       644.30
 1272.23        2981.25           2587         155.00       605.07
 1272.26        2981.50           2591         157.00       613.79
 1272.29        2981.75           2594         158.00       618.15
 1272.32        2982.00           2598         166.00       653.02
 1272.35        2982.25           2601         156.00       609.43
 1272.38        2982.50           2605         153.00       596.35
 1272.41        2982.75           2609         171.00       674.82
 1272.44        2983.00           2612         167.00       657.38
 1272.47        2983.25           2616         151.00       587.63
 1272.50        2983.50           2619         163.00       639.94
 1272.53        2983.75           2623         157.00       613.79
 1272.56        2984.00           2626         166.00       653.02
HS scan finished at 21:12:47
end
