************************************************************
  HS Scan of (1) Internal mercury lamp
************************************************************
Integration time is 0.2294 seconds per sample
dh100619Reading 51.44 .94 3.25pr1000
************************************************************
Dead Time -------------------------  3.4E-08 
Number of Cycles Used -------------  4 
Starting Wavelength (Angstroms) ---  2950 
Final Wavelength (Angstoms) -------  2984 
Wavelength Increment (Angstroms) --  .25 
Filter Wheel #1 Position ---------- (1) Ground quartz diffuser (ND=2.32)
Filter Wheel #2 Position ---------- (1) Neutral Density 0.494



************************************************************
HS scan start time = 01:12:00
Dark Count =  1.1 


Time (GMT)  Wavelength (Ang)  Step Number  Raw Counts  Counts/Second

   72.90        2950.00           2144        1393.00      6068.82
   73.09        2950.25           2147        1398.00      6090.62
   73.12        2950.50           2151        1395.00      6077.54
   73.15        2950.75           2155        1427.00      6217.09
   73.18        2951.00           2158        1395.00      6077.54
   73.21        2951.25           2162        1431.00      6234.54
   73.24        2951.50           2165        1378.00      6003.41
   73.27        2951.75           2169        1422.00      6195.29
   73.30        2952.00           2172        1438.00      6265.07
   73.33        2952.25           2176        1416.00      6169.12
   73.36        2952.50           2179        1458.00      6352.29
   73.40        2952.75           2183        1472.00      6413.34
   73.43        2953.00           2186        1436.00      6256.34
   73.46        2953.25           2190        1464.00      6378.45
   73.49        2953.50           2193        1433.00      6243.26
   73.52        2953.75           2197        1463.00      6374.09
   73.55        2954.00           2200        1468.00      6395.90
   73.58        2954.25           2204        1481.00      6452.59
   73.61        2954.50           2208        1509.00      6574.70
   73.64        2954.75           2211        1490.00      6491.84
   73.67        2955.00           2215        1537.00      6696.82
   73.70        2955.25           2218        1501.00      6539.82
   73.73        2955.50           2222        1531.00      6670.65
   73.76        2955.75           2225        1523.00      6635.76
   73.79        2956.00           2229        1541.00      6714.26
   73.82        2956.25           2232        1535.00      6688.09
   73.85        2956.50           2236        1579.00      6879.99
   73.88        2956.75           2239        1597.00      6958.49
   73.92        2957.00           2243        1598.00      6962.85
   73.95        2957.25           2246        1616.00      7041.36
   73.98        2957.50           2250        1601.00      6975.94
   74.01        2957.75           2254        1618.00      7050.08
   74.04        2958.00           2257        1641.00      7150.39
   74.07        2958.25           2261        1678.00      7311.76
   74.10        2958.50           2264        1680.00      7320.48
   74.13        2958.75           2268        1707.00      7438.24
   74.16        2959.00           2271        1700.00      7407.71
   74.19        2959.25           2275        1741.00      7586.53
   74.22        2959.50           2278        1765.00      7691.20
   74.25        2959.75           2282        1801.00      7848.22
   74.28        2960.00           2285        1831.00      7979.06
   74.32        2960.25           2289        1869.00      8144.80
   74.35        2960.50           2293        1889.00      8232.03
   74.38        2960.75           2296        1923.00      8380.33
   74.41        2961.00           2300        2134.00      9300.67
   74.44        2961.25           2303        3029.00     13205.14
   74.47        2961.50           2307        9602.00     41911.91
   74.50        2961.75           2310       20503.00     89644.66
   74.53        2962.00           2314       40855.00    179178.50
   74.56        2962.25           2317       58496.00    257230.70
   74.59        2962.50           2321       82683.00    364926.60
   74.62        2962.75           2324      101845.00    450815.00
   74.66        2963.00           2328      128022.00    568969.30
   74.69        2963.25           2331      146263.00    651873.60
   74.72        2963.50           2335      167861.00    750650.30
   74.75        2963.75           2339      193446.00    868537.80
   74.78        2964.00           2342      214643.00    966938.80
   74.81        2964.25           2346      239762.00   1084420.00
   74.84        2964.50           2349      257834.00   1169538.00
   74.87        2964.75           2353      281006.00   1279418.00
   74.90        2965.00           2356      297223.00   1356820.00
   74.93        2965.25           2360      319465.00   1463662.00
   74.96        2965.50           2363      337800.00   1552340.00
   74.99        2965.75           2367      362052.00   1670485.00
   75.02        2966.00           2370      378536.00   1751350.00
   75.05        2966.25           2374      397623.00   1845561.00
   75.08        2966.50           2378      409988.00   1906928.00
   75.11        2966.75           2381      413572.00   1924765.00
   75.15        2967.00           2385      414967.00   1931713.00
   75.18        2967.25           2388      415023.00   1931993.00
   75.21        2967.50           2392      415294.00   1933343.00
   75.24        2967.75           2395      413592.00   1924865.00
   75.27        2968.00           2399      406803.00   1891096.00
   75.30        2968.25           2402      394407.00   1829644.00
   75.33        2968.50           2406      374982.00   1733877.00
   75.36        2968.75           2409      359473.00   1657875.00
   75.39        2969.00           2413      337338.00   1550098.00
   75.42        2969.25           2417      313261.00   1433781.00
   75.45        2969.50           2420      294263.00   1342661.00
   75.48        2969.75           2424      270008.00   1227162.00
   75.51        2970.00           2427      252714.00   1145372.00
   75.54        2970.25           2431      227969.00   1029145.00
   75.57        2970.50           2434      210762.00    948872.10
   75.60        2970.75           2438      185772.00    833077.80
   75.63        2971.00           2441      165700.00    740736.90
   75.67        2971.25           2445      137951.00    614037.50
   75.70        2971.50           2449      111366.00    493679.00
   75.73        2971.75           2452       93192.00    411967.80
   75.76        2972.00           2456       69279.00    305145.60
   75.79        2972.25           2459       50869.00    223434.20
   75.82        2972.50           2463       29852.00    130705.60
   75.85        2972.75           2466       16352.00     71450.18
   75.88        2973.00           2470        5130.00     22374.91
   75.91        2973.25           2473        2635.00     11486.18
   75.94        2973.50           2477        2015.00      8781.61
   75.97        2973.75           2481        1973.00      8598.42
   76.00        2974.00           2484        1916.00      8349.80
   76.03        2974.25           2488        1925.00      8389.05
   76.06        2974.50           2491        1842.00      8027.04
   76.09        2974.75           2495        1819.00      7926.72
   76.12        2975.00           2498        1797.00      7830.77
   76.15        2975.25           2502        1742.00      7590.89
   76.19        2975.50           2505        1745.00      7603.97
   76.22        2975.75           2509        1741.00      7586.53
   76.25        2976.00           2512        1719.00      7490.57
   76.28        2976.25           2516        1682.00      7329.20
   76.31        2976.50           2520        1631.00      7106.77
   76.34        2976.75           2523        1653.00      7202.72
   76.37        2977.00           2527        1619.00      7054.44
   76.40        2977.25           2530        1590.00      6927.96
   76.43        2977.50           2534        1572.00      6849.46
   76.46        2977.75           2537        1602.00      6980.30
   76.49        2978.00           2541        1587.00      6914.88
   76.52        2978.25           2544        1546.00      6736.07
   76.55        2978.50           2548        1497.00      6522.37
   76.58        2978.75           2552        1518.00      6613.96
   76.61        2979.00           2555        1536.00      6692.46
   76.64        2979.25           2559        1498.00      6526.73
   76.67        2979.50           2562        1448.00      6308.68
   76.71        2979.75           2566        1445.00      6295.59
   76.74        2980.00           2569        1464.00      6378.45
   76.77        2980.25           2573        1456.00      6343.57
   76.80        2980.50           2577        1424.00      6204.01
   76.83        2980.75           2580        1435.00      6251.98
   76.86        2981.00           2584        1391.00      6060.10
   76.89        2981.25           2587        1402.00      6108.07
   76.92        2981.50           2591        1423.00      6199.65
   76.95        2981.75           2594        1416.00      6169.12
   76.98        2982.00           2598        1419.00      6182.21
   77.01        2982.25           2601        1393.00      6068.82
   77.04        2982.50           2605        1367.00      5955.43
   77.07        2982.75           2609        1370.00      5968.52
   77.10        2983.00           2612        1345.00      5859.49
   77.13        2983.25           2616        1369.00      5964.16
   77.16        2983.50           2619        1368.00      5959.80
   77.19        2983.75           2623        1389.00      6051.38
   77.24        2984.00           2626        1350.00      5881.30
HS scan finished at 01:17:28
end
************************************************************
  HS Scan of (1) Internal mercury lamp
************************************************************
Integration time is 0.2294 seconds per sample
dh100619Reading 51.44 .94 3.03pr1000
************************************************************
Dead Time -------------------------  3.4E-08 
Number of Cycles Used -------------  4 
Starting Wavelength (Angstroms) ---  2950 
Final Wavelength (Angstoms) -------  2984 
Wavelength Increment (Angstroms) --  .25 
Filter Wheel #1 Position ---------- (1) Ground quartz diffuser (ND=2.32)
Filter Wheel #2 Position ---------- (1) Neutral Density 0.494



************************************************************
HS scan start time = 21:09:57
Dark Count =  .6 


Time (GMT)  Wavelength (Ang)  Step Number  Raw Counts  Counts/Second

 1270.86        2950.00           2144        1461.00      6367.55
 1271.05        2950.25           2147        1503.00      6550.72
 1271.08        2950.50           2151        1482.00      6459.13
 1271.11        2950.75           2155        1497.00      6524.55
 1271.14        2951.00           2158        1522.00      6633.58
 1271.17        2951.25           2162        1512.00      6589.97
 1271.20        2951.50           2165        1498.00      6528.91
 1271.23        2951.75           2169        1469.00      6402.44
 1271.26        2952.00           2172        1502.00      6546.36
 1271.29        2952.25           2176        1551.00      6760.05
 1271.32        2952.50           2179        1523.00      6637.94
 1271.35        2952.75           2183        1535.00      6690.28
 1271.39        2953.00           2186        1531.00      6672.83
 1271.42        2953.25           2190        1519.00      6620.50
 1271.45        2953.50           2193        1540.00      6712.08
 1271.48        2953.75           2197        1565.00      6821.11
 1271.51        2954.00           2200        1561.00      6803.67
 1271.54        2954.25           2204        1565.00      6821.11
 1271.57        2954.50           2208        1540.00      6712.08
 1271.60        2954.75           2211        1562.00      6808.03
 1271.63        2955.00           2215        1570.00      6842.92
 1271.66        2955.25           2218        1601.00      6978.12
 1271.69        2955.50           2222        1619.00      7056.62
 1271.72        2955.75           2225        1618.00      7052.26
 1271.75        2956.00           2229        1645.00      7170.01
 1271.78        2956.25           2232        1653.00      7204.90
 1271.81        2956.50           2236        1646.00      7174.37
 1271.84        2956.75           2239        1624.00      7078.43
 1271.87        2957.00           2243        1637.00      7135.12
 1271.91        2957.25           2246        1649.00      7187.46
 1271.94        2957.50           2250        1672.00      7287.77
 1271.97        2957.75           2254        1696.00      7392.44
 1272.00        2958.00           2257        1703.00      7422.97
 1272.03        2958.25           2261        1717.00      7484.03
 1272.06        2958.50           2264        1724.00      7514.56
 1272.09        2958.75           2268        1750.00      7627.96
 1272.12        2959.00           2271        1768.00      7706.47
 1272.15        2959.25           2275        1795.00      7824.23
 1272.18        2959.50           2278        1794.00      7819.86
 1272.21        2959.75           2282        1830.00      7976.88
 1272.24        2960.00           2285        1852.00      8072.84
 1272.27        2960.25           2289        1926.00      8395.60
 1272.30        2960.50           2293        1974.00      8604.96
 1272.33        2960.75           2296        1974.00      8604.96
 1272.36        2961.00           2300        2076.00      9049.86
 1272.39        2961.25           2303        2743.00     11959.53
 1272.43        2961.50           2307        7523.00     32828.25
 1272.46        2961.75           2310       16616.00     72608.85
 1272.49        2962.00           2314       33156.00    145246.50
 1272.52        2962.25           2317       48531.00    213091.90
 1272.55        2962.50           2321       70610.00    311073.10
 1272.58        2962.75           2324       89077.00    393532.10
 1272.61        2963.00           2328      114705.00    508743.40
 1272.64        2963.25           2331      132487.00    589221.30
 1272.67        2963.50           2335      156803.00    699995.80
 1272.70        2963.75           2339      179427.00    803826.40
 1272.73        2964.00           2342      196917.00    884607.60
 1272.76        2964.25           2346      220335.00    993478.90
 1272.79        2964.50           2349      238193.00   1077056.00
 1272.82        2964.75           2353      260796.00   1183539.00
 1272.85        2965.00           2356      277092.00   1260801.00
 1272.88        2965.25           2360      300197.00   1371062.00
 1272.91        2965.50           2363      314625.00   1440347.00
 1272.95        2965.75           2367      333972.00   1533782.00
 1272.98        2966.00           2370      350218.00   1612715.00
 1273.01        2966.25           2374      372326.00   1720835.00
 1273.04        2966.50           2378      387360.00   1794829.00
 1273.07        2966.75           2381      392181.00   1818639.00
 1273.10        2967.00           2385      394268.00   1828959.00
 1273.13        2967.25           2388      394771.00   1831447.00
 1273.16        2967.50           2392      395445.00   1834782.00
 1273.19        2967.75           2395      394312.00   1829176.00
 1273.22        2968.00           2399      390912.00   1812368.00
 1273.25        2968.25           2402      381643.00   1766646.00
 1273.28        2968.50           2406      363665.00   1678380.00
 1273.31        2968.75           2409      348819.00   1605901.00
 1273.34        2969.00           2413      326604.00   1498127.00
 1273.37        2969.25           2417      305739.00   1397636.00
 1273.40        2969.50           2420      289955.00   1322081.00
 1273.43        2969.75           2424      267296.00   1214307.00
 1273.47        2970.00           2427      249762.00   1131460.00
 1273.50        2970.25           2431      223470.00   1008116.00
 1273.53        2970.50           2434      205681.00    925255.90
 1273.56        2970.75           2438      182903.00    819845.30
 1273.59        2971.00           2441      165791.00    741156.50
 1273.62        2971.25           2445      140023.00    623462.30
 1273.65        2971.50           2449      112977.00    500946.50
 1273.68        2971.75           2452       94535.00    417992.60
 1273.71        2972.00           2456       71149.00    313473.30
 1273.74        2972.25           2459       54311.00    238678.90
 1273.77        2972.50           2463       32390.00    141874.50
 1273.80        2972.75           2466       18049.00     78887.86
 1273.83        2973.00           2470        6455.00     28162.96
 1273.86        2973.25           2473        3202.00     13962.16
 1273.89        2973.50           2477        2170.00      9459.89
 1273.92        2973.75           2481        1974.00      8604.96
 1273.95        2974.00           2484        1997.00      8705.28
 1273.98        2974.25           2488        1915.00      8347.62
 1274.02        2974.50           2491        1882.00      8203.68
 1274.05        2974.75           2495        1890.00      8238.58
 1274.08        2975.00           2498        1840.00      8020.50
 1274.11        2975.25           2502        1809.00      7885.29
 1274.14        2975.50           2505        1812.00      7898.37
 1274.17        2975.75           2509        1782.00      7767.53
 1274.20        2976.00           2512        1751.00      7632.32
 1274.23        2976.25           2516        1744.00      7601.79
 1274.26        2976.50           2520        1721.00      7501.48
 1274.29        2976.75           2523        1714.00      7470.95
 1274.32        2977.00           2527        1709.00      7449.14
 1274.35        2977.25           2530        1679.00      7318.30
 1274.38        2977.50           2534        1647.00      7178.74
 1274.41        2977.75           2537        1647.00      7178.74
 1274.44        2978.00           2541        1610.00      7017.37
 1274.47        2978.25           2544        1567.00      6829.83
 1274.51        2978.50           2548        1562.00      6808.03
 1274.54        2978.75           2552        1582.00      6895.25
 1274.57        2979.00           2555        1565.00      6821.11
 1274.60        2979.25           2559        1568.00      6834.19
 1274.63        2979.50           2562        1486.00      6476.58
 1274.66        2979.75           2566        1530.00      6668.47
 1274.69        2980.00           2569        1517.00      6611.77
 1274.72        2980.25           2573        1489.00      6489.66
 1274.75        2980.50           2577        1499.00      6533.27
 1274.78        2980.75           2580        1535.00      6690.28
 1274.81        2981.00           2584        1473.00      6419.88
 1274.84        2981.25           2587        1443.00      6289.05
 1274.87        2981.50           2591        1481.00      6454.77
 1274.90        2981.75           2594        1461.00      6367.55
 1274.93        2982.00           2598        1461.00      6367.55
 1274.96        2982.25           2601        1425.00      6210.55
 1274.99        2982.50           2605        1430.00      6232.36
 1275.02        2982.75           2609        1398.00      6092.81
 1275.06        2983.00           2612        1456.00      6345.75
 1275.09        2983.25           2616        1438.00      6267.25
 1275.12        2983.50           2619        1446.00      6302.14
 1275.15        2983.75           2623        1410.00      6145.14
 1275.18        2984.00           2626        1399.00      6097.17
HS scan finished at 21:15:24
end
