************************************************************
  HS Scan of (1) Internal mercury lamp
************************************************************
Integration time is 0.2294 seconds per sample
dh110619Reading 51.44 .94 3.05pr1000
************************************************************
Dead Time -------------------------  3.4E-08 
Number of Cycles Used -------------  4 
Starting Wavelength (Angstroms) ---  2950 
Final Wavelength (Angstoms) -------  2984 
Wavelength Increment (Angstroms) --  .25 
Filter Wheel #1 Position ---------- (1) Ground quartz diffuser (ND=2.32)
Filter Wheel #2 Position ---------- (1) Neutral Density 0.494



************************************************************
HS scan start time = 01:15:36
Dark Count =  .8 


Time (GMT)  Wavelength (Ang)  Step Number  Raw Counts  Counts/Second

   76.49        2950.00           2144        1489.00      6488.79
   76.69        2950.25           2147        1499.00      6532.40
   76.72        2950.50           2151        1469.00      6401.57
   76.75        2950.75           2155        1483.00      6462.62
   76.78        2951.00           2158        1492.00      6501.87
   76.81        2951.25           2162        1490.00      6493.15
   76.84        2951.50           2165        1479.00      6445.18
   76.87        2951.75           2169        1488.00      6484.43
   76.90        2952.00           2172        1478.00      6440.82
   76.93        2952.25           2176        1500.00      6536.76
   76.96        2952.50           2179        1512.00      6589.10
   76.99        2952.75           2183        1494.00      6510.60
   77.02        2953.00           2186        1492.00      6501.87
   77.05        2953.25           2190        1536.00      6693.76
   77.08        2953.50           2193        1530.00      6667.60
   77.11        2953.75           2197        1521.00      6628.35
   77.14        2954.00           2200        1532.00      6676.32
   77.17        2954.25           2204        1579.00      6881.30
   77.21        2954.50           2208        1555.00      6776.63
   77.24        2954.75           2211        1562.00      6807.16
   77.27        2955.00           2215        1567.00      6828.96
   77.30        2955.25           2218        1586.00      6911.83
   77.33        2955.50           2222        1590.00      6929.27
   77.36        2955.75           2225        1595.00      6951.08
   77.39        2956.00           2229        1644.00      7164.78
   77.42        2956.25           2232        1639.00      7142.97
   77.45        2956.50           2236        1596.00      6955.44
   77.48        2956.75           2239        1621.00      7064.47
   77.51        2957.00           2243        1634.00      7121.17
   77.54        2957.25           2246        1668.00      7269.45
   77.57        2957.50           2250        1673.00      7291.26
   77.60        2957.75           2254        1748.00      7618.36
   77.63        2958.00           2257        1735.00      7561.67
   77.66        2958.25           2261        1712.00      7461.35
   77.69        2958.50           2264        1779.00      7753.57
   77.73        2958.75           2268        1744.00      7600.92
   77.76        2959.00           2271        1821.00      7936.75
   77.79        2959.25           2275        1804.00      7862.61
   77.82        2959.50           2278        1801.00      7849.52
   77.85        2959.75           2282        1908.00      8316.21
   77.88        2960.00           2285        1913.00      8338.02
   77.91        2960.25           2289        1929.00      8407.81
   77.94        2960.50           2293        1941.00      8460.15
   77.97        2960.75           2296        2021.00      8809.09
   78.00        2961.00           2300        2152.00      9380.50
   78.03        2961.25           2303        2825.00     12316.40
   78.06        2961.50           2307        9458.00     41283.72
   78.09        2961.75           2310       21150.00     92483.90
   78.12        2962.00           2314       40266.00    176581.00
   78.16        2962.25           2317       57843.00    254335.50
   78.19        2962.50           2321       81551.00    359869.90
   78.22        2962.75           2324       97871.00    432962.50
   78.25        2963.00           2328      119874.00    532090.60
   78.28        2963.25           2331      138670.00    617307.90
   78.31        2963.50           2335      164216.00    733934.40
   78.34        2963.75           2339      190251.00    853765.10
   78.37        2964.00           2342      208315.00    937494.10
   78.40        2964.25           2346      229474.00   1036189.00
   78.43        2964.50           2349      246185.00   1114616.00
   78.46        2964.75           2353      270964.00   1231698.00
   78.49        2965.00           2356      289709.00   1320906.00
   78.52        2965.25           2360      316189.00   1447877.00
   78.55        2965.50           2363      332724.00   1527736.00
   78.58        2965.75           2367      353515.00   1628786.00
   78.61        2966.00           2370      369145.00   1705226.00
   78.64        2966.25           2374      390096.00   1808336.00
   78.68        2966.50           2378      400322.00   1858935.00
   78.71        2966.75           2381      410491.00   1909432.00
   78.74        2967.00           2385      411119.00   1912556.00
   78.77        2967.25           2388      413123.00   1922530.00
   78.80        2967.50           2392      412081.00   1917343.00
   78.83        2967.75           2395      411382.00   1913864.00
   78.86        2968.00           2399      405559.00   1884918.00
   78.89        2968.25           2402      395886.00   1836963.00
   78.92        2968.50           2406      376182.00   1739776.00
   78.95        2968.75           2409      358974.00   1655438.00
   78.98        2969.00           2413      332903.00   1528603.00
   79.01        2969.25           2417      307475.00   1405969.00
   79.04        2969.50           2420      290502.00   1324692.00
   79.07        2969.75           2424      267800.00   1216695.00
   79.10        2970.00           2427      250947.00   1137043.00
   79.13        2970.25           2431      224486.00   1012862.00
   79.17        2970.50           2434      205568.00    924730.10
   79.20        2970.75           2438      180052.00    806704.50
   79.23        2971.00           2441      160852.00    718523.00
   79.26        2971.25           2445      138072.00    614589.00
   79.29        2971.50           2449      113947.00    505321.80
   79.32        2971.75           2452       95887.00    424057.20
   79.35        2972.00           2456       72205.00    318175.90
   79.38        2972.25           2459       53966.00    237149.50
   79.41        2972.50           2463       29553.00    129391.90
   79.44        2972.75           2466       14629.00     63905.93
   79.47        2973.00           2470        4839.00     21105.81
   79.50        2973.25           2473        2800.00     12207.33
   79.53        2973.50           2477        2144.00      9345.60
   79.56        2973.75           2481        2023.00      8817.81
   79.59        2974.00           2484        1968.00      8577.92
   79.62        2974.25           2488        1923.00      8381.64
   79.65        2974.50           2491        1877.00      8181.00
   79.68        2974.75           2495        1875.00      8172.28
   79.72        2975.00           2498        1823.00      7945.48
   79.75        2975.25           2502        1794.00      7818.99
   79.78        2975.50           2505        1810.00      7888.78
   79.81        2975.75           2509        1755.00      7648.89
   79.84        2976.00           2512        1753.00      7640.17
   79.87        2976.25           2516        1715.00      7474.44
   79.90        2976.50           2520        1725.00      7518.05
   79.93        2976.75           2523        1660.00      7234.56
   79.96        2977.00           2527        1665.00      7256.37
   79.99        2977.25           2530        1671.00      7282.54
   80.02        2977.50           2534        1604.00      6990.33
   80.05        2977.75           2537        1641.00      7151.70
   80.08        2978.00           2541        1595.00      6951.08
   80.11        2978.25           2544        1573.00      6855.13
   80.14        2978.50           2548        1619.00      7055.75
   80.17        2978.75           2552        1547.00      6741.74
   80.20        2979.00           2555        1521.00      6628.35
   80.24        2979.25           2559        1531.00      6671.96
   80.27        2979.50           2562        1565.00      6820.24
   80.30        2979.75           2566        1500.00      6536.76
   80.33        2980.00           2569        1523.00      6637.07
   80.36        2980.25           2573        1507.00      6567.29
   80.39        2980.50           2577        1471.00      6410.29
   80.42        2980.75           2580        1499.00      6532.40
   80.45        2981.00           2584        1497.00      6523.68
   80.48        2981.25           2587        1466.00      6388.48
   80.51        2981.50           2591        1444.00      6292.54
   80.54        2981.75           2594        1486.00      6475.71
   80.57        2982.00           2598        1448.00      6309.99
   80.60        2982.25           2601        1432.00      6240.21
   80.63        2982.50           2605        1444.00      6292.54
   80.66        2982.75           2609        1417.00      6174.79
   80.69        2983.00           2612        1430.00      6231.49
   80.72        2983.25           2616        1423.00      6200.96
   80.76        2983.50           2619        1446.00      6301.26
   80.79        2983.75           2623        1439.00      6270.74
   80.82        2984.00           2626        1402.00      6109.38
HS scan finished at 01:21:02
end
************************************************************
  HS Scan of (1) Internal mercury lamp
************************************************************
Integration time is 0.2294 seconds per sample
dh110619Reading 51.44 .94 3.25pr1000
************************************************************
Dead Time -------------------------  3.4E-08 
Number of Cycles Used -------------  4 
Starting Wavelength (Angstroms) ---  2950 
Final Wavelength (Angstoms) -------  2984 
Wavelength Increment (Angstroms) --  .25 
Filter Wheel #1 Position ---------- (1) Ground quartz diffuser (ND=2.32)
Filter Wheel #2 Position ---------- (1) Neutral Density 0.494



************************************************************
HS scan start time = 21:09:59
Dark Count =  1.2 


Time (GMT)  Wavelength (Ang)  Step Number  Raw Counts  Counts/Second

 1270.87        2950.00           2144        1124.00      4895.32
 1271.07        2950.25           2147        1078.00      4694.73
 1271.10        2950.50           2151        1128.00      4912.76
 1271.13        2950.75           2155        1169.00      5091.55
 1271.16        2951.00           2158        1111.00      4838.63
 1271.19        2951.25           2162        1146.00      4991.26
 1271.22        2951.50           2165        1178.00      5130.80
 1271.25        2951.75           2169        1135.00      4943.29
 1271.28        2952.00           2172        1141.00      4969.45
 1271.31        2952.25           2176        1140.00      4965.09
 1271.34        2952.50           2179        1156.00      5034.86
 1271.37        2952.75           2183        1185.00      5161.32
 1271.40        2953.00           2186        1144.00      4982.54
 1271.43        2953.25           2190        1148.00      4999.98
 1271.47        2953.50           2193        1179.00      5135.16
 1271.50        2953.75           2197        1163.00      5065.39
 1271.54        2954.00           2200        1197.00      5213.65
 1271.57        2954.25           2204        1197.00      5213.65
 1271.60        2954.50           2208        1185.00      5161.32
 1271.63        2954.75           2211        1211.00      5274.70
 1271.66        2955.00           2215        1179.00      5135.16
 1271.69        2955.25           2218        1190.00      5183.13
 1271.73        2955.50           2222        1220.00      5313.95
 1271.76        2955.75           2225        1207.00      5257.26
 1271.79        2956.00           2229        1229.00      5353.20
 1271.82        2956.25           2232        1203.00      5239.82
 1271.85        2956.50           2236        1208.00      5261.62
 1271.88        2956.75           2239        1277.00      5562.52
 1271.91        2957.00           2243        1235.00      5379.36
 1271.94        2957.25           2246        1272.00      5540.71
 1271.97        2957.50           2250        1299.00      5658.46
 1272.00        2957.75           2254        1272.00      5540.71
 1272.03        2958.00           2257        1234.00      5375.00
 1272.06        2958.25           2261        1308.00      5697.70
 1272.09        2958.50           2264        1322.00      5758.76
 1272.12        2958.75           2268        1332.00      5802.37
 1272.15        2959.00           2271        1351.00      5885.22
 1272.18        2959.25           2275        1331.00      5798.01
 1272.21        2959.50           2278        1360.00      5924.47
 1272.25        2959.75           2282        1416.00      6168.69
 1272.28        2960.00           2285        1425.00      6207.94
 1272.31        2960.25           2289        1425.00      6207.94
 1272.34        2960.50           2293        1478.00      6439.07
 1272.37        2960.75           2296        1522.00      6630.96
 1272.40        2961.00           2300        1575.00      6862.11
 1272.43        2961.25           2303        1809.00      7882.67
 1272.46        2961.50           2307        4016.00     17511.73
 1272.49        2961.75           2310       10821.00     47241.47
 1272.52        2962.00           2314       26474.00    115855.70
 1272.55        2962.25           2317       39776.00    174417.50
 1272.58        2962.50           2321       58223.00    256019.30
 1272.61        2962.75           2324       71617.00    315554.90
 1272.64        2963.00           2328       89460.00    395244.50
 1272.67        2963.25           2331      103651.00    458935.60
 1272.70        2963.50           2335      125057.00    555537.60
 1272.73        2963.75           2339      145587.00    648792.30
 1272.77        2964.00           2342      160375.00    716337.10
 1272.80        2964.25           2346      178973.00    801732.60
 1272.83        2964.50           2349      194101.00    871567.90
 1272.86        2964.75           2353      211160.00    950723.30
 1272.89        2965.00           2356      225340.00   1016851.00
 1272.92        2965.25           2360      245578.00   1111758.00
 1272.95        2965.50           2363      260467.00   1181981.00
 1272.98        2965.75           2367      278572.00   1267836.00
 1273.01        2966.00           2370      291470.00   1329313.00
 1273.04        2966.25           2374      306482.00   1401200.00
 1273.07        2966.50           2378      318096.00   1457063.00
 1273.10        2966.75           2381      322943.00   1480441.00
 1273.13        2967.00           2385      324384.00   1487399.00
 1273.16        2967.25           2388      324605.00   1488466.00
 1273.19        2967.50           2392      324857.00   1489683.00
 1273.22        2967.75           2395      324304.00   1487012.00
 1273.25        2968.00           2399      320552.00   1468904.00
 1273.29        2968.25           2402      312844.00   1431774.00
 1273.32        2968.50           2406      298106.00   1361046.00
 1273.35        2968.75           2409      285383.00   1300267.00
 1273.38        2969.00           2413      267974.00   1217518.00
 1273.41        2969.25           2417      250366.00   1134303.00
 1273.44        2969.50           2420      236307.00   1068204.00
 1273.47        2969.75           2424      217785.00    981581.10
 1273.50        2970.00           2427      205220.00    923112.00
 1273.53        2970.25           2431      189062.00    848269.10
 1273.56        2970.50           2434      173962.00    778674.50
 1273.59        2970.75           2438      151905.00    677611.60
 1273.62        2971.00           2441      135723.00    603911.90
 1273.65        2971.25           2445      116288.00    515887.00
 1273.68        2971.50           2449       98335.00    435044.10
 1273.71        2971.75           2452       84914.00    374900.10
 1273.74        2972.00           2456       66026.00    290673.70
 1273.77        2972.25           2459       52079.00    228790.30
 1273.81        2972.50           2463       32375.00    141805.90
 1273.84        2972.75           2466       19236.00     84088.37
 1273.87        2973.00           2470        6666.00     29081.93
 1273.90        2973.25           2473        2869.00     12506.63
 1273.93        2973.50           2477        1687.00      7350.57
 1273.96        2973.75           2481        1557.00      6783.61
 1273.99        2974.00           2484        1534.00      6683.30
 1274.02        2974.25           2488        1463.00      6373.66
 1274.05        2974.50           2491        1433.00      6242.83
 1274.08        2974.75           2495        1424.00      6203.58
 1274.11        2975.00           2498        1417.00      6173.05
 1274.14        2975.25           2502        1382.00      6020.41
 1274.17        2975.50           2505        1358.00      5915.75
 1274.20        2975.75           2509        1348.00      5872.14
 1274.23        2976.00           2512        1333.00      5806.73
 1274.26        2976.25           2516        1333.00      5806.73
 1274.29        2976.50           2520        1316.00      5732.59
 1274.33        2976.75           2523        1288.00      5610.49
 1274.36        2977.00           2527        1285.00      5597.40
 1274.39        2977.25           2530        1284.00      5593.04
 1274.42        2977.50           2534        1250.00      5444.77
 1274.45        2977.75           2537        1219.00      5309.59
 1274.48        2978.00           2541        1270.00      5531.99
 1274.51        2978.25           2544        1208.00      5261.62
 1274.54        2978.50           2548        1220.00      5313.95
 1274.57        2978.75           2552        1176.00      5122.08
 1274.60        2979.00           2555        1149.00      5004.34
 1274.63        2979.25           2559        1171.00      5100.27
 1274.66        2979.50           2562        1174.00      5113.36
 1274.69        2979.75           2566        1171.00      5100.27
 1274.72        2980.00           2569        1135.00      4943.29
 1274.75        2980.25           2573        1133.00      4934.57
 1274.78        2980.50           2577        1148.00      4999.98
 1274.81        2980.75           2580        1151.00      5013.06
 1274.84        2981.00           2584        1146.00      4991.26
 1274.88        2981.25           2587        1110.00      4834.27
 1274.91        2981.50           2591        1127.00      4908.40
 1274.94        2981.75           2594        1086.00      4729.62
 1274.97        2982.00           2598        1082.00      4712.18
 1275.00        2982.25           2601        1115.00      4856.08
 1275.03        2982.50           2605        1052.00      4581.36
 1275.06        2982.75           2609        1090.00      4747.06
 1275.09        2983.00           2612        1110.00      4834.27
 1275.12        2983.25           2616        1094.00      4764.50
 1275.15        2983.50           2619        1086.00      4729.62
 1275.18        2983.75           2623        1071.00      4664.21
 1275.21        2984.00           2626        1064.00      4633.69
HS scan finished at 21:15:26
end
