************************************************************
  HS Scan of (1) Internal mercury lamp
************************************************************
Integration time is 0.2294 seconds per sample
dh160617Reading 51.44 .94 3.23pr1000
************************************************************
Dead Time -------------------------  3.4E-08 
Number of Cycles Used -------------  4 
Starting Wavelength (Angstroms) ---  2950 
Final Wavelength (Angstoms) -------  2984 
Wavelength Increment (Angstroms) --  .25 
Filter Wheel #1 Position ---------- (1) Ground quartz diffuser (ND=2.32)
Filter Wheel #2 Position ---------- (1) Neutral Density 0.494



************************************************************
HS scan start time = 01:08:34
Dark Count =  1.3 


Time (GMT)  Wavelength (Ang)  Step Number  Raw Counts  Counts/Second

   69.46        2950.00           2144         409.00      1777.35
   69.65        2950.25           2147         363.00      1576.81
   69.68        2950.50           2151         383.00      1664.00
   69.71        2950.75           2155         404.00      1755.55
   69.74        2951.00           2158         382.00      1659.64
   69.77        2951.25           2162         382.00      1659.64
   69.80        2951.50           2165         382.00      1659.64
   69.83        2951.75           2169         387.00      1681.44
   69.86        2952.00           2172         386.00      1677.08
   69.90        2952.25           2176         384.00      1668.36
   69.93        2952.50           2179         421.00      1829.67
   69.96        2952.75           2183         402.00      1746.83
   69.99        2953.00           2186         410.00      1781.71
   70.02        2953.25           2190         417.00      1812.23
   70.05        2953.50           2193         393.00      1707.60
   70.08        2953.75           2197         419.00      1820.95
   70.11        2954.00           2200         417.00      1812.23
   70.14        2954.25           2204         390.00      1694.52
   70.17        2954.50           2208         393.00      1707.60
   70.20        2954.75           2211         409.00      1777.35
   70.23        2955.00           2215         429.00      1864.55
   70.26        2955.25           2218         427.00      1855.83
   70.29        2955.50           2222         428.00      1860.19
   70.32        2955.75           2225         431.00      1873.27
   70.35        2956.00           2229         432.00      1877.63
   70.38        2956.25           2232         427.00      1855.83
   70.42        2956.50           2236         441.00      1916.86
   70.45        2956.75           2239         447.00      1943.02
   70.48        2957.00           2243         439.00      1908.14
   70.51        2957.25           2246         437.00      1899.43
   70.54        2957.50           2250         438.00      1903.79
   70.57        2957.75           2254         459.00      1995.34
   70.60        2958.00           2257         443.00      1925.58
   70.63        2958.25           2261         472.00      2052.02
   70.66        2958.50           2264         475.00      2065.10
   70.69        2958.75           2268         492.00      2139.21
   70.72        2959.00           2271         471.00      2047.66
   70.75        2959.25           2275         504.00      2191.53
   70.78        2959.50           2278         499.00      2169.73
   70.81        2959.75           2282         507.00      2204.61
   70.84        2960.00           2285         528.00      2296.17
   70.87        2960.25           2289         560.00      2435.69
   70.90        2960.50           2293         555.00      2413.89
   70.94        2960.75           2296         576.00      2505.44
   70.97        2961.00           2300         717.00      3120.21
   71.00        2961.25           2303        1539.00      6704.67
   71.03        2961.50           2307        5328.00     23238.50
   71.06        2961.75           2310       10044.00     43843.43
   71.09        2962.00           2314       17219.00     75247.63
   71.12        2962.25           2317       22938.00    100327.30
   71.15        2962.50           2321       30584.00    133924.50
   71.18        2962.75           2324       36829.00    161422.80
   71.21        2963.00           2328       45324.00    198911.30
   71.24        2963.25           2331       52476.00    230547.70
   71.27        2963.50           2335       61188.00    269177.20
   71.30        2963.75           2339       69044.00    304098.80
   71.33        2964.00           2342       74890.00    330139.70
   71.36        2964.25           2346       83376.00    368023.10
   71.39        2964.50           2349       89889.00    397165.50
   71.42        2964.75           2353       98741.00    436867.00
   71.46        2965.00           2356      104877.00    464450.70
   71.49        2965.25           2360      111855.00    495883.00
   71.52        2965.50           2363      118225.00    524635.80
   71.55        2965.75           2367      125861.00    559178.10
   71.58        2966.00           2370      131191.00    583337.50
   71.61        2966.25           2374      138587.00    616928.10
   71.64        2966.50           2378      143024.00    637117.10
   71.67        2966.75           2381      143984.00    641489.00
   71.70        2967.00           2385      144776.00    645096.60
   71.73        2967.25           2388      144536.00    644003.30
   71.76        2967.50           2392      144346.00    643137.80
   71.79        2967.75           2395      144097.00    642003.60
   71.82        2968.00           2399      141317.00    629346.70
   71.85        2968.25           2402      136083.00    605547.00
   71.88        2968.50           2406      127967.00    568719.10
   71.91        2968.75           2409      121881.00    541164.00
   71.94        2969.00           2413      114580.00    508176.20
   71.98        2969.25           2417      106985.00    473939.00
   72.01        2969.50           2420      100799.00    446112.70
   72.04        2969.75           2424       91429.00    404064.70
   72.07        2970.00           2427       83783.00    369842.60
   72.10        2970.25           2431       74879.00    330090.70
   72.13        2970.50           2434       68559.00    301940.50
   72.16        2970.75           2438       59356.00    261045.60
   72.19        2971.00           2441       52868.00    232283.70
   72.22        2971.25           2445       45288.00    198752.30
   72.25        2971.50           2449       36673.00    160735.20
   72.28        2971.75           2452       30229.00    132362.90
   72.31        2972.00           2456       21474.00     93903.08
   72.34        2972.25           2459       15194.00     66377.63
   72.37        2972.50           2463        8138.00     35512.35
   72.40        2972.75           2466        4099.00     17873.55
   72.43        2973.00           2470        1374.00      5985.09
   72.46        2973.25           2473         773.00      3364.38
   72.50        2973.50           2477         611.00      2658.04
   72.53        2973.75           2481         582.00      2531.60
   72.56        2974.00           2484         582.00      2531.60
   72.59        2974.25           2488         538.00      2339.77
   72.62        2974.50           2491         540.00      2348.49
   72.65        2974.75           2495         540.00      2348.49
   72.68        2975.00           2498         528.00      2296.17
   72.71        2975.25           2502         533.00      2317.97
   72.74        2975.50           2505         528.00      2296.17
   72.77        2975.75           2509         503.00      2187.17
   72.80        2976.00           2512         492.00      2139.21
   72.83        2976.25           2516         520.00      2261.29
   72.86        2976.50           2520         484.00      2104.34
   72.89        2976.75           2523         508.00      2208.97
   72.92        2977.00           2527         474.00      2060.74
   72.95        2977.25           2530         457.00      1986.62
   72.98        2977.50           2534         449.00      1951.74
   73.02        2977.75           2537         468.00      2034.58
   73.05        2978.00           2541         444.00      1929.94
   73.08        2978.25           2544         447.00      1943.02
   73.11        2978.50           2548         441.00      1916.86
   73.14        2978.75           2552         445.00      1934.30
   73.17        2979.00           2555         425.00      1847.11
   73.20        2979.25           2559         430.00      1868.91
   73.23        2979.50           2562         427.00      1855.83
   73.26        2979.75           2566         422.00      1834.03
   73.29        2980.00           2569         413.00      1794.79
   73.32        2980.25           2573         404.00      1755.55
   73.35        2980.50           2577         416.00      1807.87
   73.38        2980.75           2580         435.00      1890.71
   73.41        2981.00           2584         417.00      1812.23
   73.44        2981.25           2587         407.00      1768.63
   73.47        2981.50           2591         410.00      1781.71
   73.50        2981.75           2594         409.00      1777.35
   73.53        2982.00           2598         396.00      1720.68
   73.57        2982.25           2601         417.00      1812.23
   73.60        2982.50           2605         404.00      1755.55
   73.63        2982.75           2609         421.00      1829.67
   73.66        2983.00           2612         383.00      1664.00
   73.69        2983.25           2616         401.00      1742.47
   73.72        2983.50           2619         395.00      1716.32
   73.75        2983.75           2623         392.00      1703.24
   73.78        2984.00           2626         388.00      1685.80
HS scan finished at 01:14:00
end
************************************************************
  HS Scan of (1) Internal mercury lamp
************************************************************
Integration time is 0.2294 seconds per sample
dh160617Reading 51.44 .94 3.76pr1000
************************************************************
Dead Time -------------------------  3.4E-08 
Number of Cycles Used -------------  4 
Starting Wavelength (Angstroms) ---  2950 
Final Wavelength (Angstoms) -------  2984 
Wavelength Increment (Angstroms) --  .25 
Filter Wheel #1 Position ---------- (1) Ground quartz diffuser (ND=2.32)
Filter Wheel #2 Position ---------- (1) Neutral Density 0.494



************************************************************
HS scan start time = 21:07:26
Dark Count =  5.8 


Time (GMT)  Wavelength (Ang)  Step Number  Raw Counts  Counts/Second

 1268.32        2950.00           2144         323.00      1382.80
 1268.52        2950.25           2147         299.00      1278.17
 1268.55        2950.50           2151         315.00      1347.93
 1268.58        2950.75           2155         326.00      1395.88
 1268.61        2951.00           2158         310.00      1326.13
 1268.64        2951.25           2162         328.00      1404.60
 1268.67        2951.50           2165         317.00      1356.65
 1268.70        2951.75           2169         317.00      1356.65
 1268.73        2952.00           2172         312.00      1334.85
 1268.76        2952.25           2176         329.00      1408.96
 1268.79        2952.50           2179         330.00      1413.32
 1268.82        2952.75           2183         312.00      1334.85
 1268.85        2953.00           2186         323.00      1382.80
 1268.89        2953.25           2190         317.00      1356.65
 1268.92        2953.50           2193         336.00      1439.48
 1268.95        2953.75           2197         333.00      1426.40
 1268.98        2954.00           2200         341.00      1461.28
 1269.01        2954.25           2204         334.00      1430.76
 1269.04        2954.50           2208         356.00      1526.67
 1269.07        2954.75           2211         342.00      1465.64
 1269.10        2955.00           2215         343.00      1470.00
 1269.13        2955.25           2218         333.00      1426.40
 1269.16        2955.50           2222         340.00      1456.92
 1269.19        2955.75           2225         341.00      1461.28
 1269.22        2956.00           2229         404.00      1735.94
 1269.25        2956.25           2232         360.00      1544.11
 1269.28        2956.50           2236         369.00      1583.35
 1269.31        2956.75           2239         379.00      1626.94
 1269.34        2957.00           2243         372.00      1596.42
 1269.37        2957.25           2246         401.00      1722.86
 1269.40        2957.50           2250         393.00      1687.98
 1269.44        2957.75           2254         373.00      1600.78
 1269.47        2958.00           2257         398.00      1709.78
 1269.50        2958.25           2261         380.00      1631.30
 1269.53        2958.50           2264         399.00      1714.14
 1269.56        2958.75           2268         430.00      1849.29
 1269.59        2959.00           2271         412.00      1770.81
 1269.62        2959.25           2275         401.00      1722.86
 1269.65        2959.50           2278         412.00      1770.81
 1269.68        2959.75           2282         430.00      1849.29
 1269.71        2960.00           2285         435.00      1871.09
 1269.74        2960.25           2289         443.00      1905.97
 1269.77        2960.50           2293         463.00      1993.16
 1269.80        2960.75           2296         453.00      1949.56
 1269.83        2961.00           2300         543.00      2341.95
 1269.86        2961.25           2303         790.00      3418.88
 1269.89        2961.50           2307        2648.00     11522.39
 1269.92        2961.75           2310        5853.00     25511.22
 1269.96        2962.00           2314       11793.00     51472.74
 1269.99        2962.25           2317       16956.00     74075.60
 1270.02        2962.50           2321       24478.00    107068.20
 1270.05        2962.75           2324       30277.00    132554.20
 1270.08        2963.00           2328       37879.00    166031.40
 1270.11        2963.25           2331       42821.00    187835.70
 1270.14        2963.50           2335       50079.00    219917.20
 1270.17        2963.75           2339       57396.00    252330.80
 1270.20        2964.00           2342       63280.00    278448.50
 1270.23        2964.25           2346       70924.00    312448.10
 1270.26        2964.50           2349       76295.00    336385.10
 1270.29        2964.75           2353       83294.00    367636.50
 1270.32        2965.00           2356       88965.00    393007.30
 1270.35        2965.25           2360       95377.00    421746.40
 1270.38        2965.50           2363       99919.00    442138.30
 1270.41        2965.75           2367      107186.00    474823.80
 1270.44        2966.00           2370      112805.00    500147.20
 1270.48        2966.25           2374      118536.00    526020.70
 1270.51        2966.50           2378      122642.00    544586.30
 1270.54        2966.75           2381      123940.00    550460.20
 1270.57        2967.00           2385      124162.00    551465.10
 1270.60        2967.25           2388      124120.00    551274.90
 1270.63        2967.50           2392      124122.00    551284.00
 1270.66        2967.75           2395      124011.00    550781.50
 1270.69        2968.00           2399      121885.00    541161.60
 1270.72        2968.25           2402      118054.00    523842.90
 1270.75        2968.50           2406      111555.00    494510.00
 1270.78        2968.75           2409      106989.00    473936.70
 1270.81        2969.00           2413      100811.00    446146.40
 1270.84        2969.25           2417       93593.00    413744.70
 1270.87        2969.50           2420       88284.00    389958.40
 1270.90        2969.75           2424       81178.00    358181.30
 1270.93        2970.00           2427       75975.00    334957.90
 1270.96        2970.25           2431       68274.00    300652.30
 1270.99        2970.50           2434       63056.00    277453.40
 1271.03        2970.75           2438       56016.00    246212.10
 1271.06        2971.00           2441       50478.00    221682.90
 1271.09        2971.25           2445       42164.00    184935.10
 1271.12        2971.50           2449       34814.00    152524.80
 1271.15        2971.75           2452       29195.00    127795.60
 1271.18        2972.00           2456       22240.00     97244.26
 1271.21        2972.25           2459       17332.00     75723.04
 1271.24        2972.50           2463       10291.00     44903.73
 1271.27        2972.75           2466        5641.00     24585.50
 1271.30        2973.00           2470        1713.00      7443.91
 1271.33        2973.25           2473         810.00      3506.09
 1271.36        2973.50           2477         537.00      2315.79
 1271.39        2973.75           2481         495.00      2132.67
 1271.42        2974.00           2484         505.00      2176.27
 1271.45        2974.25           2488         456.00      1962.64
 1271.48        2974.50           2491         447.00      1923.40
 1271.52        2974.75           2495         433.00      1862.37
 1271.55        2975.00           2498         439.00      1888.53
 1271.58        2975.25           2502         427.00      1836.21
 1271.61        2975.50           2505         421.00      1810.05
 1271.64        2975.75           2509         417.00      1792.61
 1271.67        2976.00           2512         410.00      1762.09
 1271.70        2976.25           2516         390.00      1674.90
 1271.73        2976.50           2520         406.00      1744.65
 1271.76        2976.75           2523         392.00      1683.62
 1271.79        2977.00           2527         392.00      1683.62
 1271.82        2977.25           2530         390.00      1674.90
 1271.85        2977.50           2534         433.00      1862.37
 1271.88        2977.75           2537         366.00      1570.27
 1271.91        2978.00           2541         366.00      1570.27
 1271.94        2978.25           2544         379.00      1626.94
 1271.97        2978.50           2548         380.00      1631.30
 1272.00        2978.75           2552         376.00      1613.86
 1272.03        2979.00           2555         339.00      1452.56
 1272.07        2979.25           2559         360.00      1544.11
 1272.10        2979.50           2562         365.00      1565.91
 1272.13        2979.75           2566         375.00      1609.50
 1272.16        2980.00           2569         346.00      1483.07
 1272.19        2980.25           2573         357.00      1531.03
 1272.22        2980.50           2577         335.00      1435.12
 1272.25        2980.75           2580         344.00      1474.35
 1272.28        2981.00           2584         335.00      1435.12
 1272.31        2981.25           2587         329.00      1408.96
 1272.34        2981.50           2591         317.00      1356.65
 1272.37        2981.75           2594         332.00      1422.04
 1272.40        2982.00           2598         324.00      1387.16
 1272.43        2982.25           2601         320.00      1369.72
 1272.46        2982.50           2605         321.00      1374.08
 1272.49        2982.75           2609         320.00      1369.72
 1272.52        2983.00           2612         309.00      1321.77
 1272.55        2983.25           2616         314.00      1343.57
 1272.59        2983.50           2619         311.00      1330.49
 1272.62        2983.75           2623         306.00      1308.69
 1272.65        2984.00           2626         324.00      1387.16
HS scan finished at 21:12:52
end
