************************************************************
  HS Scan of (1) Internal mercury lamp
************************************************************
Integration time is 0.2294 seconds per sample
dh110618Reading 51.44 .94 3.5pr1000
************************************************************
Dead Time -------------------------  3.4E-08 
Number of Cycles Used -------------  4 
Starting Wavelength (Angstroms) ---  2950 
Final Wavelength (Angstoms) -------  2984 
Wavelength Increment (Angstroms) --  .25 
Filter Wheel #1 Position ---------- (1) Ground quartz diffuser (ND=2.32)
Filter Wheel #2 Position ---------- (1) Neutral Density 0.494



************************************************************
HS scan start time = 01:15:35
Dark Count =  2.1 


Time (GMT)  Wavelength (Ang)  Step Number  Raw Counts  Counts/Second

   76.48        2950.00           2144          63.00       265.48
   76.68        2950.25           2147          66.00       278.56
   76.71        2950.50           2151          69.00       291.63
   76.74        2950.75           2155          62.00       261.12
   76.77        2951.00           2158          70.00       295.99
   76.80        2951.25           2162          69.00       291.63
   76.83        2951.50           2165          71.00       300.35
   76.86        2951.75           2169          71.00       300.35
   76.89        2952.00           2172          68.00       287.27
   76.92        2952.25           2176          74.00       313.43
   76.95        2952.50           2179          72.00       304.71
   76.98        2952.75           2183          71.00       300.35
   77.01        2953.00           2186          72.00       304.71
   77.04        2953.25           2190          71.00       300.35
   77.07        2953.50           2193          66.00       278.56
   77.10        2953.75           2197          76.00       322.15
   77.14        2954.00           2200          67.00       282.91
   77.17        2954.25           2204          75.00       317.79
   77.20        2954.50           2208          74.00       313.43
   77.23        2954.75           2211          74.00       313.43
   77.26        2955.00           2215          66.00       278.56
   77.29        2955.25           2218          74.00       313.43
   77.32        2955.50           2222          80.00       339.59
   77.35        2955.75           2225          67.00       282.91
   77.38        2956.00           2229          69.00       291.63
   77.41        2956.25           2232          72.00       304.71
   77.44        2956.50           2236          77.00       326.51
   77.47        2956.75           2239          70.00       295.99
   77.50        2957.00           2243          73.00       309.07
   77.53        2957.25           2246          71.00       300.35
   77.56        2957.50           2250          80.00       339.59
   77.59        2957.75           2254          82.00       348.30
   77.62        2958.00           2257          79.00       335.23
   77.65        2958.25           2261          81.00       343.94
   77.69        2958.50           2264          75.00       317.79
   77.72        2958.75           2268          85.00       361.38
   77.75        2959.00           2271          76.00       322.15
   77.78        2959.25           2275          85.00       361.38
   77.81        2959.50           2278          99.00       422.41
   77.84        2959.75           2282          87.00       370.10
   77.87        2960.00           2285          84.00       357.02
   77.90        2960.25           2289         100.00       426.77
   77.93        2960.50           2293          94.00       400.62
   77.96        2960.75           2296         104.00       444.21
   77.99        2961.00           2300         147.00       631.66
   78.02        2961.25           2303         331.00      1433.81
   78.05        2961.50           2307        1166.00      5074.55
   78.08        2961.75           2310        2039.00      8881.93
   78.11        2962.00           2314        3366.00     14671.22
   78.14        2962.25           2317        4453.00     19415.16
   78.17        2962.50           2321        5943.00     25920.39
   78.21        2962.75           2324        6959.00     30357.82
   78.24        2963.00           2328        8495.00     37068.92
   78.27        2963.25           2331        9723.00     42436.51
   78.30        2963.50           2335       11170.00     48763.88
   78.33        2963.75           2339       12641.00     55198.97
   78.36        2964.00           2342       13652.00     59623.37
   78.39        2964.25           2346       15233.00     66544.90
   78.42        2964.50           2349       16485.00     72028.41
   78.45        2964.75           2353       17906.00     78254.58
   78.48        2965.00           2356       18867.00     82466.75
   78.51        2965.25           2360       20124.00     87978.12
   78.54        2965.50           2363       21177.00     92596.64
   78.57        2965.75           2367       22921.00    100249.10
   78.60        2966.00           2370       23654.00    103466.70
   78.63        2966.25           2374       24660.00    107883.70
   78.66        2966.50           2378       25546.00    111774.90
   78.69        2966.75           2381       25463.00    111410.30
   78.73        2967.00           2385       25649.00    112227.30
   78.76        2967.25           2388       25679.00    112359.10
   78.79        2967.50           2392       25370.00    111001.90
   78.82        2967.75           2395       25418.00    111212.70
   78.85        2968.00           2399       24390.00    106698.10
   78.88        2968.25           2402       23644.00    103422.80
   78.91        2968.50           2406       21999.00     96203.00
   78.94        2968.75           2409       21094.00     92232.55
   78.97        2969.00           2413       19565.00     85526.90
   79.00        2969.25           2417       18185.00     79477.35
   79.03        2969.50           2420       17056.00     74529.96
   79.06        2969.75           2424       15200.00     66400.40
   79.09        2970.00           2427       14213.00     62079.02
   79.12        2970.25           2431       12534.00     54730.78
   79.15        2970.50           2434       11367.00     49625.52
   79.18        2970.75           2438        9902.00     43219.09
   79.21        2971.00           2441        8787.00     38345.08
   79.25        2971.25           2445        7190.00     31366.91
   79.28        2971.50           2449        5883.00     25658.38
   79.31        2971.75           2452        4713.00     20550.10
   79.34        2972.00           2456        3264.00     14226.15
   79.37        2972.25           2459        2207.00      9614.74
   79.40        2972.50           2463        1057.00      4599.24
   79.43        2972.75           2466         501.00      2174.96
   79.46        2973.00           2470         179.00       771.16
   79.49        2973.25           2473         145.00       622.94
   79.52        2973.50           2477         105.00       448.57
   79.55        2973.75           2481         101.00       431.13
   79.58        2974.00           2484         108.00       461.65
   79.61        2974.25           2488          97.00       413.69
   79.64        2974.50           2491          94.00       400.62
   79.67        2974.75           2495          91.00       387.54
   79.70        2975.00           2498         109.00       466.01
   79.73        2975.25           2502          93.00       396.26
   79.77        2975.50           2505          83.00       352.66
   79.80        2975.75           2509          81.00       343.94
   79.83        2976.00           2512          81.00       343.94
   79.86        2976.25           2516          81.00       343.94
   79.89        2976.50           2520          80.00       339.59
   79.92        2976.75           2523          83.00       352.66
   79.95        2977.00           2527          75.00       317.79
   79.98        2977.25           2530          87.00       370.10
   80.01        2977.50           2534          85.00       361.38
   80.04        2977.75           2537          73.00       309.07
   80.07        2978.00           2541          87.00       370.10
   80.10        2978.25           2544          71.00       300.35
   80.13        2978.50           2548          74.00       313.43
   80.16        2978.75           2552          75.00       317.79
   80.19        2979.00           2555          69.00       291.63
   80.22        2979.25           2559          83.00       352.66
   80.25        2979.50           2562          73.00       309.07
   80.30        2979.75           2566          70.00       295.99
   80.33        2980.00           2569          78.00       330.87
   80.36        2980.25           2573          77.00       326.51
   80.39        2980.50           2577          67.00       282.91
   80.42        2980.75           2580          65.00       274.20
   80.45        2981.00           2584          65.00       274.20
   80.48        2981.25           2587          70.00       295.99
   80.51        2981.50           2591          73.00       309.07
   80.55        2981.75           2594          69.00       291.63
   80.58        2982.00           2598          70.00       295.99
   80.61        2982.25           2601          69.00       291.63
   80.64        2982.50           2605          68.00       287.27
   80.67        2982.75           2609          70.00       295.99
   80.70        2983.00           2612          68.00       287.27
   80.73        2983.25           2616          75.00       317.79
   80.76        2983.50           2619          67.00       282.91
   80.79        2983.75           2623          67.00       282.91
   80.82        2984.00           2626          64.00       269.84
HS scan finished at 01:21:02
end
************************************************************
  HS Scan of (1) Internal mercury lamp
************************************************************
Integration time is 0.2294 seconds per sample
dh110618Reading 51.44 .94 3.92pr1000
************************************************************
Dead Time -------------------------  3.4E-08 
Number of Cycles Used -------------  4 
Starting Wavelength (Angstroms) ---  2950 
Final Wavelength (Angstoms) -------  2984 
Wavelength Increment (Angstroms) --  .25 
Filter Wheel #1 Position ---------- (1) Ground quartz diffuser (ND=2.32)
Filter Wheel #2 Position ---------- (1) Neutral Density 0.494



************************************************************
HS scan start time = 21:07:22
Dark Count =  8.399999 


Time (GMT)  Wavelength (Ang)  Step Number  Raw Counts  Counts/Second

 1268.26        2950.00           2144          61.00       229.30
 1268.46        2950.25           2147          57.00       211.86
 1268.49        2950.50           2151          53.00       194.42
 1268.52        2950.75           2155          55.00       203.14
 1268.55        2951.00           2158          61.00       229.30
 1268.58        2951.25           2162          60.00       224.94
 1268.61        2951.50           2165          52.00       190.06
 1268.64        2951.75           2169          63.00       238.01
 1268.67        2952.00           2172          62.00       233.65
 1268.70        2952.25           2176          46.00       163.91
 1268.73        2952.50           2179          57.00       211.86
 1268.76        2952.75           2183          59.00       220.58
 1268.79        2953.00           2186          60.00       224.94
 1268.82        2953.25           2190          60.00       224.94
 1268.85        2953.50           2193          56.00       207.50
 1268.88        2953.75           2197          56.00       207.50
 1268.92        2954.00           2200          56.00       207.50
 1268.95        2954.25           2204          59.00       220.58
 1268.98        2954.50           2208          63.00       238.01
 1269.01        2954.75           2211          62.00       233.65
 1269.04        2955.00           2215          63.00       238.01
 1269.07        2955.25           2218          60.00       224.94
 1269.10        2955.50           2222          67.00       255.45
 1269.13        2955.75           2225          60.00       224.94
 1269.16        2956.00           2229          61.00       229.30
 1269.19        2956.25           2232          59.00       220.58
 1269.22        2956.50           2236          66.00       251.09
 1269.25        2956.75           2239          70.00       268.53
 1269.28        2957.00           2243          71.00       272.89
 1269.31        2957.25           2246          67.00       255.45
 1269.34        2957.50           2250          67.00       255.45
 1269.37        2957.75           2254          69.00       264.17
 1269.40        2958.00           2257          71.00       272.89
 1269.43        2958.25           2261          64.00       242.37
 1269.47        2958.50           2264          72.00       277.25
 1269.50        2958.75           2268          78.00       303.40
 1269.53        2959.00           2271          75.00       290.33
 1269.56        2959.25           2275          79.00       307.76
 1269.59        2959.50           2278          74.00       285.97
 1269.62        2959.75           2282          78.00       303.40
 1269.65        2960.00           2285          80.00       312.12
 1269.68        2960.25           2289          78.00       303.40
 1269.71        2960.50           2293          81.00       316.48
 1269.74        2960.75           2296          94.00       373.15
 1269.77        2961.00           2300         131.00       534.45
 1269.80        2961.25           2303         246.00      1035.78
 1269.83        2961.50           2307         799.00      3446.79
 1269.86        2961.75           2310        1540.00      6678.06
 1269.89        2962.00           2314        2725.00     11846.97
 1269.92        2962.25           2317        3541.00     15407.37
 1269.96        2962.50           2321        4758.00     20719.04
 1269.99        2962.75           2324        5416.00     23591.71
 1270.02        2963.00           2328        6552.00     28552.56
 1270.05        2963.25           2331        7520.00     32781.07
 1270.08        2963.50           2335        8740.00     38112.13
 1270.11        2963.75           2339        9977.00     43519.45
 1270.14        2964.00           2342       10840.00     47293.07
 1270.17        2964.25           2346       12013.00     52423.78
 1270.20        2964.50           2349       12721.00     55521.45
 1270.23        2964.75           2353       13956.00     60926.43
 1270.26        2965.00           2356       14850.00     64840.26
 1270.29        2965.25           2360       15950.00     69657.37
 1270.32        2965.50           2363       16753.00     73174.85
 1270.35        2965.75           2367       17872.00     78077.96
 1270.38        2966.00           2370       18703.00     81720.21
 1270.41        2966.25           2374       19466.00     85065.21
 1270.44        2966.50           2378       20068.00     87704.91
 1270.47        2966.75           2381       19813.00     86586.71
 1270.51        2967.00           2385       20109.00     87884.71
 1270.54        2967.25           2388       19889.00     86919.96
 1270.57        2967.50           2392       19845.00     86727.02
 1270.60        2967.75           2395       19591.00     85613.28
 1270.63        2968.00           2399       19019.00     83105.46
 1270.66        2968.25           2402       18301.00     79958.15
 1270.69        2968.50           2406       17071.00     74568.06
 1270.72        2968.75           2409       16301.00     71194.80
 1270.75        2969.00           2413       15155.00     66175.75
 1270.78        2969.25           2417       14030.00     61250.36
 1270.81        2969.50           2420       13200.00     57617.55
 1270.85        2969.75           2424       12030.00     52498.16
 1270.88        2970.00           2427       11180.00     48780.05
 1270.91        2970.25           2431       10118.00     44135.93
 1270.94        2970.50           2434        9212.00     40175.15
 1270.97        2970.75           2438        7993.00     34847.72
 1271.01        2971.00           2441        7065.00     30793.34
 1271.04        2971.25           2445        5948.00     25914.72
 1271.07        2971.50           2449        4824.00     21007.16
 1271.10        2971.75           2452        4028.00     17532.68
 1271.13        2972.00           2456        3061.00     13312.91
 1271.16        2972.25           2459        2232.00      9696.31
 1271.19        2972.50           2463        1221.00      5286.91
 1271.22        2972.75           2466         558.00      2396.01
 1271.25        2973.00           2470         157.00       647.79
 1271.28        2973.25           2473         116.00       469.06
 1271.31        2973.50           2477          91.00       360.07
 1271.34        2973.75           2481          86.00       338.28
 1271.37        2974.00           2484          79.00       307.76
 1271.40        2974.25           2488          76.00       294.68
 1271.43        2974.50           2491          84.00       329.56
 1271.46        2974.75           2495          76.00       294.68
 1271.49        2975.00           2498          88.00       347.00
 1271.53        2975.25           2502          77.00       299.04
 1271.56        2975.50           2505          81.00       316.48
 1271.59        2975.75           2509          69.00       264.17
 1271.62        2976.00           2512          80.00       312.12
 1271.65        2976.25           2516          64.00       242.37
 1271.68        2976.50           2520          69.00       264.17
 1271.71        2976.75           2523          71.00       272.89
 1271.74        2977.00           2527          65.00       246.73
 1271.77        2977.25           2530          69.00       264.17
 1271.80        2977.50           2534          66.00       251.09
 1271.83        2977.75           2537          74.00       285.97
 1271.86        2978.00           2541          62.00       233.65
 1271.89        2978.25           2544          64.00       242.37
 1271.92        2978.50           2548          68.00       259.81
 1271.95        2978.75           2552          60.00       224.94
 1271.98        2979.00           2555          59.00       220.58
 1272.01        2979.25           2559          63.00       238.01
 1272.05        2979.50           2562          63.00       238.01
 1272.08        2979.75           2566          58.00       216.22
 1272.11        2980.00           2569          62.00       233.65
 1272.14        2980.25           2573          61.00       229.30
 1272.17        2980.50           2577          64.00       242.37
 1272.20        2980.75           2580          63.00       238.01
 1272.23        2981.00           2584          58.00       216.22
 1272.26        2981.25           2587          58.00       216.22
 1272.29        2981.50           2591          63.00       238.01
 1272.32        2981.75           2594          55.00       203.14
 1272.35        2982.00           2598          66.00       251.09
 1272.38        2982.25           2601          60.00       224.94
 1272.41        2982.50           2605          62.00       233.65
 1272.44        2982.75           2609          55.00       203.14
 1272.47        2983.00           2612          56.00       207.50
 1272.50        2983.25           2616          55.00       203.14
 1272.53        2983.50           2619          54.00       198.78
 1272.57        2983.75           2623          61.00       229.30
 1272.60        2984.00           2626          63.00       238.01
HS scan finished at 21:12:49
end
