************************************************************
  HS Scan of (1) Internal mercury lamp
************************************************************
Integration time is 0.2294 seconds per sample
dh120619Reading 51.44 .94 3.17pr1000
************************************************************
Dead Time -------------------------  3.4E-08 
Number of Cycles Used -------------  4 
Starting Wavelength (Angstroms) ---  2950 
Final Wavelength (Angstoms) -------  2984 
Wavelength Increment (Angstroms) --  .25 
Filter Wheel #1 Position ---------- (1) Ground quartz diffuser (ND=2.32)
Filter Wheel #2 Position ---------- (1) Neutral Density 0.494



************************************************************
HS scan start time = 01:15:48
Dark Count =  1.3 


Time (GMT)  Wavelength (Ang)  Step Number  Raw Counts  Counts/Second

   76.70        2950.00           2144        1425.00      6207.50
   76.90        2950.25           2147        1422.00      6194.42
   76.93        2950.50           2151        1448.00      6307.80
   76.96        2950.75           2155        1451.00      6320.89
   76.99        2951.00           2158        1414.00      6159.53
   77.02        2951.25           2162        1449.00      6312.17
   77.05        2951.50           2165        1454.00      6333.97
   77.08        2951.75           2169        1450.00      6316.53
   77.11        2952.00           2172        1469.00      6399.39
   77.14        2952.25           2176        1472.00      6412.47
   77.17        2952.50           2179        1454.00      6333.97
   77.20        2952.75           2183        1454.00      6333.97
   77.23        2953.00           2186        1469.00      6399.39
   77.26        2953.25           2190        1472.00      6412.47
   77.29        2953.50           2193        1493.00      6504.05
   77.33        2953.75           2197        1504.00      6552.03
   77.36        2954.00           2200        1494.00      6508.41
   77.39        2954.25           2204        1528.00      6656.69
   77.42        2954.50           2208        1489.00      6486.61
   77.45        2954.75           2211        1499.00      6530.22
   77.48        2955.00           2215        1557.00      6783.17
   77.51        2955.25           2218        1540.00      6709.03
   77.54        2955.50           2222        1513.00      6591.28
   77.57        2955.75           2225        1564.00      6813.70
   77.60        2956.00           2229        1544.00      6726.47
   77.63        2956.25           2232        1605.00      6992.51
   77.66        2956.50           2236        1537.00      6695.95
   77.69        2956.75           2239        1568.00      6831.14
   77.72        2957.00           2243        1587.00      6914.01
   77.75        2957.25           2246        1619.00      7053.57
   77.78        2957.50           2250        1589.00      6922.73
   77.81        2957.75           2254        1647.00      7175.68
   77.85        2958.00           2257        1639.00      7140.79
   77.88        2958.25           2261        1681.00      7323.97
   77.91        2958.50           2264        1703.00      7419.92
   77.94        2958.75           2268        1794.00      7816.81
   77.97        2959.00           2271        1747.00      7611.82
   78.00        2959.25           2275        1771.00      7716.50
   78.03        2959.50           2278        1795.00      7821.17
   78.06        2959.75           2282        1794.00      7816.81
   78.09        2960.00           2285        1840.00      8017.44
   78.12        2960.25           2289        1905.00      8300.95
   78.15        2960.50           2293        1945.00      8475.42
   78.18        2960.75           2296        1974.00      8601.91
   78.21        2961.00           2300        2266.00      9875.59
   78.24        2961.25           2303        3488.00     15207.08
   78.27        2961.50           2307       11820.00     51610.54
   78.30        2961.75           2310       24703.00    108076.00
   78.33        2962.00           2314       45946.00    201660.00
   78.37        2962.25           2317       64238.00    282725.20
   78.40        2962.50           2321       86339.00    381273.80
   78.43        2962.75           2324      102187.00    452351.70
   78.46        2963.00           2328      127228.00    565370.50
   78.49        2963.25           2331      148445.00    661821.50
   78.52        2963.50           2335      176793.00    791696.40
   78.55        2963.75           2339      202458.00    910290.80
   78.58        2964.00           2342      219676.00    990400.60
   78.61        2964.25           2346      244943.00   1108770.00
   78.64        2964.50           2349      263210.00   1194955.00
   78.67        2964.75           2353      286624.00   1306184.00
   78.70        2965.00           2356      305964.00   1398713.00
   78.73        2965.25           2360      331041.00   1519585.00
   78.76        2965.50           2363      348132.00   1602552.00
   78.79        2965.75           2367      368407.00   1701605.00
   78.82        2966.00           2370      384301.00   1779739.00
   78.85        2966.25           2374      403433.00   1874362.00
   78.88        2966.50           2378      413887.00   1926333.00
   78.92        2966.75           2381      412424.00   1919048.00
   78.95        2967.00           2385      418133.00   1947495.00
   78.98        2967.25           2388      417732.00   1945495.00
   79.01        2967.50           2392      417246.00   1943072.00
   79.04        2967.75           2395      414741.00   1930586.00
   79.07        2968.00           2399      404892.00   1881604.00
   79.10        2968.25           2402      393138.00   1823367.00
   79.13        2968.50           2406      374494.00   1731478.00
   79.16        2968.75           2409      356131.00   1641549.00
   79.19        2969.00           2413      333112.00   1529613.00
   79.22        2969.25           2417      310357.00   1419813.00
   79.25        2969.50           2420      293088.00   1337043.00
   79.28        2969.75           2424      270434.00   1229181.00
   79.31        2970.00           2427      252101.00   1142481.00
   79.34        2970.25           2431      227113.00   1025140.00
   79.37        2970.50           2434      207563.00    933996.40
   79.41        2970.75           2438      180765.00    809987.10
   79.44        2971.00           2441      161774.00    722743.00
   79.47        2971.25           2445      137848.00    613568.40
   79.50        2971.50           2449      113944.00    505306.10
   79.53        2971.75           2452       96659.00    427519.40
   79.56        2972.00           2456       72888.00    321216.60
   79.59        2972.25           2459       54460.00    239335.90
   79.62        2972.50           2463       30687.00    134377.60
   79.65        2972.75           2466       15596.00     68138.06
   79.68        2973.00           2470        4652.00     20287.31
   79.71        2973.25           2473        2506.00     10922.54
   79.74        2973.50           2477        2072.00      9029.36
   79.77        2973.75           2481        1990.00      8671.69
   79.80        2974.00           2484        1942.00      8462.33
   79.83        2974.25           2488        1907.00      8309.67
   79.86        2974.50           2491        1868.00      8139.57
   79.89        2974.75           2495        1821.00      7934.57
   79.92        2975.00           2498        1794.00      7816.81
   79.96        2975.25           2502        1749.00      7620.55
   79.99        2975.50           2505        1783.00      7768.83
   80.02        2975.75           2509        1721.00      7498.42
   80.05        2976.00           2512        1694.00      7380.67
   80.08        2976.25           2516        1688.00      7354.50
   80.11        2976.50           2520        1686.00      7345.78
   80.14        2976.75           2523        1672.00      7284.72
   80.17        2977.00           2527        1621.00      7062.29
   80.20        2977.25           2530        1597.00      6957.62
   80.23        2977.50           2534        1601.00      6975.06
   80.26        2977.75           2537        1567.00      6826.78
   80.29        2978.00           2541        1620.00      7057.93
   80.32        2978.25           2544        1585.00      6905.28
   80.35        2978.50           2548        1546.00      6735.20
   80.38        2978.75           2552        1560.00      6796.25
   80.41        2979.00           2555        1537.00      6695.95
   80.44        2979.25           2559        1554.00      6770.08
   80.48        2979.50           2562        1534.00      6682.86
   80.51        2979.75           2566        1506.00      6560.75
   80.54        2980.00           2569        1447.00      6303.44
   80.57        2980.25           2573        1456.00      6342.69
   80.60        2980.50           2577        1447.00      6303.44
   80.63        2980.75           2580        1486.00      6473.53
   80.66        2981.00           2584        1462.00      6368.86
   80.69        2981.25           2587        1415.00      6163.89
   80.72        2981.50           2591        1426.00      6211.86
   80.75        2981.75           2594        1389.00      6050.50
   80.78        2982.00           2598        1416.00      6168.25
   80.81        2982.25           2601        1411.00      6146.45
   80.84        2982.50           2605        1387.00      6041.78
   80.87        2982.75           2609        1387.00      6041.78
   80.90        2983.00           2612        1395.00      6076.67
   80.93        2983.25           2616        1399.00      6094.11
   80.96        2983.50           2619        1419.00      6181.33
   81.00        2983.75           2623        1390.00      6054.86
   81.03        2984.00           2626        1394.00      6072.31
HS scan finished at 01:21:15
end
************************************************************
  HS Scan of (1) Internal mercury lamp
************************************************************
Integration time is 0.2294 seconds per sample
dh120619Reading 51.44 .94 3.23pr1000
************************************************************
Dead Time -------------------------  3.4E-08 
Number of Cycles Used -------------  4 
Starting Wavelength (Angstroms) ---  2950 
Final Wavelength (Angstoms) -------  2984 
Wavelength Increment (Angstroms) --  .25 
Filter Wheel #1 Position ---------- (1) Ground quartz diffuser (ND=2.32)
Filter Wheel #2 Position ---------- (1) Neutral Density 0.494



************************************************************
HS scan start time = 21:09:53
Dark Count =  1 


Time (GMT)  Wavelength (Ang)  Step Number  Raw Counts  Counts/Second

 1270.78        2950.00           2144        1454.00      6335.28
 1270.97        2950.25           2147        1433.00      6243.70
 1271.00        2950.50           2151        1439.00      6269.86
 1271.03        2950.75           2155        1475.00      6426.86
 1271.06        2951.00           2158        1440.00      6274.22
 1271.09        2951.25           2162        1433.00      6243.70
 1271.12        2951.50           2165        1457.00      6348.36
 1271.15        2951.75           2169        1482.00      6457.39
 1271.19        2952.00           2172        1485.00      6470.47
 1271.22        2952.25           2176        1435.00      6252.42
 1271.25        2952.50           2179        1460.00      6361.45
 1271.28        2952.75           2183        1504.00      6553.33
 1271.31        2953.00           2186        1501.00      6540.25
 1271.34        2953.25           2190        1484.00      6466.11
 1271.37        2953.50           2193        1518.00      6614.39
 1271.40        2953.75           2197        1463.00      6374.53
 1271.43        2954.00           2200        1514.00      6596.95
 1271.46        2954.25           2204        1479.00      6444.31
 1271.49        2954.50           2208        1523.00      6636.20
 1271.52        2954.75           2211        1530.00      6666.73
 1271.55        2955.00           2215        1524.00      6640.56
 1271.58        2955.25           2218        1549.00      6749.59
 1271.61        2955.50           2222        1524.00      6640.56
 1271.64        2955.75           2225        1563.00      6810.64
 1271.67        2956.00           2229        1569.00      6836.81
 1271.71        2956.25           2232        1581.00      6889.15
 1271.74        2956.50           2236        1570.00      6841.17
 1271.77        2956.75           2239        1568.00      6832.45
 1271.80        2957.00           2243        1549.00      6749.59
 1271.83        2957.25           2246        1611.00      7019.98
 1271.86        2957.50           2250        1645.00      7168.27
 1271.89        2957.75           2254        1610.00      7015.62
 1271.92        2958.00           2257        1623.00      7072.32
 1271.95        2958.25           2261        1659.00      7229.33
 1271.98        2958.50           2264        1696.00      7390.70
 1272.01        2958.75           2268        1708.00      7443.03
 1272.04        2959.00           2271        1687.00      7351.45
 1272.07        2959.25           2275        1760.00      7669.83
 1272.10        2959.50           2278        1752.00      7634.94
 1272.13        2959.75           2282        1832.00      7983.86
 1272.16        2960.00           2285        1814.00      7905.35
 1272.19        2960.25           2289        1851.00      8066.73
 1272.22        2960.50           2293        1880.00      8193.22
 1272.26        2960.75           2296        1907.00      8310.98
 1272.29        2961.00           2300        2053.00      8947.80
 1272.32        2961.25           2303        2506.00     10923.85
 1272.35        2961.50           2307        6909.00     30144.22
 1272.38        2961.75           2310       16111.00     70394.97
 1272.41        2962.00           2314       35163.00    154083.20
 1272.44        2962.25           2317       51502.00    226236.60
 1272.47        2962.50           2321       71478.00    314936.70
 1272.50        2962.75           2324       87693.00    387334.30
 1272.53        2963.00           2328      111245.00    493133.90
 1272.56        2963.25           2331      129986.00    577873.50
 1272.59        2963.50           2335      157528.00    703309.80
 1272.62        2963.75           2339      180881.00    810523.00
 1272.65        2964.00           2342      197433.00    886995.80
 1272.68        2964.25           2346      219586.00    989982.10
 1272.71        2964.50           2349      238666.00   1079275.00
 1272.74        2964.75           2353      263490.00   1196282.00
 1272.78        2965.00           2356      281858.00   1283475.00
 1272.81        2965.25           2360      304456.00   1391478.00
 1272.84        2965.50           2363      321018.00   1471152.00
 1272.87        2965.75           2367      341825.00   1571881.00
 1272.90        2966.00           2370      358394.00   1652603.00
 1272.93        2966.25           2374      378214.00   1749767.00
 1272.96        2966.50           2378      393766.00   1826474.00
 1272.99        2966.75           2381      401064.00   1862613.00
 1273.02        2967.00           2385      404790.00   1881099.00
 1273.05        2967.25           2388      404994.00   1882112.00
 1273.08        2967.50           2392      405026.00   1882271.00
 1273.11        2967.75           2395      404406.00   1879193.00
 1273.14        2968.00           2399      401937.00   1866942.00
 1273.17        2968.25           2402      394004.00   1827651.00
 1273.20        2968.50           2406      376145.00   1739593.00
 1273.23        2968.75           2409      359636.00   1658672.00
 1273.26        2969.00           2413      336280.00   1544968.00
 1273.30        2969.25           2417      315154.00   1442892.00
 1273.33        2969.50           2420      298372.00   1362320.00
 1273.36        2969.75           2424      274560.00   1248767.00
 1273.39        2970.00           2427      255081.00   1156540.00
 1273.42        2970.25           2431      228159.00   1030035.00
 1273.45        2970.50           2434      210469.00    947509.60
 1273.48        2970.75           2438      185226.00    830558.50
 1273.51        2971.00           2441      166116.00    742645.20
 1273.54        2971.25           2445      141330.00    629407.20
 1273.57        2971.50           2449      117206.00    520033.80
 1273.60        2971.75           2452      100386.00    444258.10
 1273.63        2972.00           2456       75941.00    334827.60
 1273.66        2972.25           2459       56697.00    249252.50
 1273.69        2972.50           2463       33455.00    146561.10
 1273.72        2972.75           2466       18224.00     79653.10
 1273.75        2973.00           2470        6570.00     28663.49
 1273.78        2973.25           2473        3367.00     14680.39
 1273.82        2973.50           2477        2194.00      9562.83
 1273.85        2973.75           2481        2002.00      8725.34
 1273.88        2974.00           2484        1972.00      8594.49
 1273.91        2974.25           2488        1915.00      8345.87
 1273.94        2974.50           2491        1830.00      7975.14
 1273.97        2974.75           2495        1845.00      8040.56
 1274.00        2975.00           2498        1843.00      8031.84
 1274.03        2975.25           2502        1793.00      7813.76
 1274.06        2975.50           2505        1779.00      7752.70
 1274.09        2975.75           2509        1720.00      7495.37
 1274.12        2976.00           2512        1666.00      7259.86
 1274.15        2976.25           2516        1709.00      7447.40
 1274.18        2976.50           2520        1691.00      7368.89
 1274.21        2976.75           2523        1663.00      7246.77
 1274.24        2977.00           2527        1602.00      6980.73
 1274.27        2977.25           2530        1606.00      6998.18
 1274.31        2977.50           2534        1621.00      7063.60
 1274.34        2977.75           2537        1583.00      6897.87
 1274.37        2978.00           2541        1575.00      6862.98
 1274.40        2978.25           2544        1555.00      6775.76
 1274.43        2978.50           2548        1537.00      6697.25
 1274.46        2978.75           2552        1517.00      6610.03
 1274.49        2979.00           2555        1501.00      6540.25
 1274.52        2979.25           2559        1489.00      6487.92
 1274.55        2979.50           2562        1509.00      6575.14
 1274.58        2979.75           2566        1483.00      6461.75
 1274.61        2980.00           2569        1507.00      6566.42
 1274.64        2980.25           2573        1461.00      6365.81
 1274.67        2980.50           2577        1460.00      6361.45
 1274.70        2980.75           2580        1471.00      6409.42
 1274.73        2981.00           2584        1418.00      6178.28
 1274.76        2981.25           2587        1454.00      6335.28
 1274.79        2981.50           2591        1429.00      6226.25
 1274.82        2981.75           2594        1474.00      6422.50
 1274.86        2982.00           2598        1433.00      6243.70
 1274.89        2982.25           2601        1374.00      5986.40
 1274.92        2982.50           2605        1424.00      6204.45
 1274.95        2982.75           2609        1411.00      6147.75
 1274.98        2983.00           2612        1390.00      6056.17
 1275.01        2983.25           2616        1382.00      6021.29
 1275.04        2983.50           2619        1411.00      6147.75
 1275.07        2983.75           2623        1403.00      6112.87
 1275.10        2984.00           2626        1346.00      5864.29
HS scan finished at 21:15:19
end
