************************************************************
  HS Scan of (1) Internal mercury lamp
************************************************************
Integration time is 0.2294 seconds per sample
dh150617Reading 51.44 .94 3.54pr1000
************************************************************
Dead Time -------------------------  3.4E-08 
Number of Cycles Used -------------  4 
Starting Wavelength (Angstroms) ---  2950 
Final Wavelength (Angstoms) -------  2984 
Wavelength Increment (Angstroms) --  .25 
Filter Wheel #1 Position ---------- (1) Ground quartz diffuser (ND=2.32)
Filter Wheel #2 Position ---------- (1) Neutral Density 0.494



************************************************************
HS scan start time = 01:08:21
Dark Count =  3 


Time (GMT)  Wavelength (Ang)  Step Number  Raw Counts  Counts/Second

   69.25        2950.00           2144         333.00      1438.61
   69.45        2950.25           2147         360.00      1556.32
   69.48        2950.50           2151         341.00      1473.48
   69.51        2950.75           2155         320.00      1381.93
   69.54        2951.00           2158         327.00      1412.45
   69.57        2951.25           2162         335.00      1447.33
   69.60        2951.50           2165         338.00      1460.40
   69.63        2951.75           2169         325.00      1403.73
   69.66        2952.00           2172         351.00      1517.08
   69.69        2952.25           2176         357.00      1543.24
   69.72        2952.50           2179         352.00      1521.44
   69.75        2952.75           2183         349.00      1508.36
   69.78        2953.00           2186         327.00      1412.45
   69.81        2953.25           2190         343.00      1482.20
   69.84        2953.50           2193         368.00      1591.19
   69.87        2953.75           2197         369.00      1595.55
   69.90        2954.00           2200         357.00      1543.24
   69.93        2954.25           2204         359.00      1551.96
   69.97        2954.50           2208         360.00      1556.32
   70.00        2954.75           2211         351.00      1517.08
   70.03        2955.00           2215         361.00      1560.68
   70.06        2955.25           2218         377.00      1630.43
   70.09        2955.50           2222         381.00      1647.87
   70.12        2955.75           2225         365.00      1578.11
   70.15        2956.00           2229         383.00      1656.59
   70.18        2956.25           2232         392.00      1695.83
   70.21        2956.50           2236         367.00      1586.83
   70.24        2956.75           2239         393.00      1700.19
   70.27        2957.00           2243         436.00      1887.65
   70.30        2957.25           2246         403.00      1743.78
   70.33        2957.50           2250         416.00      1800.46
   70.36        2957.75           2254         400.00      1730.70
   70.39        2958.00           2257         431.00      1865.86
   70.42        2958.25           2261         422.00      1826.62
   70.46        2958.50           2264         436.00      1887.65
   70.49        2958.75           2268         421.00      1822.26
   70.52        2959.00           2271         440.00      1905.09
   70.55        2959.25           2275         437.00      1892.01
   70.58        2959.50           2278         456.00      1974.85
   70.61        2959.75           2282         450.00      1948.69
   70.64        2960.00           2285         455.00      1970.49
   70.67        2960.25           2289         498.00      2157.96
   70.70        2960.50           2293         526.00      2280.04
   70.73        2960.75           2296         499.00      2162.32
   70.76        2961.00           2300         583.00      2528.55
   70.79        2961.25           2303        1110.00      4826.42
   70.82        2961.50           2307        4162.00     18141.09
   70.85        2961.75           2310        8250.00     35994.33
   70.88        2962.00           2314       15061.00     65787.80
   70.91        2962.25           2317       20455.00     89425.81
   70.94        2962.50           2321       27887.00    122057.40
   70.97        2962.75           2324       33266.00    145720.20
   71.01        2963.00           2328       41340.00    181310.40
   71.04        2963.25           2331       47620.00    209052.60
   71.07        2963.50           2335       55941.00    245892.00
   71.10        2963.75           2339       63366.00    278843.00
   71.13        2964.00           2342       68960.00    303717.40
   71.16        2964.25           2346       77179.00    340341.00
   71.19        2964.50           2349       83364.00    367961.90
   71.22        2964.75           2353       91406.00    403954.00
   71.25        2965.00           2356       96954.00    428835.80
   71.28        2965.25           2360      103575.00    458585.60
   71.31        2965.50           2363      109069.00    483317.70
   71.34        2965.75           2367      117495.00    521330.20
   71.37        2966.00           2370      123311.00    547626.10
   71.40        2966.25           2374      130257.00    579093.30
   71.43        2966.50           2378      133032.00    591683.90
   71.46        2966.75           2381      135029.00    600751.30
   71.49        2967.00           2385      135407.00    602468.30
   71.53        2967.25           2388      135292.00    601945.80
   71.56        2967.50           2392      135263.00    601814.10
   71.59        2967.75           2395      134869.00    600024.60
   71.62        2968.00           2399      132666.00    590022.70
   71.65        2968.25           2402      128167.00    569618.00
   71.68        2968.50           2406      121064.00    537461.10
   71.71        2968.75           2409      115643.00    512966.70
   71.74        2969.00           2413      108859.00    482371.60
   71.77        2969.25           2417      102404.00    453319.70
   71.80        2969.50           2420       96380.00    426259.60
   71.83        2969.75           2424       87755.00    387602.90
   71.86        2970.00           2427       81229.00    358421.60
   71.89        2970.25           2431       72647.00    320135.20
   71.92        2970.50           2434       66731.00    293800.80
   71.95        2970.75           2438       58887.00    258957.00
   71.98        2971.00           2441       53206.00    233773.20
   72.01        2971.25           2445       44311.00    194428.40
   72.05        2971.50           2449       35497.00    155545.80
   72.08        2971.75           2452       29354.00    128507.10
   72.11        2972.00           2456       21867.00     95619.87
   72.14        2972.25           2459       16726.00     73080.22
   72.17        2972.50           2463        9501.00     41462.08
   72.20        2972.75           2466        4784.00     20856.11
   72.23        2973.00           2470        1477.00      6426.86
   72.26        2973.25           2473         765.00      3322.08
   72.29        2973.50           2477         579.00      2511.11
   72.32        2973.75           2481         528.00      2288.76
   72.35        2974.00           2484         547.00      2371.60
   72.38        2974.25           2488         499.00      2162.32
   72.41        2974.50           2491         526.00      2280.04
   72.44        2974.75           2495         487.00      2110.00
   72.47        2975.00           2498         480.00      2079.48
   72.50        2975.25           2502         461.00      1996.65
   72.53        2975.50           2505         468.00      2027.17
   72.57        2975.75           2509         444.00      1922.53
   72.60        2976.00           2512         448.00      1939.97
   72.63        2976.25           2516         430.00      1861.50
   72.66        2976.50           2520         434.00      1878.93
   72.69        2976.75           2523         424.00      1835.34
   72.72        2977.00           2527         400.00      1730.70
   72.75        2977.25           2530         414.00      1791.74
   72.78        2977.50           2534         418.00      1809.18
   72.81        2977.75           2537         428.00      1852.78
   72.84        2978.00           2541         427.00      1848.42
   72.87        2978.25           2544         406.00      1756.86
   72.90        2978.50           2548         373.00      1612.99
   72.93        2978.75           2552         390.00      1687.11
   72.96        2979.00           2555         393.00      1700.19
   72.99        2979.25           2559         393.00      1700.19
   73.02        2979.50           2562         397.00      1717.62
   73.05        2979.75           2566         365.00      1578.11
   73.09        2980.00           2569         366.00      1582.47
   73.12        2980.25           2573         366.00      1582.47
   73.15        2980.50           2577         355.00      1534.52
   73.18        2980.75           2580         382.00      1652.23
   73.21        2981.00           2584         370.00      1599.91
   73.24        2981.25           2587         378.00      1634.79
   73.27        2981.50           2591         360.00      1556.32
   73.30        2981.75           2594         349.00      1508.36
   73.33        2982.00           2598         341.00      1473.48
   73.36        2982.25           2601         362.00      1565.04
   73.39        2982.50           2605         355.00      1534.52
   73.42        2982.75           2609         335.00      1447.33
   73.45        2983.00           2612         360.00      1556.32
   73.48        2983.25           2616         339.00      1464.76
   73.51        2983.50           2619         322.00      1390.65
   73.54        2983.75           2623         336.00      1451.68
   73.57        2984.00           2626         350.00      1512.72
HS scan finished at 01:13:48
end
************************************************************
  HS Scan of (1) Internal mercury lamp
************************************************************
Integration time is 0.2294 seconds per sample
dh150617Reading 51.44 .94 3.45pr1000
************************************************************
Dead Time -------------------------  3.4E-08 
Number of Cycles Used -------------  4 
Starting Wavelength (Angstroms) ---  2950 
Final Wavelength (Angstoms) -------  2984 
Wavelength Increment (Angstroms) --  .25 
Filter Wheel #1 Position ---------- (1) Ground quartz diffuser (ND=2.32)
Filter Wheel #2 Position ---------- (1) Neutral Density 0.494



************************************************************
HS scan start time = 21:07:22
Dark Count =  2.4 


Time (GMT)  Wavelength (Ang)  Step Number  Raw Counts  Counts/Second

 1268.27        2950.00           2144         341.00      1476.10
 1268.47        2950.25           2147         354.00      1532.77
 1268.50        2950.50           2151         382.00      1654.84
 1268.53        2950.75           2155         373.00      1615.61
 1268.56        2951.00           2158         357.00      1545.85
 1268.59        2951.25           2162         363.00      1572.01
 1268.62        2951.50           2165         354.00      1532.77
 1268.65        2951.75           2169         372.00      1611.25
 1268.68        2952.00           2172         400.00      1733.32
 1268.71        2952.25           2176         376.00      1628.69
 1268.74        2952.50           2179         378.00      1637.41
 1268.77        2952.75           2183         366.00      1585.09
 1268.80        2953.00           2186         374.00      1619.97
 1268.83        2953.25           2190         404.00      1750.76
 1268.86        2953.50           2193         366.00      1585.09
 1268.89        2953.75           2197         413.00      1790.00
 1268.92        2954.00           2200         388.00      1681.00
 1268.96        2954.25           2204         417.00      1807.43
 1268.99        2954.50           2208         392.00      1698.44
 1269.02        2954.75           2211         399.00      1728.96
 1269.05        2955.00           2215         404.00      1750.76
 1269.08        2955.25           2218         421.00      1824.87
 1269.11        2955.50           2222         403.00      1746.40
 1269.14        2955.75           2225         406.00      1759.48
 1269.17        2956.00           2229         404.00      1750.76
 1269.20        2956.25           2232         411.00      1781.28
 1269.23        2956.50           2236         425.00      1842.31
 1269.26        2956.75           2239         393.00      1702.80
 1269.29        2957.00           2243         414.00      1794.36
 1269.32        2957.25           2246         428.00      1855.39
 1269.35        2957.50           2250         428.00      1855.39
 1269.38        2957.75           2254         435.00      1885.91
 1269.41        2958.00           2257         437.00      1894.63
 1269.44        2958.25           2261         441.00      1912.07
 1269.48        2958.50           2264         447.00      1938.23
 1269.51        2958.75           2268         450.00      1951.31
 1269.54        2959.00           2271         446.00      1933.87
 1269.57        2959.25           2275         468.00      2029.78
 1269.60        2959.50           2278         460.00      1994.90
 1269.63        2959.75           2282         468.00      2029.78
 1269.66        2960.00           2285         508.00      2204.18
 1269.69        2960.25           2289         541.00      2348.05
 1269.72        2960.50           2293         515.00      2234.69
 1269.75        2960.75           2296         540.00      2343.69
 1269.78        2961.00           2300         578.00      2509.37
 1269.81        2961.25           2303         894.00      3887.17
 1269.84        2961.50           2307        3430.00     14949.19
 1269.87        2961.75           2310        7456.00     32527.67
 1269.90        2962.00           2314       13923.00     60808.24
 1269.93        2962.25           2317       19459.00     85060.82
 1269.96        2962.50           2321       27018.00    118240.80
 1269.99        2962.75           2324       33206.00    145458.70
 1270.03        2963.00           2328       41030.00    179945.00
 1270.06        2963.25           2331       46966.00    206163.70
 1270.09        2963.50           2335       54251.00    238405.00
 1270.12        2963.75           2339       62260.00    273932.70
 1270.15        2964.00           2342       68340.00    300961.10
 1270.18        2964.25           2346       76876.00    338992.00
 1270.21        2964.50           2349       82928.00    366015.80
 1270.24        2964.75           2353       90429.00    399579.40
 1270.27        2965.00           2356       95538.00    422484.00
 1270.30        2965.25           2360      102324.00    452962.70
 1270.33        2965.50           2363      108563.00    481040.80
 1270.36        2965.75           2367      115922.00    514229.00
 1270.39        2966.00           2370      121506.00    539462.80
 1270.42        2966.25           2374      128657.00    571841.60
 1270.45        2966.50           2378      132927.00    591210.00
 1270.48        2966.75           2381      133859.00    595440.90
 1270.51        2967.00           2385      134509.00    598392.40
 1270.55        2967.25           2388      134622.00    598905.50
 1270.58        2967.50           2392      134387.00    597838.40
 1270.61        2967.75           2395      134117.00    596612.30
 1270.64        2968.00           2399      131754.00    585886.80
 1270.67        2968.25           2402      127987.00    568804.90
 1270.70        2968.50           2406      120939.00    536898.50
 1270.73        2968.75           2409      115673.00    513104.90
 1270.76        2969.00           2413      108893.00    482527.40
 1270.79        2969.25           2417      101025.00    447123.40
 1270.82        2969.50           2420       95291.00    421375.80
 1270.85        2969.75           2424       86917.00    383855.20
 1270.88        2970.00           2427       80975.00    357289.60
 1270.91        2970.25           2431       73107.00    322187.50
 1270.94        2970.50           2434       67591.00    297628.70
 1270.97        2970.75           2438       59978.00    263801.10
 1271.00        2971.00           2441       54502.00    239517.20
 1271.03        2971.25           2445       45094.00    197890.20
 1271.07        2971.50           2449       36166.00    158496.10
 1271.10        2971.75           2452       30099.00    131786.20
 1271.13        2972.00           2456       22338.00     97689.24
 1271.16        2972.25           2459       16660.00     72793.71
 1271.19        2972.50           2463       10038.00     43812.38
 1271.22        2972.75           2466        5436.00     23705.24
 1271.25        2973.00           2470        1732.00      7541.60
 1271.28        2973.25           2473         805.00      3499.11
 1271.31        2973.50           2477         610.00      2648.89
 1271.34        2973.75           2481         557.00      2417.81
 1271.37        2974.00           2484         545.00      2365.49
 1271.40        2974.25           2488         524.00      2273.93
 1271.43        2974.50           2491         511.00      2217.26
 1271.46        2974.75           2495         494.00      2143.14
 1271.49        2975.00           2498         515.00      2234.69
 1271.52        2975.25           2502         487.00      2112.62
 1271.55        2975.50           2505         468.00      2029.78
 1271.59        2975.75           2509         475.00      2060.30
 1271.62        2976.00           2512         460.00      1994.90
 1271.65        2976.25           2516         444.00      1925.15
 1271.68        2976.50           2520         441.00      1912.07
 1271.71        2976.75           2523         443.00      1920.79
 1271.74        2977.00           2527         446.00      1933.87
 1271.77        2977.25           2530         435.00      1885.91
 1271.80        2977.50           2534         444.00      1925.15
 1271.83        2977.75           2537         428.00      1855.39
 1271.86        2978.00           2541         414.00      1794.36
 1271.89        2978.25           2544         426.00      1846.67
 1271.92        2978.50           2548         417.00      1807.43
 1271.95        2978.75           2552         421.00      1824.87
 1271.98        2979.00           2555         378.00      1637.41
 1272.01        2979.25           2559         399.00      1728.96
 1272.04        2979.50           2562         398.00      1724.60
 1272.07        2979.75           2566         392.00      1698.44
 1272.11        2980.00           2569         384.00      1663.56
 1272.14        2980.25           2573         418.00      1811.79
 1272.17        2980.50           2577         385.00      1667.92
 1272.20        2980.75           2580         391.00      1694.08
 1272.23        2981.00           2584         383.00      1659.20
 1272.26        2981.25           2587         363.00      1572.01
 1272.29        2981.50           2591         385.00      1667.92
 1272.32        2981.75           2594         369.00      1598.17
 1272.35        2982.00           2598         355.00      1537.13
 1272.38        2982.25           2601         366.00      1585.09
 1272.41        2982.50           2605         357.00      1545.85
 1272.44        2982.75           2609         381.00      1650.49
 1272.47        2983.00           2612         382.00      1654.84
 1272.50        2983.25           2616         346.00      1497.90
 1272.53        2983.50           2619         338.00      1463.02
 1272.56        2983.75           2623         351.00      1519.69
 1272.59        2984.00           2626         389.00      1685.36
HS scan finished at 21:12:49
end
