************************************************************
  HS Scan of (1) Internal mercury lamp
************************************************************
Integration time is 0.2294 seconds per sample
dh120617Reading 51.44 .94 3.39pr1000
************************************************************
Dead Time -------------------------  3.4E-08 
Number of Cycles Used -------------  4 
Starting Wavelength (Angstroms) ---  2950 
Final Wavelength (Angstoms) -------  2984 
Wavelength Increment (Angstroms) --  .25 
Filter Wheel #1 Position ---------- (1) Ground quartz diffuser (ND=2.32)
Filter Wheel #2 Position ---------- (1) Neutral Density 0.494



************************************************************
HS scan start time = 21:19:23
Dark Count =  2.5 


Time (GMT)  Wavelength (Ang)  Step Number  Raw Counts  Counts/Second

 1280.28        2950.00           2144         198.00       852.25
 1280.47        2950.25           2147         223.00       961.23
 1280.50        2950.50           2151         201.00       865.33
 1280.53        2950.75           2155         211.00       908.92
 1280.56        2951.00           2158         215.00       926.36
 1280.59        2951.25           2162         226.00       974.31
 1280.62        2951.50           2165         212.00       913.28
 1280.66        2951.75           2169         200.00       860.97
 1280.69        2952.00           2172         208.00       895.84
 1280.72        2952.25           2176         207.00       891.48
 1280.75        2952.50           2179         198.00       852.25
 1280.78        2952.75           2183         210.00       904.56
 1280.81        2953.00           2186         258.00      1113.82
 1280.84        2953.25           2190         219.00       943.80
 1280.87        2953.50           2193         213.00       917.64
 1280.90        2953.75           2197         273.00      1179.21
 1280.93        2954.00           2200         226.00       974.31
 1280.96        2954.25           2204         223.00       961.23
 1280.99        2954.50           2208         212.00       913.28
 1281.02        2954.75           2211         218.00       939.44
 1281.05        2955.00           2215         225.00       969.95
 1281.08        2955.25           2218         252.00      1087.66
 1281.11        2955.50           2222         222.00       956.88
 1281.14        2955.75           2225         222.00       956.88
 1281.18        2956.00           2229         232.00      1000.47
 1281.21        2956.25           2232         258.00      1113.82
 1281.24        2956.50           2236         238.00      1026.63
 1281.27        2956.75           2239         256.00      1105.10
 1281.30        2957.00           2243         268.00      1157.41
 1281.33        2957.25           2246         255.00      1100.74
 1281.36        2957.50           2250         249.00      1074.58
 1281.39        2957.75           2254         244.00      1052.78
 1281.42        2958.00           2257         262.00      1131.26
 1281.45        2958.25           2261         253.00      1092.02
 1281.48        2958.50           2264         274.00      1183.57
 1281.51        2958.75           2268         273.00      1179.21
 1281.54        2959.00           2271         276.00      1192.29
 1281.57        2959.25           2275         280.00      1209.73
 1281.60        2959.50           2278         270.00      1166.13
 1281.63        2959.75           2282         301.00      1301.28
 1281.66        2960.00           2285         278.00      1201.01
 1281.70        2960.25           2289         294.00      1270.76
 1281.73        2960.50           2293         330.00      1427.71
 1281.76        2960.75           2296         299.00      1292.56
 1281.79        2961.00           2300         338.00      1462.58
 1281.82        2961.25           2303         489.00      2120.90
 1281.85        2961.50           2307        1943.00      8461.46
 1281.88        2961.75           2310        4180.00     18221.84
 1281.91        2962.00           2314        7622.00     33252.48
 1281.94        2962.25           2317       10641.00     46448.63
 1281.97        2962.50           2321       15028.00     65645.49
 1282.00        2962.75           2324       18622.00     81391.01
 1282.03        2963.00           2328       23508.00    102824.00
 1282.06        2963.25           2331       27005.00    118183.20
 1282.09        2963.50           2335       31483.00    137874.60
 1282.12        2963.75           2339       35764.00    156724.40
 1282.15        2964.00           2342       39219.00    171954.90
 1282.18        2964.25           2346       44315.00    194448.30
 1282.22        2964.50           2349       47686.00    209346.60
 1282.25        2964.75           2353       52182.00    229240.60
 1282.28        2965.00           2356       55024.00    241829.80
 1282.31        2965.25           2360       58753.00    258364.70
 1282.34        2965.50           2363       62098.00    273212.80
 1282.37        2965.75           2367       66683.00    293589.60
 1282.40        2966.00           2370       70094.00    308767.20
 1282.43        2966.25           2374       74487.00    328337.70
 1282.46        2966.50           2378       76706.00    338233.10
 1282.49        2966.75           2381       77120.00    340080.10
 1282.52        2967.00           2385       77553.00    342012.00
 1282.55        2967.25           2388       77464.00    341614.90
 1282.58        2967.50           2392       77623.00    342324.40
 1282.61        2967.75           2395       77235.00    340593.10
 1282.64        2968.00           2399       76180.00    335886.90
 1282.67        2968.25           2402       73443.00    323684.40
 1282.70        2968.50           2406       69587.00    306510.30
 1282.73        2968.75           2409       66257.00    291695.10
 1282.77        2969.00           2413       62522.00    275096.00
 1282.80        2969.25           2417       58469.00    257104.80
 1282.83        2969.50           2420       54842.00    241023.30
 1282.86        2969.75           2424       50066.00    219874.30
 1282.89        2970.00           2427       46670.00    204854.70
 1282.92        2970.25           2431       42390.00    185947.40
 1282.95        2970.50           2434       39282.00    172232.80
 1282.98        2970.75           2438       34693.00    152006.30
 1283.01        2971.00           2441       31474.00    137834.90
 1283.04        2971.25           2445       26233.00    114791.10
 1283.07        2971.50           2449       20946.00     91581.59
 1283.10        2971.75           2452       17351.00     75820.75
 1283.13        2972.00           2456       13051.00     56991.32
 1283.16        2972.25           2459        9795.00     42749.54
 1283.19        2972.50           2463        5846.00     25495.07
 1283.22        2972.75           2466        3246.00     14145.86
 1283.25        2973.00           2470        1030.00      4479.76
 1283.29        2973.25           2473         467.00      2024.99
 1283.32        2973.50           2477         336.00      1453.86
 1283.35        2973.75           2481         326.00      1410.27
 1283.38        2974.00           2484         314.00      1357.95
 1283.41        2974.25           2488         314.00      1357.95
 1283.44        2974.50           2491         317.00      1371.03
 1283.47        2974.75           2495         302.00      1305.64
 1283.50        2975.00           2498         299.00      1292.56
 1283.53        2975.25           2502         277.00      1196.65
 1283.56        2975.50           2505         291.00      1257.68
 1283.59        2975.75           2509         267.00      1153.05
 1283.62        2976.00           2512         268.00      1157.41
 1283.65        2976.25           2516         258.00      1113.82
 1283.68        2976.50           2520         284.00      1227.17
 1283.71        2976.75           2523         281.00      1214.09
 1283.74        2977.00           2527         264.00      1139.97
 1283.77        2977.25           2530         256.00      1105.10
 1283.81        2977.50           2534         261.00      1126.90
 1283.84        2977.75           2537         247.00      1065.86
 1283.87        2978.00           2541         251.00      1083.30
 1283.90        2978.25           2544         238.00      1026.63
 1283.93        2978.50           2548         237.00      1022.27
 1283.96        2978.75           2552         254.00      1096.38
 1283.99        2979.00           2555         240.00      1035.35
 1284.02        2979.25           2559         233.00      1004.83
 1284.05        2979.50           2562         242.00      1044.07
 1284.08        2979.75           2566         253.00      1092.02
 1284.11        2980.00           2569         237.00      1022.27
 1284.14        2980.25           2573         228.00       983.03
 1284.17        2980.50           2577         235.00      1013.55
 1284.20        2980.75           2580         219.00       943.80
 1284.23        2981.00           2584         214.00       922.00
 1284.26        2981.25           2587         213.00       917.64
 1284.29        2981.50           2591         230.00       991.75
 1284.33        2981.75           2594         207.00       891.48
 1284.36        2982.00           2598         245.00      1057.14
 1284.39        2982.25           2601         219.00       943.80
 1284.42        2982.50           2605         225.00       969.95
 1284.45        2982.75           2609         216.00       930.72
 1284.48        2983.00           2612         217.00       935.08
 1284.51        2983.25           2616         230.00       991.75
 1284.54        2983.50           2619         206.00       887.12
 1284.57        2983.75           2623         219.00       943.80
 1284.60        2984.00           2626         200.00       860.97
HS scan finished at 21:24:49
end
