************************************************************
  HS Scan of (1) Internal mercury lamp
************************************************************
Integration time is 0.2294 seconds per sample
dh180619El Arenosillo 37.1 6.73 3.39pr1000
************************************************************
Dead Time -------------------------  3.2E-08 
Number of Cycles Used -------------  4 
Starting Wavelength (Angstroms) ---  2950 
Final Wavelength (Angstoms) -------  2984 
Wavelength Increment (Angstroms) --  .25 
Filter Wheel #1 Position ---------- (1) Ground quartz diffuser (ND=2.32)
Filter Wheel #2 Position ---------- (1) Neutral Density 0.494



************************************************************
HS scan start time = 01:52:15
Dark Count =  1.7 


Time (GMT)  Wavelength (Ang)  Step Number  Raw Counts  Counts/Second

  113.14        2950.00           2144        1332.00      5800.12
  113.33        2950.25           2147        1359.00      5917.86
  113.36        2950.50           2151        1380.00      6009.44
  113.39        2950.75           2155        1410.00      6140.26
  113.42        2951.00           2158        1356.00      5904.78
  113.45        2951.25           2162        1393.00      6066.13
  113.48        2951.50           2165        1363.00      5935.30
  113.51        2951.75           2169        1388.00      6044.33
  113.54        2952.00           2172        1390.00      6053.05
  113.57        2952.25           2176        1411.00      6144.63
  113.60        2952.50           2179        1407.00      6127.18
  113.63        2952.75           2183        1383.00      6022.52
  113.67        2953.00           2186        1416.00      6166.43
  113.70        2953.25           2190        1435.00      6249.29
  113.73        2953.50           2193        1422.00      6192.60
  113.76        2953.75           2197        1434.00      6244.93
  113.79        2954.00           2200        1449.00      6310.34
  113.82        2954.25           2204        1433.00      6240.57
  113.85        2954.50           2208        1450.00      6314.70
  113.88        2954.75           2211        1479.00      6441.17
  113.91        2955.00           2215        1480.00      6445.53
  113.94        2955.25           2218        1471.00      6406.28
  113.97        2955.50           2222        1491.00      6493.50
  114.00        2955.75           2225        1448.00      6305.98
  114.03        2956.00           2229        1545.00      6729.00
  114.06        2956.25           2232        1518.00      6611.25
  114.09        2956.50           2236        1522.00      6628.70
  114.12        2956.75           2239        1548.00      6742.08
  114.15        2957.00           2243        1533.00      6676.67
  114.19        2957.25           2246        1571.00      6842.39
  114.22        2957.50           2250        1589.00      6920.89
  114.25        2957.75           2254        1608.00      7003.75
  114.28        2958.00           2257        1622.00      7064.81
  114.31        2958.25           2261        1654.00      7204.36
  114.34        2958.50           2264        1687.00      7348.28
  114.37        2958.75           2268        1677.00      7304.67
  114.40        2959.00           2271        1697.00      7391.90
  114.43        2959.25           2275        1699.00      7400.62
  114.46        2959.50           2278        1744.00      7596.88
  114.49        2959.75           2282        1786.00      7780.05
  114.52        2960.00           2285        1796.00      7823.67
  114.55        2960.25           2289        1845.00      8037.38
  114.58        2960.50           2293        1857.00      8089.71
  114.61        2960.75           2296        1933.00      8421.19
  114.64        2961.00           2300        2192.00      9550.87
  114.67        2961.25           2303        3867.00     16858.70
  114.71        2961.50           2307       15164.00     66235.71
  114.74        2961.75           2310       29300.00    128242.30
  114.77        2962.00           2314       50052.00    219718.60
  114.80        2962.25           2317       66731.00    293632.40
  114.83        2962.50           2321       90478.00    399478.20
  114.86        2962.75           2324      110536.00    489447.00
  114.89        2963.00           2328      137204.00    609879.10
  114.92        2963.25           2331      156687.00    698460.10
  114.95        2963.50           2335      183115.00    819435.00
  114.98        2963.75           2339      208404.00    936091.70
  115.01        2964.00           2342      226785.00   1021440.00
  115.04        2964.25           2346      252359.00   1140983.00
  115.07        2964.50           2349      273325.00   1239686.00
  115.10        2964.75           2353      299815.00   1365312.00
  115.13        2965.00           2356      319764.00   1460604.00
  115.16        2965.25           2360      342880.00   1571775.00
  115.19        2965.50           2363      359517.00   1652291.00
  115.23        2965.75           2367      381741.00   1760517.00
  115.26        2966.00           2370      397859.00   1839493.00
  115.29        2966.25           2374      416721.00   1932441.00
  115.32        2966.50           2378      428094.00   1988762.00
  115.35        2966.75           2381      430717.00   2001781.00
  115.38        2967.00           2385      431726.00   2006792.00
  115.41        2967.25           2388      432237.00   2009331.00
  115.44        2967.50           2392      430414.00   2000276.00
  115.47        2967.75           2395      429064.00   1993575.00
  115.50        2968.00           2399      416897.00   1933311.00
  115.53        2968.25           2402      401803.00   1858881.00
  115.56        2968.50           2406      379675.00   1750423.00
  115.60        2968.75           2409      363358.00   1670941.00
  115.63        2969.00           2413      341477.00   1565004.00
  115.66        2969.25           2417      319088.00   1457365.00
  115.69        2969.50           2420      301635.00   1373981.00
  115.72        2969.75           2424      276105.00   1252822.00
  115.75        2970.00           2427      255286.00   1154725.00
  115.78        2970.25           2431      227412.00   1024360.00
  115.81        2970.50           2434      208181.00    935059.10
  115.84        2970.75           2438      183101.00    819370.60
  115.87        2971.00           2441      164768.00    735350.60
  115.90        2971.25           2445      140666.00    625582.30
  115.94        2971.50           2449      115825.00    513257.70
  115.97        2971.75           2452       96689.00    427281.50
  116.00        2972.00           2456       71597.00    315262.60
  116.03        2972.25           2459       52203.00    229231.20
  116.06        2972.50           2463       27418.00    119972.80
  116.09        2972.75           2466       12895.00     56305.81
  116.12        2973.00           2470        4597.00     20044.67
  116.15        2973.25           2473        2699.00     11762.49
  116.18        2973.50           2477        2077.00      9049.26
  116.21        2973.75           2481        1957.00      8525.87
  116.24        2974.00           2484        1912.00      8329.60
  116.27        2974.25           2488        1892.00      8242.37
  116.30        2974.50           2491        1846.00      8041.74
  116.33        2974.75           2495        1806.00      7867.28
  116.36        2975.00           2498        1823.00      7941.43
  116.39        2975.25           2502        1786.00      7780.05
  116.42        2975.50           2505        1736.00      7561.99
  116.46        2975.75           2509        1698.00      7396.26
  116.49        2976.00           2512        1701.00      7409.34
  116.52        2976.25           2516        1630.00      7099.70
  116.55        2976.50           2520        1663.00      7243.62
  116.58        2976.75           2523        1636.00      7125.86
  116.61        2977.00           2527        1572.00      6846.75
  116.64        2977.25           2530        1598.00      6960.14
  116.67        2977.50           2534        1571.00      6842.39
  116.70        2977.75           2537        1572.00      6846.75
  116.73        2978.00           2541        1553.00      6763.89
  116.76        2978.25           2544        1566.00      6820.58
  116.79        2978.50           2548        1526.00      6646.14
  116.82        2978.75           2552        1520.00      6619.97
  116.85        2979.00           2555        1522.00      6628.70
  116.88        2979.25           2559        1456.00      6340.87
  116.91        2979.50           2562        1488.00      6480.42
  116.94        2979.75           2566        1464.00      6375.76
  116.98        2980.00           2569        1402.00      6105.38
  117.01        2980.25           2573        1445.00      6292.90
  117.04        2980.50           2577        1384.00      6026.88
  117.07        2980.75           2580        1436.00      6253.65
  117.10        2981.00           2584        1389.00      6048.69
  117.13        2981.25           2587        1420.00      6183.87
  117.16        2981.50           2591        1413.00      6153.35
  117.19        2981.75           2594        1387.00      6039.96
  117.22        2982.00           2598        1394.00      6070.49
  117.26        2982.25           2601        1363.00      5935.30
  117.29        2982.50           2605        1335.00      5813.20
  117.32        2982.75           2609        1337.00      5821.92
  117.35        2983.00           2612        1340.00      5835.00
  117.38        2983.25           2616        1350.00      5878.61
  117.41        2983.50           2619        1360.00      5922.22
  117.44        2983.75           2623        1320.00      5747.79
  117.47        2984.00           2626        1309.00      5699.82
HS scan finished at 01:57:41
end
************************************************************
  HS Scan of (1) Internal mercury lamp
************************************************************
Integration time is 0.2294 seconds per sample
dh180619El Arenosillo 37.1 6.73 3.7pr1000
************************************************************
Dead Time -------------------------  3.2E-08 
Number of Cycles Used -------------  4 
Starting Wavelength (Angstroms) ---  2950 
Final Wavelength (Angstoms) -------  2984 
Wavelength Increment (Angstroms) --  .25 
Filter Wheel #1 Position ---------- (1) Ground quartz diffuser (ND=2.32)
Filter Wheel #2 Position ---------- (1) Neutral Density 0.494



************************************************************
HS scan start time = 21:27:37
Dark Count =  4.1 


Time (GMT)  Wavelength (Ang)  Step Number  Raw Counts  Counts/Second

 1288.51        2950.00           2144         842.00      3653.00
 1288.70        2950.25           2147         916.00      3975.66
 1288.73        2950.50           2151         912.00      3958.22
 1288.76        2950.75           2155         902.00      3914.61
 1288.79        2951.00           2158         943.00      4093.39
 1288.82        2951.25           2162         910.00      3949.50
 1288.85        2951.50           2165         927.00      4023.62
 1288.88        2951.75           2169         928.00      4027.98
 1288.92        2952.00           2172         942.00      4089.03
 1288.95        2952.25           2176         946.00      4106.47
 1288.98        2952.50           2179         949.00      4119.55
 1289.01        2952.75           2183         957.00      4154.43
 1289.04        2953.00           2186         952.00      4132.63
 1289.07        2953.25           2190         939.00      4075.95
 1289.10        2953.50           2193         944.00      4097.75
 1289.13        2953.75           2197         968.00      4202.40
 1289.16        2954.00           2200         968.00      4202.40
 1289.19        2954.25           2204         976.00      4237.28
 1289.22        2954.50           2208        1014.00      4402.97
 1289.25        2954.75           2211         978.00      4246.00
 1289.28        2955.00           2215         983.00      4267.80
 1289.31        2955.25           2218         984.00      4272.16
 1289.34        2955.50           2222         992.00      4307.05
 1289.37        2955.75           2225        1020.00      4429.14
 1289.41        2956.00           2229        1035.00      4494.54
 1289.44        2956.25           2232        1061.00      4607.92
 1289.47        2956.50           2236        1059.00      4599.20
 1289.50        2956.75           2239        1047.00      4546.87
 1289.53        2957.00           2243        1056.00      4586.11
 1289.56        2957.25           2246        1075.00      4668.96
 1289.59        2957.50           2250        1078.00      4682.04
 1289.62        2957.75           2254        1088.00      4725.65
 1289.65        2958.00           2257        1111.00      4825.94
 1289.68        2958.25           2261        1142.00      4961.12
 1289.71        2958.50           2264        1139.00      4948.04
 1289.74        2958.75           2268        1154.00      5013.45
 1289.77        2959.00           2271        1197.00      5200.95
 1289.80        2959.25           2275        1198.00      5205.31
 1289.83        2959.50           2278        1226.00      5327.41
 1289.86        2959.75           2282        1222.00      5309.97
 1289.89        2960.00           2285        1262.00      5484.40
 1289.93        2960.25           2289        1283.00      5575.97
 1289.96        2960.50           2293        1358.00      5903.03
 1289.99        2960.75           2296        1385.00      6020.78
 1290.02        2961.00           2300        1791.00      7791.39
 1290.05        2961.25           2303        3756.00     16363.84
 1290.08        2961.50           2307       13277.00     57966.63
 1290.11        2961.75           2310       23823.00    104178.00
 1290.14        2962.00           2314       40714.00    178479.00
 1290.17        2962.25           2317       55907.00    245614.70
 1290.20        2962.50           2321       77977.00    343657.80
 1290.23        2962.75           2324       93357.00    412349.10
 1290.26        2963.00           2328      113654.00    503468.80
 1290.29        2963.25           2331      128238.00    569273.40
 1290.32        2963.50           2335      148350.00    660482.30
 1290.35        2963.75           2339      168160.00    750850.80
 1290.38        2964.00           2342      184587.00    826190.10
 1290.41        2964.25           2346      206455.00    927058.40
 1290.44        2964.50           2349      221603.00    997319.70
 1290.48        2964.75           2353      240567.00   1085736.00
 1290.51        2965.00           2356      255675.00   1156541.00
 1290.54        2965.25           2360      273890.00   1242343.00
 1290.57        2965.50           2363      286198.00   1300595.00
 1290.60        2965.75           2367      304636.00   1388275.00
 1290.63        2966.00           2370      319044.00   1457143.00
 1290.66        2966.25           2374      334316.00   1530482.00
 1290.69        2966.50           2378      340976.00   1562575.00
 1290.72        2966.75           2381      342948.00   1572091.00
 1290.75        2967.00           2385      343800.00   1576204.00
 1290.78        2967.25           2388      344215.00   1578208.00
 1290.81        2967.50           2392      343831.00   1576354.00
 1290.84        2967.75           2395      342417.00   1569528.00
 1290.87        2968.00           2399      332914.00   1523735.00
 1290.90        2968.25           2402      321443.00   1468640.00
 1290.93        2968.50           2406      304734.00   1388742.00
 1290.96        2968.75           2409      290384.00   1320457.00
 1291.00        2969.00           2413      272191.00   1234320.00
 1291.03        2969.25           2417      252836.00   1143210.00
 1291.06        2969.50           2420      237824.00   1072916.00
 1291.09        2969.75           2424      217998.00    980569.40
 1291.12        2970.00           2427      202746.00    909903.70
 1291.15        2970.25           2431      181728.00    813051.40
 1291.18        2970.50           2434      166858.00    744895.00
 1291.21        2970.75           2438      146644.00    652724.60
 1291.24        2971.00           2441      130314.00    578663.30
 1291.27        2971.25           2445      108044.00    478230.20
 1291.30        2971.50           2449       86084.00    379828.00
 1291.33        2971.75           2452       69791.00    307220.50
 1291.36        2972.00           2456       48799.00    214169.40
 1291.39        2972.25           2459       35433.00    155210.60
 1291.42        2972.50           2463       17988.00     78592.80
 1291.45        2972.75           2466        7849.00     34234.96
 1291.48        2973.00           2470        2412.00     10500.04
 1291.52        2973.25           2473        1675.00      7285.48
 1291.55        2973.50           2477        1486.00      6461.23
 1291.58        2973.75           2481        1433.00      6230.10
 1291.61        2974.00           2484        1376.00      5981.53
 1291.64        2974.25           2488        1330.00      5780.93
 1291.67        2974.50           2491        1314.00      5711.16
 1291.70        2974.75           2495        1302.00      5658.83
 1291.73        2975.00           2498        1246.00      5414.63
 1291.76        2975.25           2502        1254.00      5449.51
 1291.79        2975.50           2505        1173.00      5096.30
 1291.82        2975.75           2509        1204.00      5231.48
 1291.85        2976.00           2512        1186.00      5152.99
 1291.88        2976.25           2516        1163.00      5052.69
 1291.91        2976.50           2520        1148.00      4987.28
 1291.94        2976.75           2523        1137.00      4939.32
 1291.97        2977.00           2527        1133.00      4921.87
 1292.00        2977.25           2530        1100.00      4777.98
 1292.04        2977.50           2534        1079.00      4686.41
 1292.07        2977.75           2537        1075.00      4668.96
 1292.10        2978.00           2541        1043.00      4529.43
 1292.13        2978.25           2544        1063.00      4616.64
 1292.16        2978.50           2548        1078.00      4682.04
 1292.19        2978.75           2552        1034.00      4490.18
 1292.22        2979.00           2555        1025.00      4450.94
 1292.25        2979.25           2559        1005.00      4363.73
 1292.28        2979.50           2562        1018.00      4420.42
 1292.31        2979.75           2566        1021.00      4433.50
 1292.34        2980.00           2569        1046.00      4542.51
 1292.37        2980.25           2573         985.00      4276.52
 1292.40        2980.50           2577         963.00      4180.59
 1292.43        2980.75           2580         990.00      4298.32
 1292.46        2981.00           2584         966.00      4193.68
 1292.49        2981.25           2587         974.00      4228.56
 1292.52        2981.50           2591         945.00      4102.11
 1292.56        2981.75           2594         977.00      4241.64
 1292.59        2982.00           2598         951.00      4128.27
 1292.62        2982.25           2601         933.00      4049.78
 1292.65        2982.50           2605         925.00      4014.90
 1292.68        2982.75           2609         934.00      4054.14
 1292.71        2983.00           2612         926.00      4019.26
 1292.74        2983.25           2616         921.00      3997.46
 1292.77        2983.50           2619         917.00      3980.02
 1292.80        2983.75           2623         965.00      4189.32
 1292.83        2984.00           2626         932.00      4045.42
HS scan finished at 21:33:03
end
