************************************************************
  HS Scan of (1) Internal mercury lamp
************************************************************
Integration time is 0.2294 seconds per sample
dh140617Reading 51.44 .94 3.49pr1000
************************************************************
Dead Time -------------------------  3.4E-08 
Number of Cycles Used -------------  4 
Starting Wavelength (Angstroms) ---  2950 
Final Wavelength (Angstoms) -------  2984 
Wavelength Increment (Angstroms) --  .25 
Filter Wheel #1 Position ---------- (1) Ground quartz diffuser (ND=2.32)
Filter Wheel #2 Position ---------- (1) Neutral Density 0.494



************************************************************
HS scan start time = 01:30:18
Dark Count =  2.2 


Time (GMT)  Wavelength (Ang)  Step Number  Raw Counts  Counts/Second

   91.20        2950.00           2144         395.00      1712.39
   91.39        2950.25           2147         385.00      1668.80
   91.43        2950.50           2151         391.00      1694.95
   91.46        2950.75           2155         380.00      1647.00
   91.49        2951.00           2158         400.00      1734.19
   91.52        2951.25           2162         391.00      1694.95
   91.55        2951.50           2165         400.00      1734.19
   91.58        2951.75           2169         384.00      1664.44
   91.61        2952.00           2172         411.00      1782.15
   91.64        2952.25           2176         400.00      1734.19
   91.67        2952.50           2179         403.00      1747.27
   91.70        2952.75           2183         382.00      1655.72
   91.73        2953.00           2186         399.00      1729.83
   91.76        2953.25           2190         436.00      1891.14
   91.79        2953.50           2193         427.00      1851.90
   91.82        2953.75           2197         406.00      1760.35
   91.85        2954.00           2200         396.00      1716.75
   91.88        2954.25           2204         418.00      1812.67
   91.91        2954.50           2208         411.00      1782.15
   91.95        2954.75           2211         427.00      1851.90
   91.98        2955.00           2215         434.00      1882.42
   92.01        2955.25           2218         433.00      1878.06
   92.04        2955.50           2222         429.00      1860.62
   92.07        2955.75           2225         428.00      1856.26
   92.10        2956.00           2229         439.00      1904.22
   92.13        2956.25           2232         439.00      1904.22
   92.16        2956.50           2236         453.00      1965.26
   92.19        2956.75           2239         461.00      2000.14
   92.22        2957.00           2243         483.00      2096.05
   92.25        2957.25           2246         461.00      2000.14
   92.28        2957.50           2250         467.00      2026.29
   92.32        2957.75           2254         464.00      2013.22
   92.35        2958.00           2257         484.00      2100.41
   92.38        2958.25           2261         500.00      2170.17
   92.41        2958.50           2264         493.00      2139.65
   92.44        2958.75           2268         503.00      2183.25
   92.47        2959.00           2271         509.00      2209.41
   92.50        2959.25           2275         521.00      2261.73
   92.53        2959.50           2278         527.00      2287.89
   92.56        2959.75           2282         516.00      2239.93
   92.59        2960.00           2285         541.00      2348.92
   92.62        2960.25           2289         564.00      2449.20
   92.66        2960.50           2293         572.00      2484.08
   92.69        2960.75           2296         574.00      2492.80
   92.72        2961.00           2300         659.00      2863.40
   92.75        2961.25           2303        1112.00      4838.63
   92.78        2961.50           2307        4276.00     18642.15
   92.81        2961.75           2310        9112.00     39765.15
   92.84        2962.00           2314       17261.00     75427.73
   92.87        2962.25           2317       22854.00     99954.64
   92.90        2962.50           2321       30414.00    133172.70
   92.93        2962.75           2324       36078.00    158109.20
   92.96        2963.00           2328       45775.00    200900.30
   92.99        2963.25           2331       52806.00    232005.10
   93.02        2963.50           2335       61698.00    271437.80
   93.05        2963.75           2339       69482.00    306044.20
   93.08        2964.00           2342       76599.00    337757.10
   93.11        2964.25           2346       85330.00    376756.10
   93.14        2964.50           2349       91903.00    406184.80
   93.18        2964.75           2353      100848.00    446328.80
   93.21        2965.00           2356      107170.00    474767.90
   93.24        2965.25           2360      114989.00    510018.00
   93.27        2965.50           2363      120321.00    534105.00
   93.30        2965.75           2367      128207.00    569802.80
   93.33        2966.00           2370      134408.00    597934.60
   93.36        2966.25           2374      142142.00    633097.50
   93.39        2966.50           2378      147570.00    657827.00
   93.42        2966.75           2381      148237.00    660868.60
   93.45        2967.00           2385      149099.00    664800.60
   93.48        2967.25           2388      148880.00    663801.50
   93.51        2967.50           2392      149200.00    665261.30
   93.54        2967.75           2395      148775.00    663322.50
   93.57        2968.00           2399      146506.00    652976.20
   93.60        2968.25           2402      141980.00    632360.10
   93.63        2968.50           2406      133791.00    595133.10
   93.66        2968.75           2409      127619.00    567138.10
   93.70        2969.00           2413      119525.00    530506.60
   93.73        2969.25           2417      111812.00    495685.00
   93.76        2969.50           2420      105648.00    467916.20
   93.79        2969.75           2424       96236.00    425617.00
   93.82        2970.00           2427       88877.00    392629.40
   93.85        2970.25           2431       78898.00    348016.10
   93.88        2970.50           2434       71988.00    317203.00
   93.91        2970.75           2438       63163.00    277944.70
   93.94        2971.00           2441       56641.00    248998.90
   93.97        2971.25           2445       47902.00    210303.10
   94.00        2971.50           2449       39078.00    171334.30
   94.03        2971.75           2452       32075.00    140481.10
   94.06        2972.00           2456       23389.00    102302.90
   94.09        2972.25           2459       17286.00     75537.26
   94.12        2972.50           2463        9542.00     41644.80
   94.15        2972.75           2466        5006.00     21828.75
   94.18        2973.00           2470        1670.00      7272.07
   94.22        2973.25           2473         882.00      3835.72
   94.25        2973.50           2477         630.00      2736.96
   94.28        2973.75           2481         629.00      2732.60
   94.31        2974.00           2484         580.00      2518.96
   94.34        2974.25           2488         571.00      2479.72
   94.37        2974.50           2491         553.00      2401.24
   94.40        2974.75           2495         540.00      2344.56
   94.43        2975.00           2498         565.00      2453.56
   94.46        2975.25           2502         542.00      2353.28
   94.49        2975.50           2505         526.00      2283.53
   94.52        2975.75           2509         510.00      2213.77
   94.55        2976.00           2512         494.00      2144.01
   94.58        2976.25           2516         491.00      2130.93
   94.61        2976.50           2520         483.00      2096.05
   94.64        2976.75           2523         479.00      2078.61
   94.67        2977.00           2527         493.00      2139.65
   94.70        2977.25           2530         455.00      1973.98
   94.74        2977.50           2534         483.00      2096.05
   94.77        2977.75           2537         464.00      2013.22
   94.80        2978.00           2541         436.00      1891.14
   94.83        2978.25           2544         442.00      1917.30
   94.86        2978.50           2548         433.00      1878.06
   94.89        2978.75           2552         414.00      1795.23
   94.92        2979.00           2555         402.00      1742.91
   94.95        2979.25           2559         428.00      1856.26
   94.98        2979.50           2562         420.00      1821.39
   95.01        2979.75           2566         422.00      1830.11
   95.04        2980.00           2569         424.00      1838.82
   95.07        2980.25           2573         430.00      1864.98
   95.10        2980.50           2577         414.00      1795.23
   95.13        2980.75           2580         404.00      1751.63
   95.16        2981.00           2584         418.00      1812.67
   95.19        2981.25           2587         411.00      1782.15
   95.22        2981.50           2591         417.00      1808.31
   95.25        2981.75           2594         420.00      1821.39
   95.29        2982.00           2598         406.00      1760.35
   95.32        2982.25           2601         384.00      1664.44
   95.35        2982.50           2605         421.00      1825.75
   95.38        2982.75           2609         381.00      1651.36
   95.41        2983.00           2612         378.00      1638.28
   95.44        2983.25           2616         382.00      1655.72
   95.47        2983.50           2619         385.00      1668.80
   95.50        2983.75           2623         388.00      1681.87
   95.53        2984.00           2626         374.00      1620.84
HS scan finished at 01:35:45
end
************************************************************
  HS Scan of (1) Internal mercury lamp
************************************************************
Integration time is 0.2294 seconds per sample
dh140617Reading 51.44 .94 3.92pr1000
************************************************************
Dead Time -------------------------  3.4E-08 
Number of Cycles Used -------------  4 
Starting Wavelength (Angstroms) ---  2950 
Final Wavelength (Angstoms) -------  2984 
Wavelength Increment (Angstroms) --  .25 
Filter Wheel #1 Position ---------- (1) Ground quartz diffuser (ND=2.32)
Filter Wheel #2 Position ---------- (1) Neutral Density 0.494



************************************************************
HS scan start time = 21:07:26
Dark Count =  8.5 


Time (GMT)  Wavelength (Ang)  Step Number  Raw Counts  Counts/Second

 1268.33        2950.00           2144         190.00       791.22
 1268.52        2950.25           2147         205.00       856.61
 1268.56        2950.50           2151         201.00       839.17
 1268.59        2950.75           2155         190.00       791.22
 1268.62        2951.00           2158         207.00       865.33
 1268.65        2951.25           2162         189.00       786.86
 1268.68        2951.50           2165         214.00       895.84
 1268.71        2951.75           2169         195.00       813.01
 1268.74        2952.00           2172         196.00       817.37
 1268.77        2952.25           2176         200.00       834.81
 1268.80        2952.50           2179         203.00       847.89
 1268.83        2952.75           2183         207.00       865.33
 1268.86        2953.00           2186         216.00       904.56
 1268.89        2953.25           2190         209.00       874.05
 1268.92        2953.50           2193         213.00       891.48
 1268.95        2953.75           2197         232.00       974.31
 1268.98        2954.00           2200         230.00       965.59
 1269.01        2954.25           2204         252.00      1061.50
 1269.04        2954.50           2208         207.00       865.33
 1269.08        2954.75           2211         229.00       961.23
 1269.11        2955.00           2215         223.00       935.08
 1269.14        2955.25           2218         227.00       952.52
 1269.17        2955.50           2222         221.00       926.36
 1269.20        2955.75           2225         227.00       952.52
 1269.23        2956.00           2229         217.00       908.92
 1269.26        2956.25           2232         260.00      1096.38
 1269.29        2956.50           2236         221.00       926.36
 1269.32        2956.75           2239         243.00      1022.27
 1269.35        2957.00           2243         237.00       996.11
 1269.38        2957.25           2246         233.00       978.67
 1269.41        2957.50           2250         235.00       987.39
 1269.44        2957.75           2254         246.00      1035.35
 1269.47        2958.00           2257         261.00      1100.74
 1269.50        2958.25           2261         266.00      1122.54
 1269.53        2958.50           2264         242.00      1017.91
 1269.56        2958.75           2268         275.00      1161.77
 1269.59        2959.00           2271         279.00      1179.21
 1269.63        2959.25           2275         278.00      1174.85
 1269.66        2959.50           2278         273.00      1153.05
 1269.69        2959.75           2282         287.00      1214.09
 1269.72        2960.00           2285         291.00      1231.52
 1269.75        2960.25           2289         276.00      1166.13
 1269.78        2960.50           2293         303.00      1283.84
 1269.81        2960.75           2296         298.00      1262.04
 1269.84        2961.00           2300         353.00      1501.82
 1269.87        2961.25           2303         633.00      2722.57
 1269.90        2961.50           2307        2503.00     10878.04
 1269.93        2961.75           2310        4930.00     21469.46
 1269.96        2962.00           2314        9111.00     39733.24
 1269.99        2962.25           2317       12211.00     53289.58
 1270.02        2962.50           2321       16818.00     73459.19
 1270.05        2962.75           2324       20409.00     89199.94
 1270.08        2963.00           2328       25089.00    109739.60
 1270.11        2963.25           2331       28670.00    125475.30
 1270.15        2963.50           2335       33355.00    146087.80
 1270.18        2963.75           2339       38446.00    168519.50
 1270.21        2964.00           2342       42021.00    184292.00
 1270.24        2964.25           2346       47298.00    207604.50
 1270.27        2964.50           2349       50292.00    220847.90
 1270.30        2964.75           2353       55255.00    242827.00
 1270.33        2965.00           2356       59109.00    259917.60
 1270.36        2965.25           2360       64067.00    281933.30
 1270.39        2965.50           2363       67361.00    296578.50
 1270.42        2965.75           2367       71642.00    315633.80
 1270.45        2966.00           2370       74706.00    329287.30
 1270.48        2966.25           2374       78743.00    347296.00
 1270.51        2966.50           2378       81057.00    357628.70
 1270.54        2966.75           2381       81196.00    358249.60
 1270.57        2967.00           2385       81679.00    360407.30
 1270.60        2967.25           2388       81504.00    359625.50
 1270.63        2967.50           2392       81832.00    361090.90
 1270.67        2967.75           2395       81708.00    360536.90
 1270.70        2968.00           2399       79135.00    349045.90
 1270.73        2968.25           2402       76637.00    337898.60
 1270.76        2968.50           2406       72712.00    320400.40
 1270.79        2968.75           2409       69691.00    306946.50
 1270.82        2969.00           2413       64868.00    285493.20
 1270.85        2969.25           2417       60117.00    264390.90
 1270.88        2969.50           2420       56508.00    248381.20
 1270.91        2969.75           2424       52163.00    229129.90
 1270.94        2970.00           2427       49014.00    215193.40
 1270.97        2970.25           2431       44091.00    193432.30
 1271.00        2970.50           2434       40644.00    178214.80
 1271.03        2970.75           2438       35865.00    157142.90
 1271.06        2971.00           2441       31742.00    138987.90
 1271.09        2971.25           2445       26571.00    116249.80
 1271.12        2971.50           2449       21939.00     95911.65
 1271.15        2971.75           2452       18372.00     80268.90
 1271.19        2972.00           2456       13966.00     60969.76
 1271.22        2972.25           2459       10568.00     46103.17
 1271.25        2972.50           2463        6123.00     26678.51
 1271.28        2972.75           2466        3212.00     13971.33
 1271.31        2973.00           2470         858.00      3703.60
 1271.34        2973.25           2473         434.00      1854.96
 1271.37        2973.50           2477         376.00      1602.09
 1271.40        2973.75           2481         312.00      1323.08
 1271.43        2974.00           2484         299.00      1266.40
 1271.46        2974.25           2488         301.00      1275.12
 1271.49        2974.50           2491         293.00      1240.24
 1271.52        2974.75           2495         302.00      1279.48
 1271.55        2975.00           2498         301.00      1275.12
 1271.58        2975.25           2502         276.00      1166.13
 1271.61        2975.50           2505         272.00      1148.69
 1271.64        2975.75           2509         268.00      1131.26
 1271.67        2976.00           2512         260.00      1096.38
 1271.71        2976.25           2516         270.00      1139.97
 1271.74        2976.50           2520         263.00      1109.46
 1271.77        2976.75           2523         252.00      1061.50
 1271.80        2977.00           2527         274.00      1157.41
 1271.83        2977.25           2530         248.00      1044.07
 1271.86        2977.50           2534         243.00      1022.27
 1271.89        2977.75           2537         266.00      1122.54
 1271.92        2978.00           2541         234.00       983.03
 1271.95        2978.25           2544         239.00      1004.83
 1271.98        2978.50           2548         242.00      1017.91
 1272.01        2978.75           2552         243.00      1022.27
 1272.04        2979.00           2555         225.00       943.80
 1272.07        2979.25           2559         234.00       983.03
 1272.10        2979.50           2562         257.00      1083.30
 1272.13        2979.75           2566         214.00       895.84
 1272.16        2980.00           2569         223.00       935.08
 1272.19        2980.25           2573         214.00       895.84
 1272.23        2980.50           2577         286.00      1209.73
 1272.26        2980.75           2580         240.00      1009.19
 1272.29        2981.00           2584         213.00       891.48
 1272.32        2981.25           2587         216.00       904.56
 1272.35        2981.50           2591         204.00       852.25
 1272.38        2981.75           2594         208.00       869.69
 1272.41        2982.00           2598         227.00       952.52
 1272.44        2982.25           2601         217.00       908.92
 1272.47        2982.50           2605         218.00       913.28
 1272.50        2982.75           2609         233.00       978.67
 1272.53        2983.00           2612         206.00       860.97
 1272.56        2983.25           2616         183.00       760.70
 1272.59        2983.50           2619         204.00       852.25
 1272.62        2983.75           2623         212.00       887.12
 1272.65        2984.00           2626         205.00       856.61
HS scan finished at 21:12:53
end
