************************************************************
  HS Scan of (1) Internal mercury lamp
************************************************************
Integration time is 0.2294 seconds per sample
dh090618Reading 51.44 .94 3.43pr1000
************************************************************
Dead Time -------------------------  3.4E-08 
Number of Cycles Used -------------  4 
Starting Wavelength (Angstroms) ---  2950 
Final Wavelength (Angstoms) -------  2984 
Wavelength Increment (Angstroms) --  .25 
Filter Wheel #1 Position ---------- (1) Ground quartz diffuser (ND=2.32)
Filter Wheel #2 Position ---------- (1) Neutral Density 0.494



************************************************************
HS scan start time = 01:07:04
Dark Count =  1.8 


Time (GMT)  Wavelength (Ang)  Step Number  Raw Counts  Counts/Second

   67.97        2950.00           2144          56.00       236.27
   68.16        2950.25           2147          62.00       262.43
   68.19        2950.50           2151          64.00       271.14
   68.22        2950.75           2155          68.00       288.58
   68.25        2951.00           2158          70.00       297.30
   68.28        2951.25           2162          59.00       249.35
   68.32        2951.50           2165          67.00       284.22
   68.35        2951.75           2169          56.00       236.27
   68.38        2952.00           2172          66.00       279.86
   68.41        2952.25           2176          66.00       279.86
   68.44        2952.50           2179          75.00       319.10
   68.47        2952.75           2183          64.00       271.14
   68.50        2953.00           2186          60.00       253.71
   68.53        2953.25           2190          68.00       288.58
   68.56        2953.50           2193          70.00       297.30
   68.59        2953.75           2197          62.00       262.43
   68.62        2954.00           2200          63.00       266.79
   68.65        2954.25           2204          68.00       288.58
   68.68        2954.50           2208          73.00       310.38
   68.71        2954.75           2211          69.00       292.94
   68.74        2955.00           2215          67.00       284.22
   68.77        2955.25           2218          74.00       314.74
   68.80        2955.50           2222          69.00       292.94
   68.83        2955.75           2225          68.00       288.58
   68.87        2956.00           2229          65.00       275.50
   68.90        2956.25           2232          63.00       266.79
   68.93        2956.50           2236          70.00       297.30
   68.96        2956.75           2239          69.00       292.94
   68.99        2957.00           2243          66.00       279.86
   69.02        2957.25           2246          77.00       327.82
   69.05        2957.50           2250          78.00       332.17
   69.08        2957.75           2254          73.00       310.38
   69.11        2958.00           2257          80.00       340.89
   69.14        2958.25           2261          80.00       340.89
   69.17        2958.50           2264          77.00       327.82
   69.20        2958.75           2268          77.00       327.82
   69.23        2959.00           2271          81.00       345.25
   69.26        2959.25           2275          84.00       358.33
   69.29        2959.50           2278          84.00       358.33
   69.32        2959.75           2282          82.00       349.61
   69.35        2960.00           2285          79.00       336.53
   69.39        2960.25           2289          81.00       345.25
   69.42        2960.50           2293         114.00       489.11
   69.45        2960.75           2296         100.00       428.08
   69.48        2961.00           2300         106.00       454.24
   69.51        2961.25           2303         235.00      1016.60
   69.54        2961.50           2307         876.00      3811.31
   69.57        2961.75           2310        1667.00      7260.73
   69.60        2962.00           2314        2942.00     12822.50
   69.63        2962.25           2317        3874.00     16889.38
   69.66        2962.50           2321        5027.00     21922.18
   69.69        2962.75           2324        5912.00     25786.33
   69.72        2963.00           2328        7262.00     31682.76
   69.75        2963.25           2331        8313.00     36274.88
   69.78        2963.50           2335        9706.00     42363.51
   69.81        2963.75           2339       11130.00     48590.24
   69.84        2964.00           2342       12110.00     52877.03
   69.87        2964.25           2346       13421.00     58613.64
   69.91        2964.50           2349       14373.00     62780.78
   69.94        2964.75           2353       15693.00     68560.68
   69.97        2965.00           2356       16852.00     73637.49
   70.00        2965.25           2360       17716.00     77423.25
   70.03        2965.50           2363       18646.00     81499.28
   70.06        2965.75           2367       19821.00     86650.72
   70.09        2966.00           2370       20587.00     90010.00
   70.12        2966.25           2374       21381.00     93492.88
   70.15        2966.50           2378       21862.00     95603.19
   70.18        2966.75           2381       21821.00     95423.30
   70.21        2967.00           2385       21794.00     95304.83
   70.24        2967.25           2388       21631.00     94589.68
   70.27        2967.50           2392       21466.00     93865.78
   70.30        2967.75           2395       21147.00     92466.35
   70.33        2968.00           2399       20489.00     89580.18
   70.36        2968.25           2402       20101.00     87878.57
   70.39        2968.50           2406       19667.00     85975.46
   70.43        2968.75           2409       18773.00     82055.99
   70.46        2969.00           2413       17869.00     78093.74
   70.49        2969.25           2417       16648.00     72743.78
   70.52        2969.50           2420       15607.00     68184.05
   70.55        2969.75           2424       14185.00     61957.76
   70.58        2970.00           2427       13350.00     58302.91
   70.61        2970.25           2431       11943.00     52146.43
   70.64        2970.50           2434       10826.00     47260.71
   70.67        2970.75           2438        9160.00     39976.71
   70.70        2971.00           2441        8251.00     36003.95
   70.73        2971.25           2445        7004.00     30555.70
   70.76        2971.50           2449        5642.00     24607.33
   70.79        2971.75           2452        4808.00     20966.12
   70.82        2972.00           2456        3563.00     15532.18
   70.85        2972.25           2459        2587.00     11273.72
   70.88        2972.50           2463        1388.00      6043.96
   70.91        2972.75           2466         656.00      2852.06
   70.95        2973.00           2470         194.00       837.86
   70.98        2973.25           2473         129.00       554.50
   71.01        2973.50           2477          97.00       415.00
   71.04        2973.75           2481          99.00       423.72
   71.07        2974.00           2484          94.00       401.92
   71.10        2974.25           2488          92.00       393.20
   71.13        2974.50           2491          94.00       401.92
   71.16        2974.75           2495          96.00       410.64
   71.19        2975.00           2498          93.00       397.56
   71.22        2975.25           2502          86.00       367.05
   71.25        2975.50           2505          81.00       345.25
   71.28        2975.75           2509          84.00       358.33
   71.31        2976.00           2512          86.00       367.05
   71.34        2976.25           2516          83.00       353.97
   71.37        2976.50           2520          82.00       349.61
   71.40        2976.75           2523          80.00       340.89
   71.43        2977.00           2527          77.00       327.82
   71.47        2977.25           2530          77.00       327.82
   71.50        2977.50           2534          72.00       306.02
   71.53        2977.75           2537          78.00       332.17
   71.56        2978.00           2541          69.00       292.94
   71.59        2978.25           2544          70.00       297.30
   71.62        2978.50           2548          67.00       284.22
   71.65        2978.75           2552          73.00       310.38
   71.68        2979.00           2555          64.00       271.14
   71.71        2979.25           2559          68.00       288.58
   71.74        2979.50           2562          68.00       288.58
   71.77        2979.75           2566          73.00       310.38
   71.80        2980.00           2569          65.00       275.50
   71.83        2980.25           2573          68.00       288.58
   71.86        2980.50           2577          68.00       288.58
   71.89        2980.75           2580          62.00       262.43
   71.92        2981.00           2584          64.00       271.14
   71.95        2981.25           2587          67.00       284.22
   71.99        2981.50           2591          66.00       279.86
   72.02        2981.75           2594          67.00       284.22
   72.05        2982.00           2598          67.00       284.22
   72.08        2982.25           2601          66.00       279.86
   72.11        2982.50           2605          58.00       244.99
   72.14        2982.75           2609          67.00       284.22
   72.17        2983.00           2612          55.00       231.91
   72.20        2983.25           2616          70.00       297.30
   72.23        2983.50           2619          60.00       253.71
   72.26        2983.75           2623          70.00       297.30
   72.29        2984.00           2626          58.00       244.99
HS scan finished at 01:12:31
end
************************************************************
  HS Scan of (1) Internal mercury lamp
************************************************************
Integration time is 0.2294 seconds per sample
dh090618Reading 51.44 .94 3.62pr1000
************************************************************
Dead Time -------------------------  3.4E-08 
Number of Cycles Used -------------  4 
Starting Wavelength (Angstroms) ---  2950 
Final Wavelength (Angstoms) -------  2984 
Wavelength Increment (Angstroms) --  .25 
Filter Wheel #1 Position ---------- (1) Ground quartz diffuser (ND=2.32)
Filter Wheel #2 Position ---------- (1) Neutral Density 0.494



************************************************************
HS scan start time = 21:07:25
Dark Count =  3 


Time (GMT)  Wavelength (Ang)  Step Number  Raw Counts  Counts/Second

 1268.31        2950.00           2144          48.00       196.17
 1268.50        2950.25           2147          51.00       209.24
 1268.53        2950.50           2151          54.00       222.32
 1268.56        2950.75           2155          52.00       213.60
 1268.59        2951.00           2158          47.00       191.81
 1268.62        2951.25           2162          44.00       178.73
 1268.65        2951.50           2165          43.00       174.37
 1268.68        2951.75           2169          47.00       191.81
 1268.72        2952.00           2172          43.00       174.37
 1268.75        2952.25           2176          51.00       209.24
 1268.78        2952.50           2179          46.00       187.45
 1268.81        2952.75           2183          49.00       200.52
 1268.84        2953.00           2186          46.00       187.45
 1268.87        2953.25           2190          53.00       217.96
 1268.90        2953.50           2193          52.00       213.60
 1268.93        2953.75           2197          54.00       222.32
 1268.96        2954.00           2200          56.00       231.04
 1268.99        2954.25           2204          47.00       191.81
 1269.02        2954.50           2208          48.00       196.17
 1269.06        2954.75           2211          57.00       235.40
 1269.09        2955.00           2215          53.00       217.96
 1269.12        2955.25           2218          51.00       209.24
 1269.15        2955.50           2222          52.00       213.60
 1269.18        2955.75           2225          53.00       217.96
 1269.21        2956.00           2229          48.00       196.17
 1269.24        2956.25           2232          52.00       213.60
 1269.27        2956.50           2236          53.00       217.96
 1269.30        2956.75           2239          53.00       217.96
 1269.33        2957.00           2243          56.00       231.04
 1269.36        2957.25           2246          55.00       226.68
 1269.39        2957.50           2250          55.00       226.68
 1269.43        2957.75           2254          54.00       222.32
 1269.46        2958.00           2257          54.00       222.32
 1269.49        2958.25           2261          55.00       226.68
 1269.52        2958.50           2264          57.00       235.40
 1269.55        2958.75           2268          54.00       222.32
 1269.58        2959.00           2271          66.00       274.63
 1269.61        2959.25           2275          58.00       239.76
 1269.64        2959.50           2278          62.00       257.19
 1269.67        2959.75           2282          64.00       265.91
 1269.70        2960.00           2285          63.00       261.55
 1269.73        2960.25           2289          69.00       287.71
 1269.76        2960.50           2293          67.00       278.99
 1269.79        2960.75           2296          72.00       300.79
 1269.82        2961.00           2300          82.00       344.38
 1269.85        2961.25           2303         172.00       736.72
 1269.88        2961.50           2307         611.00      2650.63
 1269.91        2961.75           2310        1163.00      5057.54
 1269.95        2962.00           2314        1980.00      8620.66
 1269.98        2962.25           2317        2647.00     11530.24
 1270.01        2962.50           2321        3486.00     15190.93
 1270.04        2962.75           2324        4091.00     17831.21
 1270.07        2963.00           2328        4988.00     21746.68
 1270.10        2963.25           2331        5646.00     24619.56
 1270.13        2963.50           2335        6671.00     29095.90
 1270.16        2963.75           2339        7702.00     33599.83
 1270.19        2964.00           2342        8489.00     37038.77
 1270.22        2964.25           2346        9483.00     41383.38
 1270.25        2964.50           2349       10101.00     44085.21
 1270.28        2964.75           2353       11026.00     48130.14
 1270.31        2965.00           2356       11681.00     50995.06
 1270.34        2965.25           2360       12536.00     54735.60
 1270.37        2965.50           2363       13228.00     57763.73
 1270.40        2965.75           2367       14149.00     61794.91
 1270.43        2966.00           2370       14775.00     64535.53
 1270.47        2966.25           2374       15377.00     67171.55
 1270.50        2966.50           2378       15978.00     69803.66
 1270.53        2966.75           2381       16227.00     70894.30
 1270.56        2967.00           2385       16332.00     71354.25
 1270.59        2967.25           2388       16249.00     70990.68
 1270.62        2967.50           2392       16141.00     70517.61
 1270.65        2967.75           2395       16141.00     70517.61
 1270.68        2968.00           2399       15645.00     68345.21
 1270.71        2968.25           2402       15073.00     65840.35
 1270.74        2968.50           2406       14355.00     62696.72
 1270.77        2968.75           2409       13764.00     60109.65
 1270.80        2969.00           2413       12695.00     55431.32
 1270.83        2969.25           2417       11744.00     51270.64
 1270.86        2969.50           2420       11093.00     48423.17
 1270.89        2969.75           2424       10058.00     43897.20
 1270.92        2970.00           2427        9322.00     40679.59
 1270.95        2970.25           2431        8322.00     36308.96
 1270.98        2970.50           2434        7589.00     33106.12
 1271.02        2970.75           2438        6593.00     28755.21
 1271.05        2971.00           2441        5929.00     25855.33
 1271.08        2971.25           2445        4915.00     21427.99
 1271.11        2971.50           2449        3986.00     17372.94
 1271.14        2971.75           2452        3319.00     14462.21
 1271.17        2972.00           2456        2385.00     10387.28
 1271.20        2972.25           2459        1791.00      7796.31
 1271.23        2972.50           2463         915.00      3976.13
 1271.26        2972.75           2466         426.00      1844.06
 1271.29        2973.00           2470         147.00       627.74
 1271.32        2973.25           2473          82.00       344.38
 1271.35        2973.50           2477          75.00       313.87
 1271.38        2973.75           2481          70.00       292.07
 1271.41        2974.00           2484          59.00       244.12
 1271.44        2974.25           2488          64.00       265.91
 1271.47        2974.50           2491          59.00       244.12
 1271.51        2974.75           2495          60.00       248.48
 1271.54        2975.00           2498          59.00       244.12
 1271.58        2975.25           2502          56.00       231.04
 1271.61        2975.50           2505          63.00       261.55
 1271.64        2975.75           2509          59.00       244.12
 1271.67        2976.00           2512          57.00       235.40
 1271.70        2976.25           2516          57.00       235.40
 1271.73        2976.50           2520          64.00       265.91
 1271.76        2976.75           2523          55.00       226.68
 1271.80        2977.00           2527          61.00       252.84
 1271.83        2977.25           2530          57.00       235.40
 1271.86        2977.50           2534          53.00       217.96
 1271.89        2977.75           2537          60.00       248.48
 1271.92        2978.00           2541          60.00       248.48
 1271.95        2978.25           2544          57.00       235.40
 1271.98        2978.50           2548          58.00       239.76
 1272.01        2978.75           2552          53.00       217.96
 1272.04        2979.00           2555          48.00       196.17
 1272.07        2979.25           2559          50.00       204.88
 1272.10        2979.50           2562          52.00       213.60
 1272.13        2979.75           2566          49.00       200.52
 1272.16        2980.00           2569          48.00       196.17
 1272.19        2980.25           2573          54.00       222.32
 1272.22        2980.50           2577          46.00       187.45
 1272.25        2980.75           2580          52.00       213.60
 1272.28        2981.00           2584          48.00       196.17
 1272.32        2981.25           2587          45.00       183.09
 1272.35        2981.50           2591          53.00       217.96
 1272.38        2981.75           2594          56.00       231.04
 1272.41        2982.00           2598          49.00       200.52
 1272.44        2982.25           2601          49.00       200.52
 1272.47        2982.50           2605          46.00       187.45
 1272.50        2982.75           2609          49.00       200.52
 1272.53        2983.00           2612          43.00       174.37
 1272.56        2983.25           2616          47.00       191.81
 1272.59        2983.50           2619          49.00       200.52
 1272.62        2983.75           2623          45.00       183.09
 1272.65        2984.00           2626          42.00       170.01
HS scan finished at 21:12:53
end
