************************************************************
  HS Scan of (1) Internal mercury lamp
************************************************************
Integration time is 0.2294 seconds per sample
dh120618Reading 51.44 .94 3.49pr1000
************************************************************
Dead Time -------------------------  3.4E-08 
Number of Cycles Used -------------  4 
Starting Wavelength (Angstroms) ---  2950 
Final Wavelength (Angstoms) -------  2984 
Wavelength Increment (Angstroms) --  .25 
Filter Wheel #1 Position ---------- (1) Ground quartz diffuser (ND=2.32)
Filter Wheel #2 Position ---------- (1) Neutral Density 0.494



************************************************************
HS scan start time = 01:15:50
Dark Count =  2.5 


Time (GMT)  Wavelength (Ang)  Step Number  Raw Counts  Counts/Second

   76.73        2950.00           2144          56.00       233.22
   76.92        2950.25           2147          59.00       246.30
   76.95        2950.50           2151          63.00       263.73
   76.98        2950.75           2155          64.00       268.09
   77.01        2951.00           2158          54.00       224.50
   77.04        2951.25           2162          60.00       250.66
   77.07        2951.50           2165          67.00       281.17
   77.10        2951.75           2169          65.00       272.45
   77.13        2952.00           2172          67.00       281.17
   77.16        2952.25           2176          63.00       263.73
   77.19        2952.50           2179          60.00       250.66
   77.22        2952.75           2183          67.00       281.17
   77.26        2953.00           2186          66.00       276.81
   77.29        2953.25           2190          57.00       237.58
   77.32        2953.50           2193          69.00       289.89
   77.35        2953.75           2197          66.00       276.81
   77.38        2954.00           2200          60.00       250.66
   77.41        2954.25           2204          64.00       268.09
   77.44        2954.50           2208          72.00       302.97
   77.47        2954.75           2211          66.00       276.81
   77.50        2955.00           2215          74.00       311.69
   77.53        2955.25           2218          68.00       285.53
   77.56        2955.50           2222          70.00       294.25
   77.59        2955.75           2225          73.00       307.33
   77.62        2956.00           2229          73.00       307.33
   77.65        2956.25           2232          71.00       298.61
   77.68        2956.50           2236          68.00       285.53
   77.71        2956.75           2239          74.00       311.69
   77.74        2957.00           2243          68.00       285.53
   77.77        2957.25           2246          69.00       289.89
   77.81        2957.50           2250          78.00       329.12
   77.84        2957.75           2254          74.00       311.69
   77.87        2958.00           2257          77.00       324.76
   77.90        2958.25           2261          75.00       316.05
   77.93        2958.50           2264          77.00       324.76
   77.96        2958.75           2268          84.00       355.28
   77.99        2959.00           2271          70.00       294.25
   78.02        2959.25           2275          80.00       337.84
   78.05        2959.50           2278          76.00       320.40
   78.08        2959.75           2282          88.00       372.72
   78.11        2960.00           2285          82.00       346.56
   78.14        2960.25           2289          90.00       381.43
   78.17        2960.50           2293          90.00       381.43
   78.20        2960.75           2296         102.00       433.75
   78.23        2961.00           2300         155.00       664.79
   78.26        2961.25           2303         394.00      1706.73
   78.29        2961.50           2307        1121.00      4876.57
   78.33        2961.75           2310        1909.00      8313.16
   78.36        2962.00           2314        3147.00     13713.89
   78.39        2962.25           2317        4089.00     17824.66
   78.42        2962.50           2321        5292.00     23076.08
   78.45        2962.75           2324        6249.00     27254.98
   78.48        2963.00           2328        7572.00     33034.03
   78.51        2963.25           2331        8458.00     36905.48
   78.54        2963.50           2335       10049.00     43860.05
   78.57        2963.75           2339       11558.00     50459.21
   78.60        2964.00           2342       12248.00     53477.71
   78.63        2964.25           2346       13621.00     59485.93
   78.66        2964.50           2349       14800.00     64647.17
   78.69        2964.75           2353       16116.00     70410.30
   78.72        2965.00           2356       17419.00     76118.71
   78.75        2965.25           2360       18563.00     81132.40
   78.78        2965.50           2363       19372.00     84678.93
   78.81        2965.75           2367       20475.00     89515.71
   78.85        2966.00           2370       21593.00     94419.89
   78.88        2966.25           2374       22622.00     98935.12
   78.91        2966.50           2378       22809.00     99755.81
   78.94        2966.75           2381       22668.00     99137.00
   78.97        2967.00           2385       23144.00    101226.20
   79.00        2967.25           2388       23075.00    100923.30
   79.03        2967.50           2392       22764.00     99558.31
   79.06        2967.75           2395       22803.00     99729.48
   79.09        2968.00           2399       22356.00     97767.79
   79.12        2968.25           2402       21713.00     94946.38
   79.15        2968.50           2406       20348.00     88958.72
   79.18        2968.75           2409       19190.00     83881.00
   79.21        2969.00           2413       17673.00     77231.75
   79.24        2969.25           2417       16459.00     71912.76
   79.28        2969.50           2420       15767.00     68881.71
   79.31        2969.75           2424       14400.00     62895.92
   79.34        2970.00           2427       13072.00     57083.23
   79.37        2970.25           2431       11428.00     49890.57
   79.40        2970.50           2434       10426.00     45508.47
   79.43        2970.75           2438        9077.00     39610.85
   79.46        2971.00           2441        8115.00     35406.59
   79.49        2971.25           2445        6728.00     29347.06
   79.52        2971.50           2449        5507.00     24014.81
   79.56        2971.75           2452        4432.00     19321.76
   79.59        2972.00           2456        3008.00     13107.41
   79.62        2972.25           2459        2039.00      8880.19
   79.65        2972.50           2463         939.00      4082.96
   79.68        2972.75           2466         418.00      1811.36
   79.71        2973.00           2470         156.00       669.15
   79.74        2973.25           2473         144.00       616.84
   79.77        2973.50           2477          94.00       398.87
   79.80        2973.75           2481          93.00       394.51
   79.83        2974.00           2484         129.00       551.45
   79.86        2974.25           2488          95.00       403.23
   79.89        2974.50           2491          85.00       359.64
   79.92        2974.75           2495          78.00       329.12
   79.95        2975.00           2498          88.00       372.72
   79.98        2975.25           2502          81.00       342.20
   80.01        2975.50           2505          72.00       302.97
   80.04        2975.75           2509          84.00       355.28
   80.08        2976.00           2512          82.00       346.56
   80.11        2976.25           2516          83.00       350.92
   80.14        2976.50           2520          75.00       316.05
   80.17        2976.75           2523          75.00       316.05
   80.20        2977.00           2527          83.00       350.92
   80.23        2977.25           2530          72.00       302.97
   80.26        2977.50           2534          77.00       324.76
   80.29        2977.75           2537          72.00       302.97
   80.32        2978.00           2541          72.00       302.97
   80.35        2978.25           2544          66.00       276.81
   80.38        2978.50           2548          69.00       289.89
   80.41        2978.75           2552          74.00       311.69
   80.44        2979.00           2555          70.00       294.25
   80.47        2979.25           2559          69.00       289.89
   80.50        2979.50           2562          68.00       285.53
   80.53        2979.75           2566          73.00       307.33
   80.56        2980.00           2569          70.00       294.25
   80.60        2980.25           2573          70.00       294.25
   80.63        2980.50           2577          65.00       272.45
   80.66        2980.75           2580          77.00       324.76
   80.69        2981.00           2584          64.00       268.09
   80.72        2981.25           2587          64.00       268.09
   80.75        2981.50           2591          65.00       272.45
   80.78        2981.75           2594          61.00       255.02
   80.81        2982.00           2598          65.00       272.45
   80.84        2982.25           2601          60.00       250.66
   80.87        2982.50           2605          67.00       281.17
   80.90        2982.75           2609          65.00       272.45
   80.93        2983.00           2612          63.00       263.73
   80.96        2983.25           2616          62.00       259.37
   80.99        2983.50           2619          60.00       250.66
   81.02        2983.75           2623          64.00       268.09
   81.05        2984.00           2626          55.00       228.86
HS scan finished at 01:21:17
end
************************************************************
  HS Scan of (1) Internal mercury lamp
************************************************************
Integration time is 0.2294 seconds per sample
dh120618Reading 51.44 .94 3.49pr1000
************************************************************
Dead Time -------------------------  3.4E-08 
Number of Cycles Used -------------  4 
Starting Wavelength (Angstroms) ---  2950 
Final Wavelength (Angstoms) -------  2984 
Wavelength Increment (Angstroms) --  .25 
Filter Wheel #1 Position ---------- (1) Ground quartz diffuser (ND=2.32)
Filter Wheel #2 Position ---------- (1) Neutral Density 0.494



************************************************************
HS scan start time = 21:07:27
Dark Count =  2.7 


Time (GMT)  Wavelength (Ang)  Step Number  Raw Counts  Counts/Second

 1268.36        2950.00           2144          54.00       223.63
 1268.55        2950.25           2147          63.00       262.86
 1268.58        2950.50           2151          60.00       249.78
 1268.61        2950.75           2155          63.00       262.86
 1268.64        2951.00           2158          70.00       293.38
 1268.67        2951.25           2162          70.00       293.38
 1268.70        2951.50           2165          66.00       275.94
 1268.73        2951.75           2169          66.00       275.94
 1268.76        2952.00           2172          54.00       223.63
 1268.80        2952.25           2176          64.00       267.22
 1268.83        2952.50           2179          72.00       302.10
 1268.86        2952.75           2183          59.00       245.42
 1268.89        2953.00           2186          67.00       280.30
 1268.92        2953.25           2190          73.00       306.45
 1268.95        2953.50           2193          61.00       254.14
 1268.98        2953.75           2197          60.00       249.78
 1269.01        2954.00           2200          68.00       284.66
 1269.04        2954.25           2204          65.00       271.58
 1269.07        2954.50           2208          61.00       254.14
 1269.10        2954.75           2211          71.00       297.74
 1269.13        2955.00           2215          66.00       275.94
 1269.16        2955.25           2218          62.00       258.50
 1269.19        2955.50           2222          75.00       315.17
 1269.22        2955.75           2225          64.00       267.22
 1269.25        2956.00           2229          74.00       310.81
 1269.28        2956.25           2232          72.00       302.10
 1269.31        2956.50           2236          80.00       336.97
 1269.35        2956.75           2239          72.00       302.10
 1269.38        2957.00           2243          68.00       284.66
 1269.41        2957.25           2246          75.00       315.17
 1269.44        2957.50           2250          69.00       289.02
 1269.47        2957.75           2254          79.00       332.61
 1269.50        2958.00           2257          75.00       315.17
 1269.53        2958.25           2261          79.00       332.61
 1269.56        2958.50           2264          78.00       328.25
 1269.59        2958.75           2268          80.00       336.97
 1269.62        2959.00           2271          75.00       315.17
 1269.66        2959.25           2275          78.00       328.25
 1269.69        2959.50           2278          96.00       406.72
 1269.72        2959.75           2282          92.00       389.28
 1269.75        2960.00           2285          87.00       367.49
 1269.78        2960.25           2289          86.00       363.13
 1269.81        2960.50           2293         102.00       432.87
 1269.84        2960.75           2296          89.00       376.20
 1269.87        2961.00           2300         133.00       568.01
 1269.90        2961.25           2303         270.00      1165.26
 1269.93        2961.50           2307         888.00      3859.70
 1269.96        2961.75           2310        1592.00      6929.71
 1269.99        2962.00           2314        2835.00     12351.74
 1270.02        2962.25           2317        3667.00     15982.09
 1270.06        2962.50           2321        4917.00     21438.03
 1270.09        2962.75           2324        5845.00     25489.82
 1270.12        2963.00           2328        7275.00     31735.62
 1270.15        2963.25           2331        8437.00     36812.83
 1270.18        2963.50           2335        9737.00     42495.10
 1270.21        2963.75           2339       11136.00     48612.54
 1270.24        2964.00           2342       11978.00     52295.61
 1270.27        2964.25           2346       13205.00     57664.39
 1270.30        2964.50           2349       14209.00     62058.89
 1270.33        2964.75           2353       15691.00     68547.99
 1270.36        2965.00           2356       16625.00     72639.08
 1270.39        2965.25           2360       17862.00     78059.13
 1270.42        2965.50           2363       18642.00     81477.81
 1270.45        2965.75           2367       19797.00     86541.54
 1270.48        2966.00           2370       20833.00     91085.06
 1270.51        2966.25           2374       21932.00     95906.38
 1270.54        2966.50           2378       22374.00     97845.89
 1270.58        2966.75           2381       22473.00     98280.35
 1270.61        2967.00           2385       22513.00     98455.89
 1270.64        2967.25           2388       22567.00     98692.88
 1270.67        2967.50           2392       22549.00     98613.88
 1270.70        2967.75           2395       22394.00     97933.66
 1270.73        2968.00           2399       22187.00     97025.31
 1270.76        2968.25           2402       21282.00     93054.62
 1270.79        2968.50           2406       20103.00     87883.39
 1270.82        2968.75           2409       19279.00     84270.31
 1270.85        2969.00           2413       17749.00     77563.91
 1270.88        2969.25           2417       16623.00     72630.31
 1270.91        2969.50           2420       15605.00     68171.35
 1270.94        2969.75           2424       14352.00     62684.90
 1270.97        2970.00           2427       13336.00     58237.70
 1271.00        2970.25           2431       11808.00     51551.92
 1271.03        2970.50           2434       10536.00     45988.59
 1271.06        2970.75           2438        9263.00     40423.00
 1271.10        2971.00           2441        8246.00     35978.16
 1271.13        2971.25           2445        6880.00     30010.12
 1271.16        2971.50           2449        5504.00     24000.83
 1271.19        2971.75           2452        4449.00     19395.09
 1271.22        2972.00           2456        3302.00     14389.34
 1271.25        2972.25           2459        2341.00     10196.65
 1271.28        2972.50           2463        1210.00      5263.80
 1271.31        2972.75           2466         589.00      2556.02
 1271.34        2973.00           2470         183.00       785.98
 1271.37        2973.25           2473         117.00       498.26
 1271.40        2973.50           2477         114.00       485.19
 1271.44        2973.75           2481          97.00       411.08
 1271.47        2974.00           2484         129.00       550.58
 1271.50        2974.25           2488          98.00       415.44
 1271.53        2974.50           2491          81.00       341.33
 1271.56        2974.75           2495          92.00       389.28
 1271.59        2975.00           2498          95.00       402.36
 1271.62        2975.25           2502          87.00       367.49
 1271.65        2975.50           2505          79.00       332.61
 1271.68        2975.75           2509          75.00       315.17
 1271.71        2976.00           2512          78.00       328.25
 1271.74        2976.25           2516          75.00       315.17
 1271.78        2976.50           2520          82.00       345.69
 1271.81        2976.75           2523          78.00       328.25
 1271.84        2977.00           2527          76.00       319.53
 1271.87        2977.25           2530          82.00       345.69
 1271.90        2977.50           2534          73.00       306.45
 1271.93        2977.75           2537          78.00       328.25
 1271.96        2978.00           2541          74.00       310.81
 1271.99        2978.25           2544          72.00       302.10
 1272.02        2978.50           2548          71.00       297.74
 1272.05        2978.75           2552          69.00       289.02
 1272.08        2979.00           2555          72.00       302.10
 1272.11        2979.25           2559          69.00       289.02
 1272.14        2979.50           2562          75.00       315.17
 1272.17        2979.75           2566          62.00       258.50
 1272.20        2980.00           2569          73.00       306.45
 1272.23        2980.25           2573          66.00       275.94
 1272.26        2980.50           2577          67.00       280.30
 1272.30        2980.75           2580          59.00       245.42
 1272.33        2981.00           2584          67.00       280.30
 1272.36        2981.25           2587          66.00       275.94
 1272.39        2981.50           2591          66.00       275.94
 1272.42        2981.75           2594          67.00       280.30
 1272.45        2982.00           2598          58.00       241.07
 1272.48        2982.25           2601          66.00       275.94
 1272.51        2982.50           2605          64.00       267.22
 1272.54        2982.75           2609          66.00       275.94
 1272.57        2983.00           2612          59.00       245.42
 1272.60        2983.25           2616          74.00       310.81
 1272.63        2983.50           2619          60.00       249.78
 1272.66        2983.75           2623          69.00       289.02
 1272.69        2984.00           2626          63.00       262.86
HS scan finished at 21:12:55
end
