************************************************************
  HS Scan of (1) Internal mercury lamp
************************************************************
Integration time is 0.2294 seconds per sample
dh170618Reading 51.44 .94 3.29pr1000
************************************************************
Dead Time -------------------------  3.4E-08 
Number of Cycles Used -------------  4 
Starting Wavelength (Angstroms) ---  2950 
Final Wavelength (Angstoms) -------  2984 
Wavelength Increment (Angstroms) --  .25 
Filter Wheel #1 Position ---------- (1) Ground quartz diffuser (ND=2.32)
Filter Wheel #2 Position ---------- (1) Neutral Density 0.494



************************************************************
HS scan start time = 01:13:33
Dark Count =  1.4 


Time (GMT)  Wavelength (Ang)  Step Number  Raw Counts  Counts/Second

   74.45        2950.00           2144          54.00       229.30
   74.65        2950.25           2147          61.00       259.81
   74.68        2950.50           2151          61.00       259.81
   74.71        2950.75           2155          68.00       290.33
   74.74        2951.00           2158          60.00       255.45
   74.77        2951.25           2162          69.00       294.68
   74.80        2951.50           2165          60.00       255.45
   74.83        2951.75           2169          64.00       272.89
   74.86        2952.00           2172          61.00       259.81
   74.89        2952.25           2176          71.00       303.40
   74.92        2952.50           2179          58.00       246.73
   74.95        2952.75           2183          64.00       272.89
   74.98        2953.00           2186          66.00       281.61
   75.01        2953.25           2190          62.00       264.17
   75.04        2953.50           2193          62.00       264.17
   75.07        2953.75           2197          70.00       299.04
   75.11        2954.00           2200          69.00       294.68
   75.14        2954.25           2204          68.00       290.33
   75.17        2954.50           2208          66.00       281.61
   75.20        2954.75           2211          71.00       303.40
   75.23        2955.00           2215          67.00       285.97
   75.26        2955.25           2218          65.00       277.25
   75.29        2955.50           2222          71.00       303.40
   75.33        2955.75           2225          67.00       285.97
   75.36        2956.00           2229          70.00       299.04
   75.39        2956.25           2232          69.00       294.68
   75.42        2956.50           2236          70.00       299.04
   75.45        2956.75           2239          74.00       316.48
   75.48        2957.00           2243          81.00       347.00
   75.51        2957.25           2246          73.00       312.12
   75.54        2957.50           2250          80.00       342.64
   75.57        2957.75           2254          77.00       329.56
   75.60        2958.00           2257          76.00       325.20
   75.63        2958.25           2261          72.00       307.76
   75.66        2958.50           2264          71.00       303.40
   75.69        2958.75           2268          74.00       316.48
   75.72        2959.00           2271          73.00       312.12
   75.75        2959.25           2275          83.00       355.71
   75.78        2959.50           2278          79.00       338.28
   75.82        2959.75           2282          81.00       347.00
   75.85        2960.00           2285          87.00       373.15
   75.88        2960.25           2289          83.00       355.71
   75.91        2960.50           2293          87.00       373.15
   75.94        2960.75           2296          96.00       412.39
   75.97        2961.00           2300         147.00       634.71
   76.00        2961.25           2303         269.00      1166.57
   76.03        2961.50           2307         840.00      3656.08
   76.06        2961.75           2310        1535.00      6686.79
   76.09        2962.00           2314        2533.00     11039.89
   76.12        2962.25           2317        3513.00     15315.73
   76.15        2962.50           2321        4762.00     20767.06
   76.18        2962.75           2324        5774.00     25185.46
   76.21        2963.00           2328        7059.00     30797.71
   76.24        2963.25           2331        8011.00     34956.96
   76.27        2963.50           2335        9166.00     40004.68
   76.30        2963.75           2339       10519.00     45919.94
   76.34        2964.00           2342       11435.00     49926.01
   76.37        2964.25           2346       12760.00     55722.74
   76.40        2964.50           2349       13641.00     59578.28
   76.43        2964.75           2353       14691.00     64174.74
   76.46        2965.00           2356       15498.00     67708.45
   76.49        2965.25           2360       17146.00     74927.34
   76.52        2965.50           2363       17560.00     76741.38
   76.55        2965.75           2367       18747.00     81943.77
   76.58        2966.00           2370       19751.00     86345.53
   76.61        2966.25           2374       20838.00     91112.69
   76.64        2966.50           2378       21506.00     94043.02
   76.67        2966.75           2381       21508.00     94051.80
   76.70        2967.00           2385       21471.00     93889.47
   76.73        2967.25           2388       21383.00     93503.41
   76.76        2967.50           2392       21030.00     91954.88
   76.79        2967.75           2395       21202.00     92709.38
   76.82        2968.00           2399       20539.00     89801.24
   76.86        2968.25           2402       19808.00     86595.48
   76.89        2968.50           2406       18394.00     80396.44
   76.92        2968.75           2409       17889.00     78183.13
   76.95        2969.00           2413       16510.00     72141.00
   76.98        2969.25           2417       15490.00     67673.41
   77.01        2969.50           2420       14547.00     63544.29
   77.04        2969.75           2424       13362.00     58357.18
   77.07        2970.00           2427       12330.00     53841.28
   77.10        2970.25           2431       11061.00     48290.21
   77.13        2970.50           2434       10200.00     44525.07
   77.16        2970.75           2438        8921.00     38933.81
   77.19        2971.00           2441        7998.00     34900.15
   77.22        2971.25           2445        6590.00     28749.10
   77.25        2971.50           2449        5171.00     22552.60
   77.28        2971.75           2452        4209.00     18353.21
   77.31        2972.00           2456        3045.00     13273.65
   77.34        2972.25           2459        2129.00      9277.56
   77.38        2972.50           2463        1199.00      5221.50
   77.41        2972.75           2466         580.00      2522.45
   77.44        2973.00           2470         180.00       778.57
   77.47        2973.25           2473         120.00       517.01
   77.50        2973.50           2477         114.00       490.85
   77.53        2973.75           2481          93.00       399.31
   77.56        2974.00           2484          82.00       351.36
   77.59        2974.25           2488          95.00       408.03
   77.62        2974.50           2491          74.00       316.48
   77.65        2974.75           2495          87.00       373.15
   77.68        2975.00           2498          88.00       377.51
   77.71        2975.25           2502          86.00       368.79
   77.74        2975.50           2505          80.00       342.64
   77.77        2975.75           2509          73.00       312.12
   77.80        2976.00           2512          79.00       338.28
   77.83        2976.25           2516          74.00       316.48
   77.86        2976.50           2520          73.00       312.12
   77.89        2976.75           2523          71.00       303.40
   77.93        2977.00           2527          70.00       299.04
   77.96        2977.25           2530          69.00       294.68
   77.99        2977.50           2534          69.00       294.68
   78.02        2977.75           2537          74.00       316.48
   78.05        2978.00           2541          67.00       285.97
   78.08        2978.25           2544          66.00       281.61
   78.11        2978.50           2548          69.00       294.68
   78.14        2978.75           2552          74.00       316.48
   78.17        2979.00           2555          64.00       272.89
   78.20        2979.25           2559          68.00       290.33
   78.23        2979.50           2562          60.00       255.45
   78.26        2979.75           2566          68.00       290.33
   78.29        2980.00           2569          68.00       290.33
   78.32        2980.25           2573          63.00       268.53
   78.35        2980.50           2577          66.00       281.61
   78.38        2980.75           2580          54.00       229.30
   78.42        2981.00           2584          68.00       290.33
   78.45        2981.25           2587          61.00       259.81
   78.48        2981.50           2591          62.00       264.17
   78.51        2981.75           2594          66.00       281.61
   78.54        2982.00           2598          60.00       255.45
   78.57        2982.25           2601          69.00       294.68
   78.60        2982.50           2605          65.00       277.25
   78.63        2982.75           2609          62.00       264.17
   78.66        2983.00           2612          59.00       251.09
   78.69        2983.25           2616          66.00       281.61
   78.72        2983.50           2619          67.00       285.97
   78.75        2983.75           2623          67.00       285.97
   78.78        2984.00           2626          59.00       251.09
HS scan finished at 01:19:00
end
************************************************************
  HS Scan of (1) Internal mercury lamp
************************************************************
Integration time is 0.2294 seconds per sample
dh170618Reading 51.44 .94 3.49pr1000
************************************************************
Dead Time -------------------------  3.4E-08 
Number of Cycles Used -------------  4 
Starting Wavelength (Angstroms) ---  2950 
Final Wavelength (Angstoms) -------  2984 
Wavelength Increment (Angstroms) --  .25 
Filter Wheel #1 Position ---------- (1) Ground quartz diffuser (ND=2.32)
Filter Wheel #2 Position ---------- (1) Neutral Density 0.494



************************************************************
HS scan start time = 21:07:24
Dark Count =  2.2 


Time (GMT)  Wavelength (Ang)  Step Number  Raw Counts  Counts/Second

 1268.31        2950.00           2144          55.00       230.17
 1268.50        2950.25           2147          56.00       234.53
 1268.53        2950.50           2151          54.00       225.81
 1268.56        2950.75           2155          53.00       221.45
 1268.59        2951.00           2158          57.00       238.89
 1268.62        2951.25           2162          57.00       238.89
 1268.65        2951.50           2165          58.00       243.25
 1268.68        2951.75           2169          56.00       234.53
 1268.71        2952.00           2172          52.00       217.09
 1268.74        2952.25           2176          51.00       212.73
 1268.77        2952.50           2179          57.00       238.89
 1268.81        2952.75           2183          55.00       230.17
 1268.84        2953.00           2186          58.00       243.25
 1268.88        2953.25           2190          54.00       225.81
 1268.91        2953.50           2193          59.00       247.60
 1268.94        2953.75           2197          60.00       251.96
 1268.97        2954.00           2200          62.00       260.68
 1269.00        2954.25           2204          64.00       269.40
 1269.03        2954.50           2208          60.00       251.96
 1269.07        2954.75           2211          60.00       251.96
 1269.10        2955.00           2215          57.00       238.89
 1269.13        2955.25           2218          64.00       269.40
 1269.16        2955.50           2222          62.00       260.68
 1269.19        2955.75           2225          67.00       282.48
 1269.22        2956.00           2229          60.00       251.96
 1269.25        2956.25           2232          65.00       273.76
 1269.28        2956.50           2236          65.00       273.76
 1269.31        2956.75           2239          63.00       265.04
 1269.34        2957.00           2243          65.00       273.76
 1269.37        2957.25           2246          67.00       282.48
 1269.40        2957.50           2250          62.00       260.68
 1269.43        2957.75           2254          67.00       282.48
 1269.46        2958.00           2257          69.00       291.20
 1269.49        2958.25           2261          70.00       295.56
 1269.52        2958.50           2264          68.00       286.84
 1269.55        2958.75           2268          63.00       265.04
 1269.59        2959.00           2271          75.00       317.35
 1269.62        2959.25           2275          72.00       304.28
 1269.65        2959.50           2278          82.00       347.87
 1269.68        2959.75           2282          75.00       317.35
 1269.71        2960.00           2285          74.00       312.99
 1269.74        2960.25           2289          78.00       330.43
 1269.77        2960.50           2293          89.00       378.38
 1269.80        2960.75           2296          79.00       334.79
 1269.83        2961.00           2300         157.00       674.82
 1269.86        2961.25           2303         205.00       884.07
 1269.89        2961.50           2307         791.00      3438.94
 1269.92        2961.75           2310        1515.00      6596.07
 1269.95        2962.00           2314        2570.00     11197.81
 1269.98        2962.25           2317        3399.00     14814.78
 1270.01        2962.50           2321        4512.00     19672.27
 1270.04        2962.75           2324        5470.00     23854.56
 1270.07        2963.00           2328        6817.00     29737.11
 1270.11        2963.25           2331        7701.00     33598.95
 1270.14        2963.50           2335        8819.00     38484.50
 1270.17        2963.75           2339       10086.00     44023.13
 1270.20        2964.00           2342       11189.00     48846.53
 1270.23        2964.25           2346       12476.00     54476.57
 1270.26        2964.50           2349       13353.00     58314.28
 1270.29        2964.75           2353       14459.00     63155.52
 1270.32        2965.00           2356       15392.00     67240.74
 1270.35        2965.25           2360       16699.00     72965.46
 1270.38        2965.50           2363       17479.00     76382.96
 1270.41        2965.75           2367       18614.00     81357.26
 1270.44        2966.00           2370       19364.00     84645.18
 1270.47        2966.25           2374       20251.00     88534.63
 1270.50        2966.50           2378       20565.00     89911.76
 1270.53        2966.75           2381       20547.00     89832.81
 1270.56        2967.00           2385       20777.00     90841.61
 1270.59        2967.25           2388       20656.00     90310.88
 1270.63        2967.50           2392       20375.00     89078.46
 1270.66        2967.75           2395       20321.00     88841.63
 1270.69        2968.00           2399       19298.00     84355.81
 1270.72        2968.25           2402       18438.00     80585.81
 1270.75        2968.50           2406       17298.00     75589.85
 1270.78        2968.75           2409       16695.00     72947.93
 1270.81        2969.00           2413       15712.00     68642.13
 1270.84        2969.25           2417       14522.00     63431.34
 1270.87        2969.50           2420       13737.00     59994.97
 1270.90        2969.75           2424       12453.00     54375.94
 1270.93        2970.00           2427       11561.00     50473.64
 1270.96        2970.25           2431       10202.00     44530.32
 1270.99        2970.50           2434        9386.00     40962.85
 1271.02        2970.75           2438        8081.00     35259.33
 1271.05        2971.00           2441        7249.00     31624.22
 1271.08        2971.25           2445        6241.00     27221.35
 1271.11        2971.50           2449        5068.00     22099.42
 1271.15        2971.75           2452        4183.00     18236.24
 1271.18        2972.00           2456        3060.00     13335.60
 1271.21        2972.25           2459        2149.00      9361.31
 1271.24        2972.50           2463        1159.00      5043.59
 1271.27        2972.75           2466         585.00      2540.76
 1271.30        2973.00           2470         198.00       853.56
 1271.33        2973.25           2473         144.00       618.15
 1271.36        2973.50           2477          88.00       374.02
 1271.39        2973.75           2481          81.00       343.51
 1271.42        2974.00           2484          80.00       339.15
 1271.45        2974.25           2488          86.00       365.31
 1271.48        2974.50           2491          76.00       321.71
 1271.51        2974.75           2495          78.00       330.43
 1271.54        2975.00           2498          75.00       317.35
 1271.57        2975.25           2502          77.00       326.07
 1271.60        2975.50           2505          78.00       330.43
 1271.63        2975.75           2509          71.00       299.92
 1271.67        2976.00           2512          73.00       308.63
 1271.70        2976.25           2516          66.00       278.12
 1271.73        2976.50           2520          68.00       286.84
 1271.76        2976.75           2523          72.00       304.28
 1271.79        2977.00           2527          73.00       308.63
 1271.82        2977.25           2530          67.00       282.48
 1271.85        2977.50           2534          61.00       256.32
 1271.88        2977.75           2537          71.00       299.92
 1271.91        2978.00           2541          74.00       312.99
 1271.94        2978.25           2544          64.00       269.40
 1271.97        2978.50           2548          69.00       291.20
 1272.00        2978.75           2552          71.00       299.92
 1272.03        2979.00           2555          60.00       251.96
 1272.06        2979.25           2559          67.00       282.48
 1272.09        2979.50           2562          52.00       217.09
 1272.12        2979.75           2566          73.00       308.63
 1272.15        2980.00           2569          59.00       247.60
 1272.18        2980.25           2573          59.00       247.60
 1272.22        2980.50           2577          60.00       251.96
 1272.25        2980.75           2580          57.00       238.89
 1272.28        2981.00           2584          64.00       269.40
 1272.31        2981.25           2587          62.00       260.68
 1272.34        2981.50           2591          53.00       221.45
 1272.37        2981.75           2594          60.00       251.96
 1272.40        2982.00           2598          51.00       212.73
 1272.43        2982.25           2601          51.00       212.73
 1272.46        2982.50           2605          62.00       260.68
 1272.49        2982.75           2609          57.00       238.89
 1272.52        2983.00           2612          64.00       269.40
 1272.55        2983.25           2616          62.00       260.68
 1272.58        2983.50           2619          57.00       238.89
 1272.61        2983.75           2623          63.00       265.04
 1272.64        2984.00           2626          56.00       234.53
HS scan finished at 21:12:52
end
