************************************************************
  HS Scan of (1) Internal mercury lamp
************************************************************
Integration time is 0.2294 seconds per sample
dh170619El Arenosillo 37.1 6.73 3.45pr1000
************************************************************
Dead Time -------------------------  3.2E-08 
Number of Cycles Used -------------  4 
Starting Wavelength (Angstroms) ---  2950 
Final Wavelength (Angstoms) -------  2984 
Wavelength Increment (Angstroms) --  .25 
Filter Wheel #1 Position ---------- (1) Ground quartz diffuser (ND=2.32)
Filter Wheel #2 Position ---------- (1) Neutral Density 0.494



************************************************************
HS scan start time = 21:27:54
Dark Count =  2.1 


Time (GMT)  Wavelength (Ang)  Step Number  Raw Counts  Counts/Second

 1288.79        2950.00           2144        1055.00      4590.47
 1288.99        2950.25           2147        1085.00      4721.29
 1289.02        2950.50           2151        1071.00      4660.24
 1289.05        2950.75           2155        1031.00      4485.82
 1289.08        2951.00           2158        1050.00      4568.67
 1289.11        2951.25           2162        1080.00      4699.49
 1289.14        2951.50           2165        1056.00      4594.83
 1289.17        2951.75           2169        1060.00      4612.28
 1289.20        2952.00           2172        1071.00      4660.24
 1289.23        2952.25           2176        1068.00      4647.16
 1289.26        2952.50           2179        1082.00      4708.21
 1289.29        2952.75           2183        1092.00      4751.81
 1289.32        2953.00           2186        1099.00      4782.34
 1289.35        2953.25           2190        1098.00      4777.98
 1289.38        2953.50           2193        1101.00      4791.06
 1289.41        2953.75           2197        1108.00      4821.58
 1289.44        2954.00           2200        1105.00      4808.50
 1289.47        2954.25           2204        1118.00      4865.19
 1289.51        2954.50           2208        1126.00      4900.07
 1289.54        2954.75           2211        1141.00      4965.48
 1289.57        2955.00           2215        1115.00      4852.11
 1289.60        2955.25           2218        1140.00      4961.12
 1289.63        2955.50           2222        1137.00      4948.04
 1289.66        2955.75           2225        1141.00      4965.48
 1289.69        2956.00           2229        1167.00      5078.86
 1289.72        2956.25           2232        1189.00      5174.79
 1289.75        2956.50           2236        1181.00      5139.90
 1289.78        2956.75           2239        1204.00      5240.20
 1289.81        2957.00           2243        1208.00      5257.64
 1289.84        2957.25           2246        1221.00      5314.33
 1289.87        2957.50           2250        1240.00      5397.18
 1289.90        2957.75           2254        1185.00      5157.35
 1289.93        2958.00           2257        1222.00      5318.69
 1289.96        2958.25           2261        1251.00      5445.15
 1289.99        2958.50           2264        1266.00      5510.56
 1290.03        2958.75           2268        1273.00      5541.09
 1290.06        2959.00           2271        1280.00      5571.61
 1290.09        2959.25           2275        1344.00      5850.70
 1290.12        2959.50           2278        1332.00      5798.37
 1290.15        2959.75           2282        1388.00      6042.58
 1290.18        2960.00           2285        1377.00      5994.61
 1290.21        2960.25           2289        1408.00      6129.80
 1290.24        2960.50           2293        1421.00      6186.49
 1290.27        2960.75           2296        1446.00      6295.51
 1290.30        2961.00           2300        1748.00      7612.58
 1290.33        2961.25           2303        3600.00     15691.84
 1290.36        2961.50           2307       13082.00     57122.20
 1290.39        2961.75           2310       22777.00     99597.22
 1290.42        2962.00           2314       39044.00    171125.90
 1290.45        2962.25           2317       52461.00    230370.70
 1290.48        2962.50           2321       71598.00    315265.30
 1290.51        2962.75           2324       84812.00    374156.20
 1290.54        2963.00           2328      102164.00    451829.70
 1290.58        2963.25           2331      116158.00    514756.30
 1290.61        2963.50           2335      135613.00    602666.10
 1290.64        2963.75           2339      154737.00    689569.60
 1290.67        2964.00           2342      169461.00    756813.40
 1290.70        2964.25           2346      187664.00    840352.40
 1290.73        2964.50           2349      201982.00    906381.80
 1290.76        2964.75           2353      221109.00    995032.60
 1290.79        2965.00           2356      234058.00   1055341.00
 1290.82        2965.25           2360      251127.00   1135201.00
 1290.85        2965.50           2363      263544.00   1193559.00
 1290.88        2965.75           2367      278970.00   1266369.00
 1290.91        2966.00           2370      291955.00   1327927.00
 1290.94        2966.25           2374      305306.00   1391480.00
 1290.97        2966.50           2378      310088.00   1414308.00
 1291.00        2966.75           2381      310735.00   1417399.00
 1291.03        2967.00           2385      310745.00   1417447.00
 1291.06        2967.25           2388      311365.00   1420409.00
 1291.10        2967.50           2392      310640.00   1416945.00
 1291.13        2967.75           2395      307132.00   1400193.00
 1291.16        2968.00           2399      295318.00   1343911.00
 1291.19        2968.25           2402      285406.00   1296849.00
 1291.22        2968.50           2406      269876.00   1223403.00
 1291.25        2968.75           2409      256014.00   1158142.00
 1291.28        2969.00           2413      238518.00   1076168.00
 1291.31        2969.25           2417      221188.00    995399.80
 1291.34        2969.50           2420      207400.00    931441.50
 1291.37        2969.75           2424      188902.00    846050.40
 1291.40        2970.00           2427      175239.00    783281.30
 1291.43        2970.25           2431      157067.00    700191.10
 1291.46        2970.50           2434      143593.00    638869.50
 1291.49        2970.75           2438      126616.00    561950.00
 1291.52        2971.00           2441      112835.00    499790.70
 1291.55        2971.25           2445       93410.00    412595.30
 1291.59        2971.50           2449       73353.00    323074.00
 1291.62        2971.75           2452       59005.00    259348.80
 1291.65        2972.00           2456       43398.00    190327.00
 1291.68        2972.25           2459       31299.00    137028.90
 1291.71        2972.50           2463       15075.00     65844.35
 1291.74        2972.75           2466        6308.00     27512.88
 1291.77        2973.00           2470        2285.00      9954.78
 1291.80        2973.25           2473        1677.00      7302.93
 1291.83        2973.50           2477        1519.00      6613.87
 1291.86        2973.75           2481        1425.00      6203.94
 1291.89        2974.00           2484        1386.00      6033.86
 1291.92        2974.25           2488        1369.00      5959.72
 1291.95        2974.50           2491        1336.00      5815.82
 1291.98        2974.75           2495        1300.00      5658.83
 1292.01        2975.00           2498        1297.00      5645.75
 1292.04        2975.25           2502        1259.00      5480.04
 1292.07        2975.50           2505        1260.00      5484.40
 1292.11        2975.75           2509        1247.00      5427.71
 1292.14        2976.00           2512        1253.00      5453.87
 1292.17        2976.25           2516        1248.00      5432.07
 1292.20        2976.50           2520        1224.00      5327.41
 1292.23        2976.75           2523        1193.00      5192.23
 1292.26        2977.00           2527        1186.00      5161.71
 1292.29        2977.25           2530        1155.00      5026.53
 1292.32        2977.50           2534        1182.00      5144.26
 1292.35        2977.75           2537        1136.00      4943.68
 1292.38        2978.00           2541        1142.00      4969.84
 1292.41        2978.25           2544        1113.00      4843.38
 1292.44        2978.50           2548        1126.00      4900.07
 1292.47        2978.75           2552        1089.00      4738.73
 1292.50        2979.00           2555        1090.00      4743.09
 1292.53        2979.25           2559        1101.00      4791.06
 1292.56        2979.50           2562        1051.00      4573.03
 1292.59        2979.75           2566        1067.00      4642.80
 1292.63        2980.00           2569        1061.00      4616.64
 1292.66        2980.25           2573        1088.00      4734.37
 1292.69        2980.50           2577        1054.00      4586.11
 1292.72        2980.75           2580        1036.00      4507.63
 1292.75        2981.00           2584        1066.00      4638.44
 1292.78        2981.25           2587        1044.00      4542.51
 1292.81        2981.50           2591        1050.00      4568.67
 1292.84        2981.75           2594        1042.00      4533.79
 1292.87        2982.00           2598        1039.00      4520.71
 1292.90        2982.25           2601        1022.00      4446.58
 1292.93        2982.50           2605        1017.00      4424.78
 1292.96        2982.75           2609        1032.00      4490.18
 1292.99        2983.00           2612         988.00      4298.32
 1293.02        2983.25           2616        1021.00      4442.22
 1293.05        2983.50           2619        1041.00      4529.43
 1293.08        2983.75           2623        1023.00      4450.94
 1293.11        2984.00           2626        1027.00      4468.38
HS scan finished at 21:33:20
end
