************************************************************
  HS Scan of (1) Internal mercury lamp
************************************************************
Integration time is 0.2294 seconds per sample
dh140618Reading 51.44 .94 3.41pr1000
************************************************************
Dead Time -------------------------  3.4E-08 
Number of Cycles Used -------------  4 
Starting Wavelength (Angstroms) ---  2950 
Final Wavelength (Angstoms) -------  2984 
Wavelength Increment (Angstroms) --  .25 
Filter Wheel #1 Position ---------- (1) Ground quartz diffuser (ND=2.32)
Filter Wheel #2 Position ---------- (1) Neutral Density 0.494



************************************************************
HS scan start time = 01:29:48
Dark Count =  1.7 


Time (GMT)  Wavelength (Ang)  Step Number  Raw Counts  Counts/Second

   90.70        2950.00           2144          63.00       267.22
   90.89        2950.25           2147          54.00       227.99
   90.92        2950.50           2151          63.00       267.22
   90.95        2950.75           2155          64.00       271.58
   90.98        2951.00           2158          61.00       258.50
   91.01        2951.25           2162          57.00       241.07
   91.04        2951.50           2165          63.00       267.22
   91.07        2951.75           2169          64.00       271.58
   91.10        2952.00           2172          67.00       284.66
   91.14        2952.25           2176          64.00       271.58
   91.17        2952.50           2179          66.00       280.30
   91.20        2952.75           2183          66.00       280.30
   91.23        2953.00           2186          69.00       293.38
   91.26        2953.25           2190          62.00       262.86
   91.29        2953.50           2193          61.00       258.50
   91.32        2953.75           2197          64.00       271.58
   91.35        2954.00           2200          55.00       232.35
   91.38        2954.25           2204          61.00       258.50
   91.41        2954.50           2208          69.00       293.38
   91.44        2954.75           2211          69.00       293.38
   91.47        2955.00           2215          63.00       267.22
   91.50        2955.25           2218          67.00       284.66
   91.54        2955.50           2222          67.00       284.66
   91.57        2955.75           2225          71.00       302.10
   91.60        2956.00           2229          74.00       315.17
   91.63        2956.25           2232          71.00       302.10
   91.66        2956.50           2236          72.00       306.45
   91.69        2956.75           2239          70.00       297.74
   91.72        2957.00           2243          71.00       302.10
   91.75        2957.25           2246          74.00       315.17
   91.78        2957.50           2250          66.00       280.30
   91.81        2957.75           2254          75.00       319.53
   91.85        2958.00           2257          73.00       310.81
   91.88        2958.25           2261          75.00       319.53
   91.91        2958.50           2264          80.00       341.33
   91.94        2958.75           2268          77.00       328.25
   91.97        2959.00           2271          79.00       336.97
   92.00        2959.25           2275          84.00       358.77
   92.03        2959.50           2278          83.00       354.41
   92.06        2959.75           2282          84.00       358.77
   92.09        2960.00           2285         116.00       498.26
   92.12        2960.25           2289          89.00       380.56
   92.15        2960.50           2293          94.00       402.36
   92.18        2960.75           2296          91.00       389.28
   92.21        2961.00           2300         115.00       493.91
   92.24        2961.25           2303         253.00      1095.51
   92.27        2961.50           2307         956.00      4160.57
   92.30        2961.75           2310        1594.00      6942.79
   92.33        2962.00           2314        2725.00     11876.20
   92.37        2962.25           2317        3727.00     16248.29
   92.40        2962.50           2321        4967.00     21660.67
   92.43        2962.75           2324        5960.00     25996.38
   92.46        2963.00           2328        7183.00     31338.08
   92.49        2963.25           2331        8230.00     35912.61
   92.52        2963.50           2335        9499.00     41459.01
   92.55        2963.75           2339       10845.00     47344.24
   92.58        2964.00           2342       11993.00     52365.60
   92.61        2964.25           2346       13417.00     58596.58
   92.64        2964.50           2349       14505.00     63359.10
   92.67        2964.75           2353       15668.00     68451.63
   92.70        2965.00           2356       16446.00     71859.31
   92.73        2965.25           2360       17718.00     77432.46
   92.76        2965.50           2363       18526.00     80973.72
   92.79        2965.75           2367       20086.00     87813.24
   92.82        2966.00           2370       20813.00     91001.71
   92.85        2966.25           2374       22266.00     97376.35
   92.89        2966.50           2378       22418.00     98043.38
   92.92        2966.75           2381       22699.00     99276.57
   92.95        2967.00           2385       21796.00     95314.06
   92.98        2967.25           2388       21480.00     93927.64
   93.01        2967.50           2392       21464.00     93857.46
   93.04        2967.75           2395       21063.00     92098.33
   93.07        2968.00           2399       20532.00     89769.22
   93.10        2968.25           2402       20771.00     90817.49
   93.13        2968.50           2406       19658.00     85936.44
   93.16        2968.75           2409       18535.00     81013.18
   93.19        2969.00           2413       17543.00     76665.58
   93.22        2969.25           2417       16426.00     71771.71
   93.25        2969.50           2420       15314.00     66901.35
   93.28        2969.75           2424       13831.00     60408.60
   93.31        2970.00           2427       12970.00     56640.36
   93.34        2970.25           2431       11493.00     50178.39
   93.37        2970.50           2434       10630.00     46404.02
   93.41        2970.75           2438        9257.00     40401.14
   93.44        2971.00           2441        8294.00     36192.29
   93.47        2971.25           2445        6991.00     30499.35
   93.50        2971.50           2449        5558.00     24240.99
   93.53        2971.75           2452        4434.00     19333.98
   93.56        2972.00           2456        3211.00     13996.63
   93.59        2972.25           2459        2298.00     10013.43
   93.62        2972.50           2463        1328.00      5782.74
   93.65        2972.75           2466         695.00      3022.54
   93.68        2973.00           2470         211.00       912.41
   93.71        2973.25           2473         122.00       524.42
   93.74        2973.50           2477         141.00       607.25
   93.77        2973.75           2481          99.00       424.16
   93.80        2974.00           2484          84.00       358.77
   93.83        2974.25           2488         107.00       459.03
   93.86        2974.50           2491          83.00       354.41
   93.90        2974.75           2495         111.00       476.47
   93.93        2975.00           2498          85.00       363.13
   93.96        2975.25           2502          84.00       358.77
   93.99        2975.50           2505          81.00       345.69
   94.02        2975.75           2509          76.00       323.89
   94.05        2976.00           2512          84.00       358.77
   94.08        2976.25           2516          83.00       354.41
   94.11        2976.50           2520          85.00       363.13
   94.14        2976.75           2523          78.00       332.61
   94.17        2977.00           2527          72.00       306.45
   94.20        2977.25           2530          80.00       341.33
   94.23        2977.50           2534          81.00       345.69
   94.26        2977.75           2537          77.00       328.25
   94.29        2978.00           2541          74.00       315.17
   94.32        2978.25           2544          74.00       315.17
   94.35        2978.50           2548          76.00       323.89
   94.38        2978.75           2552          72.00       306.45
   94.41        2979.00           2555          68.00       289.02
   94.44        2979.25           2559          72.00       306.45
   94.48        2979.50           2562          72.00       306.45
   94.51        2979.75           2566          72.00       306.45
   94.54        2980.00           2569          66.00       280.30
   94.57        2980.25           2573          67.00       284.66
   94.60        2980.50           2577          75.00       319.53
   94.63        2980.75           2580          63.00       267.22
   94.66        2981.00           2584          68.00       289.02
   94.69        2981.25           2587          66.00       280.30
   94.72        2981.50           2591          69.00       293.38
   94.75        2981.75           2594          59.00       249.78
   94.78        2982.00           2598          66.00       280.30
   94.81        2982.25           2601          66.00       280.30
   94.84        2982.50           2605          68.00       289.02
   94.87        2982.75           2609          60.00       254.14
   94.90        2983.00           2612          59.00       249.78
   94.93        2983.25           2616          63.00       267.22
   94.97        2983.50           2619          63.00       267.22
   95.00        2983.75           2623          67.00       284.66
   95.03        2984.00           2626          65.00       275.94
HS scan finished at 01:35:15
end
************************************************************
  HS Scan of (1) Internal mercury lamp
************************************************************
Integration time is 0.2294 seconds per sample
dh140618Reading 51.44 .94 3.58pr1000
************************************************************
Dead Time -------------------------  3.4E-08 
Number of Cycles Used -------------  4 
Starting Wavelength (Angstroms) ---  2950 
Final Wavelength (Angstoms) -------  2984 
Wavelength Increment (Angstroms) --  .25 
Filter Wheel #1 Position ---------- (1) Ground quartz diffuser (ND=2.32)
Filter Wheel #2 Position ---------- (1) Neutral Density 0.494



************************************************************
HS scan start time = 21:07:26
Dark Count =  4 


Time (GMT)  Wavelength (Ang)  Step Number  Raw Counts  Counts/Second

 1268.33        2950.00           2144          59.00       239.76
 1268.53        2950.25           2147          61.00       248.48
 1268.56        2950.50           2151          63.00       257.19
 1268.59        2950.75           2155          65.00       265.91
 1268.62        2951.00           2158          62.00       252.84
 1268.65        2951.25           2162          64.00       261.55
 1268.68        2951.50           2165          56.00       226.68
 1268.71        2951.75           2169          64.00       261.55
 1268.74        2952.00           2172          67.00       274.63
 1268.77        2952.25           2176          62.00       252.84
 1268.80        2952.50           2179          71.00       292.07
 1268.83        2952.75           2183          67.00       274.63
 1268.86        2953.00           2186          68.00       278.99
 1268.89        2953.25           2190          67.00       274.63
 1268.92        2953.50           2193          62.00       252.84
 1268.95        2953.75           2197          70.00       287.71
 1268.98        2954.00           2200          70.00       287.71
 1269.02        2954.25           2204          65.00       265.91
 1269.05        2954.50           2208          76.00       313.87
 1269.08        2954.75           2211          62.00       252.84
 1269.11        2955.00           2215          72.00       296.43
 1269.14        2955.25           2218          69.00       283.35
 1269.17        2955.50           2222          73.00       300.79
 1269.20        2955.75           2225          72.00       296.43
 1269.23        2956.00           2229          75.00       309.51
 1269.26        2956.25           2232          75.00       309.51
 1269.29        2956.50           2236          68.00       278.99
 1269.32        2956.75           2239          69.00       283.35
 1269.35        2957.00           2243          74.00       305.15
 1269.38        2957.25           2246          76.00       313.87
 1269.41        2957.50           2250          72.00       296.43
 1269.44        2957.75           2254          71.00       292.07
 1269.47        2958.00           2257          73.00       300.79
 1269.50        2958.25           2261          74.00       305.15
 1269.53        2958.50           2264          79.00       326.94
 1269.57        2958.75           2268          77.00       318.22
 1269.60        2959.00           2271          78.00       322.58
 1269.63        2959.25           2275          76.00       313.87
 1269.66        2959.50           2278          87.00       361.82
 1269.69        2959.75           2282          82.00       340.02
 1269.72        2960.00           2285          90.00       374.90
 1269.75        2960.25           2289          90.00       374.90
 1269.78        2960.50           2293          80.00       331.30
 1269.81        2960.75           2296          91.00       379.26
 1269.84        2961.00           2300         153.00       649.53
 1269.87        2961.25           2303         279.00      1198.83
 1269.90        2961.50           2307         931.00      4041.53
 1269.93        2961.75           2310        1745.00      7591.32
 1269.96        2962.00           2314        2990.00     13022.33
 1269.99        2962.25           2317        3857.00     16805.59
 1270.02        2962.50           2321        5040.00     21969.33
 1270.05        2962.75           2324        5981.00     26078.04
 1270.09        2963.00           2328        7244.00     31594.52
 1270.12        2963.25           2331        8311.00     36256.52
 1270.15        2963.50           2335        9715.00     42393.24
 1270.18        2963.75           2339       11012.00     48064.54
 1270.21        2964.00           2342       11966.00     52237.42
 1270.24        2964.25           2346       13387.00     58455.21
 1270.27        2964.50           2349       14224.00     62118.86
 1270.30        2964.75           2353       15364.00     67110.24
 1270.33        2965.00           2356       16340.00     71384.91
 1270.36        2965.25           2360       17643.00     77093.71
 1270.39        2965.50           2363       18472.00     80726.94
 1270.42        2965.75           2367       19700.00     86110.51
 1270.45        2966.00           2370       20534.00     89767.90
 1270.48        2966.25           2374       21620.00     94531.77
 1270.51        2966.50           2378       22294.00     97489.12
 1270.54        2966.75           2381       22545.00     98590.60
 1270.57        2967.00           2385       22641.00     99011.91
 1270.61        2967.25           2388       22505.00     98415.06
 1270.64        2967.50           2392       22517.00     98467.74
 1270.67        2967.75           2395       22506.00     98419.46
 1270.70        2968.00           2399       22003.00     96212.22
 1270.73        2968.25           2402       21126.00     92364.59
 1270.76        2968.50           2406       19891.00     86948.02
 1270.79        2968.75           2409       18849.00     82379.50
 1270.82        2969.00           2413       17506.00     76493.37
 1270.85        2969.25           2417       16316.00     71279.78
 1270.88        2969.50           2420       15484.00     67635.75
 1270.91        2969.75           2424       13997.00     61125.16
 1270.94        2970.00           2427       12815.00     55952.03
 1270.97        2970.25           2431       11547.00     50404.53
 1271.00        2970.50           2434       10393.00     45357.61
 1271.03        2970.75           2438        9228.00     40264.33
 1271.06        2971.00           2441        8169.00     35636.01
 1271.09        2971.25           2445        6768.00     29515.22
 1271.13        2971.50           2449        5376.00     23436.28
 1271.16        2971.75           2452        4286.00     18677.94
 1271.19        2972.00           2456        2991.00     13026.69
 1271.22        2972.25           2459        2152.00      9366.54
 1271.25        2972.50           2463        1067.00      4634.56
 1271.28        2972.75           2466         521.00      2253.88
 1271.31        2973.00           2470         180.00       767.24
 1271.34        2973.25           2473         119.00       501.32
 1271.37        2973.50           2477          99.00       414.13
 1271.40        2973.75           2481          96.00       401.05
 1271.43        2974.00           2484          85.00       353.10
 1271.46        2974.25           2488         115.00       483.88
 1271.49        2974.50           2491          88.00       366.18
 1271.52        2974.75           2495          76.00       313.87
 1271.55        2975.00           2498          88.00       366.18
 1271.58        2975.25           2502          82.00       340.02
 1271.61        2975.50           2505          87.00       361.82
 1271.65        2975.75           2509          84.00       348.74
 1271.68        2976.00           2512          72.00       296.43
 1271.71        2976.25           2516          77.00       318.22
 1271.74        2976.50           2520          78.00       322.58
 1271.77        2976.75           2523          77.00       318.22
 1271.80        2977.00           2527          74.00       305.15
 1271.83        2977.25           2530          76.00       313.87
 1271.86        2977.50           2534          68.00       278.99
 1271.89        2977.75           2537          71.00       292.07
 1271.92        2978.00           2541          65.00       265.91
 1271.95        2978.25           2544          73.00       300.79
 1271.98        2978.50           2548          71.00       292.07
 1272.01        2978.75           2552          78.00       322.58
 1272.04        2979.00           2555          68.00       278.99
 1272.07        2979.25           2559          61.00       248.48
 1272.10        2979.50           2562          63.00       257.19
 1272.13        2979.75           2566          76.00       313.87
 1272.17        2980.00           2569          60.00       244.12
 1272.20        2980.25           2573          67.00       274.63
 1272.23        2980.50           2577          67.00       274.63
 1272.26        2980.75           2580          64.00       261.55
 1272.29        2981.00           2584          63.00       257.19
 1272.32        2981.25           2587          66.00       270.27
 1272.35        2981.50           2591          62.00       252.84
 1272.38        2981.75           2594          61.00       248.48
 1272.41        2982.00           2598          68.00       278.99
 1272.44        2982.25           2601          69.00       283.35
 1272.47        2982.50           2605          62.00       252.84
 1272.50        2982.75           2609          67.00       274.63
 1272.53        2983.00           2612          70.00       287.71
 1272.56        2983.25           2616          57.00       231.04
 1272.59        2983.50           2619          64.00       261.55
 1272.62        2983.75           2623          59.00       239.76
 1272.65        2984.00           2626          60.00       244.12
HS scan finished at 21:12:53
end
