************************************************************
  HS Scan of (1) Internal mercury lamp
************************************************************
Integration time is 0.2294 seconds per sample
dh170617Reading 51.44 .94 3.47pr1000
************************************************************
Dead Time -------------------------  3.4E-08 
Number of Cycles Used -------------  4 
Starting Wavelength (Angstroms) ---  2950 
Final Wavelength (Angstoms) -------  2984 
Wavelength Increment (Angstroms) --  .25 
Filter Wheel #1 Position ---------- (1) Ground quartz diffuser (ND=2.32)
Filter Wheel #2 Position ---------- (1) Neutral Density 0.494



************************************************************
HS scan start time = 01:13:33
Dark Count =  2.5 


Time (GMT)  Wavelength (Ang)  Step Number  Raw Counts  Counts/Second

   74.44        2950.00           2144         355.00      1536.70
   74.64        2950.25           2147         372.00      1610.81
   74.67        2950.50           2151         392.00      1698.01
   74.70        2950.75           2155         368.00      1593.37
   74.73        2951.00           2158         366.00      1584.65
   74.76        2951.25           2162         366.00      1584.65
   74.79        2951.50           2165         381.00      1650.05
   74.82        2951.75           2169         384.00      1663.13
   74.85        2952.00           2172         400.00      1732.88
   74.88        2952.25           2176         361.00      1562.86
   74.91        2952.50           2179         372.00      1610.81
   74.94        2952.75           2183         388.00      1680.57
   74.97        2953.00           2186         374.00      1619.53
   75.00        2953.25           2190         386.00      1671.85
   75.03        2953.50           2193         390.00      1689.29
   75.06        2953.75           2197         372.00      1610.81
   75.10        2954.00           2200         393.00      1702.37
   75.13        2954.25           2204         396.00      1715.44
   75.16        2954.50           2208         402.00      1741.60
   75.19        2954.75           2211         409.00      1772.12
   75.22        2955.00           2215         396.00      1715.44
   75.25        2955.25           2218         376.00      1628.25
   75.28        2955.50           2222         398.00      1724.16
   75.31        2955.75           2225         415.00      1798.28
   75.34        2956.00           2229         413.00      1789.56
   75.37        2956.25           2232         417.00      1807.00
   75.40        2956.50           2236         409.00      1772.12
   75.43        2956.75           2239         429.00      1859.32
   75.46        2957.00           2243         405.00      1754.68
   75.49        2957.25           2246         410.00      1776.48
   75.52        2957.50           2250         430.00      1863.68
   75.55        2957.75           2254         426.00      1846.24
   75.58        2958.00           2257         449.00      1946.51
   75.62        2958.25           2261         456.00      1977.03
   75.65        2958.50           2264         429.00      1859.32
   75.68        2958.75           2268         463.00      2007.55
   75.71        2959.00           2271         477.00      2068.59
   75.74        2959.25           2275         478.00      2072.94
   75.77        2959.50           2278         477.00      2068.59
   75.80        2959.75           2282         497.00      2155.78
   75.83        2960.00           2285         528.00      2290.94
   75.86        2960.25           2289         496.00      2151.42
   75.89        2960.50           2293         506.00      2195.02
   75.92        2960.75           2296         558.00      2421.73
   75.95        2961.00           2300         672.00      2918.77
   75.98        2961.25           2303        1142.00      4968.15
   76.01        2961.50           2307        4393.00     19151.53
   76.04        2961.75           2310        8730.00     38094.21
   76.07        2962.00           2314       15523.00     67813.10
   76.10        2962.25           2317       20783.00     90866.60
   76.13        2962.50           2321       29305.00    128293.80
   76.17        2962.75           2324       35886.00    157261.90
   76.20        2963.00           2328       44242.00    194125.80
   76.23        2963.25           2331       50273.00    220790.30
   76.26        2963.50           2335       58334.00    256505.90
   76.29        2963.75           2339       66602.00    293229.30
   76.32        2964.00           2342       73582.00    324303.90
   76.35        2964.25           2346       81793.00    360943.50
   76.38        2964.50           2349       87760.00    387627.50
   76.41        2964.75           2353       96246.00    425660.50
   76.44        2965.00           2356      101638.00    449878.20
   76.47        2965.25           2360      108849.00    482328.70
   76.50        2965.50           2363      114394.00    507331.20
   76.53        2965.75           2367      122445.00    543709.90
   76.56        2966.00           2370      127840.00    568138.20
   76.59        2966.25           2374      135156.00    601330.40
   76.62        2966.50           2378      138655.00    617231.90
   76.66        2966.75           2381      140010.00    623394.50
   76.69        2967.00           2385      140076.00    623694.70
   76.72        2967.25           2388      140517.00    625701.00
   76.75        2967.50           2392      140522.00    625723.70
   76.78        2967.75           2395      139814.00    622502.90
   76.81        2968.00           2399      136843.00    608995.00
   76.84        2968.25           2402      132356.00    588618.00
   76.87        2968.50           2406      124484.00    552937.60
   76.90        2968.75           2409      119249.00    529257.80
   76.93        2969.00           2413      112122.00    497081.60
   76.96        2969.25           2417      104213.00    461457.80
   76.99        2969.50           2420       97909.00    433125.40
   77.02        2969.75           2424       89418.00    395050.60
   77.05        2970.00           2427       83192.00    367195.30
   77.08        2970.25           2431       75272.00    331837.60
   77.11        2970.50           2434       69163.00    304623.10
   77.14        2970.75           2438       60635.00    266716.80
   77.18        2971.00           2441       54288.00    238568.50
   77.21        2971.25           2445       44779.00    196498.00
   77.24        2971.50           2449       36211.00    158694.00
   77.27        2971.75           2452       29637.00    129753.80
   77.30        2972.00           2456       21618.00     94529.57
   77.33        2972.25           2459       16060.00     70165.01
   77.36        2972.50           2463        8818.00     38478.82
   77.39        2972.75           2466        4648.00     20264.61
   77.42        2973.00           2470        1381.00      6010.38
   77.45        2973.25           2473         753.00      3271.94
   77.48        2973.50           2477         575.00      2495.85
   77.51        2973.75           2481         567.00      2460.97
   77.54        2974.00           2484         561.00      2434.81
   77.57        2974.25           2488         556.00      2413.01
   77.60        2974.50           2491         521.00      2260.42
   77.63        2974.75           2495         528.00      2290.94
   77.66        2975.00           2498         501.00      2173.22
   77.69        2975.25           2502         490.00      2125.26
   77.73        2975.50           2505         517.00      2242.98
   77.76        2975.75           2509         476.00      2064.23
   77.79        2976.00           2512         468.00      2029.35
   77.82        2976.25           2516         448.00      1942.15
   77.85        2976.50           2520         446.00      1933.43
   77.88        2976.75           2523         418.00      1811.36
   77.91        2977.00           2527         445.00      1929.07
   77.94        2977.25           2530         425.00      1841.88
   77.97        2977.50           2534         432.00      1872.39
   78.00        2977.75           2537         408.00      1767.76
   78.03        2978.00           2541         420.00      1820.08
   78.06        2978.25           2544         432.00      1872.39
   78.09        2978.50           2548         419.00      1815.72
   78.12        2978.75           2552         435.00      1885.47
   78.15        2979.00           2555         399.00      1728.52
   78.18        2979.25           2559         408.00      1767.76
   78.21        2979.50           2562         405.00      1754.68
   78.25        2979.75           2566         401.00      1737.24
   78.28        2980.00           2569         381.00      1650.05
   78.31        2980.25           2573         396.00      1715.44
   78.34        2980.50           2577         391.00      1693.65
   78.37        2980.75           2580         381.00      1650.05
   78.40        2981.00           2584         375.00      1623.89
   78.43        2981.25           2587         393.00      1702.37
   78.46        2981.50           2591         390.00      1689.29
   78.49        2981.75           2594         397.00      1719.80
   78.52        2982.00           2598         390.00      1689.29
   78.55        2982.25           2601         379.00      1641.33
   78.58        2982.50           2605         357.00      1545.42
   78.61        2982.75           2609         374.00      1619.53
   78.64        2983.00           2612         362.00      1567.22
   78.67        2983.25           2616         379.00      1641.33
   78.70        2983.50           2619         344.00      1488.74
   78.73        2983.75           2623         345.00      1493.10
   78.77        2984.00           2626         337.00      1458.22
HS scan finished at 01:18:59
end
************************************************************
  HS Scan of (1) Internal mercury lamp
************************************************************
Integration time is 0.2294 seconds per sample
dh170617Reading 51.44 .94 4.15pr1000
************************************************************
Dead Time -------------------------  3.4E-08 
Number of Cycles Used -------------  4 
Starting Wavelength (Angstroms) ---  2950 
Final Wavelength (Angstoms) -------  2984 
Wavelength Increment (Angstroms) --  .25 
Filter Wheel #1 Position ---------- (1) Ground quartz diffuser (ND=2.32)
Filter Wheel #2 Position ---------- (1) Neutral Density 0.494



************************************************************
HS scan start time = 21:07:27
Dark Count =  14.2 


Time (GMT)  Wavelength (Ang)  Step Number  Raw Counts  Counts/Second

 1268.34        2950.00           2144         303.00      1258.99
 1268.53        2950.25           2147         306.00      1272.07
 1268.57        2950.50           2151         301.00      1250.27
 1268.60        2950.75           2155         310.00      1289.51
 1268.63        2951.00           2158         315.00      1311.31
 1268.66        2951.25           2162         303.00      1258.99
 1268.69        2951.50           2165         318.00      1324.38
 1268.72        2951.75           2169         298.00      1237.19
 1268.75        2952.00           2172         304.00      1263.35
 1268.78        2952.25           2176         311.00      1293.87
 1268.81        2952.50           2179         307.00      1276.43
 1268.84        2952.75           2183         321.00      1337.46
 1268.87        2953.00           2186         304.00      1263.35
 1268.90        2953.25           2190         318.00      1324.38
 1268.93        2953.50           2193         308.00      1280.79
 1268.96        2953.75           2197         324.00      1350.54
 1268.99        2954.00           2200         314.00      1306.95
 1269.02        2954.25           2204         328.00      1367.98
 1269.05        2954.50           2208         338.00      1411.58
 1269.09        2954.75           2211         342.00      1429.01
 1269.12        2955.00           2215         345.00      1442.09
 1269.15        2955.25           2218         327.00      1363.62
 1269.18        2955.50           2222         325.00      1354.90
 1269.21        2955.75           2225         339.00      1415.94
 1269.24        2956.00           2229         345.00      1442.09
 1269.27        2956.25           2232         355.00      1485.69
 1269.30        2956.50           2236         351.00      1468.25
 1269.33        2956.75           2239         335.00      1398.50
 1269.36        2957.00           2243         378.00      1585.96
 1269.39        2957.25           2246         376.00      1577.24
 1269.42        2957.50           2250         358.00      1498.77
 1269.45        2957.75           2254         358.00      1498.77
 1269.48        2958.00           2257         387.00      1625.20
 1269.51        2958.25           2261         373.00      1564.16
 1269.54        2958.50           2264         386.00      1620.84
 1269.57        2958.75           2268         413.00      1738.55
 1269.61        2959.00           2271         407.00      1712.39
 1269.64        2959.25           2275         409.00      1721.11
 1269.67        2959.50           2278         413.00      1738.55
 1269.70        2959.75           2282         392.00      1647.00
 1269.73        2960.00           2285         423.00      1782.15
 1269.76        2960.25           2289         442.00      1864.98
 1269.79        2960.50           2293         472.00      1995.78
 1269.82        2960.75           2296         457.00      1930.38
 1269.85        2961.00           2300         573.00      2436.12
 1269.88        2961.25           2303        1154.00      4969.45
 1269.91        2961.50           2307        4267.00     18550.49
 1269.94        2961.75           2310        7957.00     34665.07
 1269.97        2962.00           2314       13957.00     60905.42
 1270.00        2962.25           2317       19495.00     85166.93
 1270.03        2962.50           2321       27379.00    119775.40
 1270.06        2962.75           2324       32832.00    143760.30
 1270.09        2963.00           2328       39916.00    174977.80
 1270.13        2963.25           2331       45271.00    198620.10
 1270.16        2963.50           2335       52131.00    228963.00
 1270.19        2963.75           2339       59936.00    263562.30
 1270.22        2964.00           2342       65587.00    288664.10
 1270.25        2964.25           2346       73958.00    325927.50
 1270.28        2964.50           2349       79739.00    351717.10
 1270.31        2964.75           2353       87009.00    384214.00
 1270.34        2965.00           2356       91947.00    406328.20
 1270.37        2965.25           2360       98904.00    437541.10
 1270.40        2965.50           2363      103990.00    460402.00
 1270.43        2965.75           2367      110191.00    488323.20
 1270.46        2966.00           2370      115443.00    512013.20
 1270.49        2966.25           2374      121190.00    537980.30
 1270.52        2966.50           2378      124844.00    554514.50
 1270.55        2966.75           2381      125190.00    556081.00
 1270.58        2967.00           2385      125331.00    556719.50
 1270.61        2967.25           2388      126030.00    559885.00
 1270.65        2967.50           2392      125602.00    557946.60
 1270.68        2967.75           2395      125012.00    555275.00
 1270.71        2968.00           2399      120866.00    536515.10
 1270.74        2968.25           2402      115981.00    514442.10
 1270.77        2968.50           2406      109450.00    484983.90
 1270.80        2968.75           2409      104157.00    461153.20
 1270.83        2969.00           2413       97737.00    432300.60
 1270.86        2969.25           2417       91076.00    402425.10
 1270.89        2969.50           2420       85787.00    378746.60
 1270.92        2969.75           2424       77198.00    340375.90
 1270.95        2970.00           2427       71966.00    317051.50
 1270.98        2970.25           2431       64374.00    283272.30
 1271.01        2970.50           2434       59122.00    259950.00
 1271.04        2970.75           2438       52270.00    229578.50
 1271.07        2971.00           2441       46958.00    206076.20
 1271.10        2971.25           2445       39913.00    174964.50
 1271.13        2971.50           2449       32167.00    140833.20
 1271.16        2971.75           2452       26641.00    116532.30
 1271.20        2972.00           2456       19491.00     85149.39
 1271.23        2972.25           2459       14513.00     63339.40
 1271.26        2972.50           2463        8117.00     35364.20
 1271.29        2972.75           2466        4365.00     18978.24
 1271.32        2973.00           2470        1377.00      5941.92
 1271.35        2973.25           2473         656.00      2798.00
 1271.38        2973.50           2477         556.00      2362.00
 1271.41        2973.75           2481         480.00      2030.65
 1271.44        2974.00           2484         495.00      2096.05
 1271.47        2974.25           2488         456.00      1926.02
 1271.50        2974.50           2491         462.00      1952.18
 1271.54        2974.75           2495         412.00      1734.19
 1271.57        2975.00           2498         424.00      1786.51
 1271.60        2975.25           2502         405.00      1703.67
 1271.63        2975.50           2505         438.00      1847.54
 1271.66        2975.75           2509         400.00      1681.87
 1271.69        2976.00           2512         428.00      1803.95
 1271.72        2976.25           2516         394.00      1655.72
 1271.75        2976.50           2520         378.00      1585.96
 1271.78        2976.75           2523         358.00      1498.77
 1271.81        2977.00           2527         350.00      1463.89
 1271.84        2977.25           2530         346.00      1446.45
 1271.88        2977.50           2534         356.00      1490.05
 1271.91        2977.75           2537         368.00      1542.37
 1271.94        2978.00           2541         335.00      1398.50
 1271.97        2978.25           2544         355.00      1485.69
 1272.00        2978.50           2548         368.00      1542.37
 1272.03        2978.75           2552         344.00      1437.73
 1272.06        2979.00           2555         331.00      1381.06
 1272.09        2979.25           2559         344.00      1437.73
 1272.12        2979.50           2562         331.00      1381.06
 1272.15        2979.75           2566         334.00      1394.14
 1272.18        2980.00           2569         329.00      1372.34
 1272.21        2980.25           2573         325.00      1354.90
 1272.24        2980.50           2577         321.00      1337.46
 1272.27        2980.75           2580         321.00      1337.46
 1272.30        2981.00           2584         309.00      1285.15
 1272.33        2981.25           2587         332.00      1385.42
 1272.36        2981.50           2591         310.00      1289.51
 1272.40        2981.75           2594         307.00      1276.43
 1272.43        2982.00           2598         289.00      1197.96
 1272.46        2982.25           2601         268.00      1106.41
 1272.49        2982.50           2605         319.00      1328.74
 1272.52        2982.75           2609         310.00      1289.51
 1272.55        2983.00           2612         297.00      1232.83
 1272.58        2983.25           2616         290.00      1202.32
 1272.61        2983.50           2619         294.00      1219.75
 1272.64        2983.75           2623         300.00      1245.91
 1272.67        2984.00           2626         298.00      1237.19
HS scan finished at 21:12:54
end
