************************************************************
  HS Scan of (1) Internal mercury lamp
************************************************************
Integration time is 0.2294 seconds per sample
dh130618Reading 51.44 .94 3.35pr1000
************************************************************
Dead Time -------------------------  3.4E-08 
Number of Cycles Used -------------  4 
Starting Wavelength (Angstroms) ---  2950 
Final Wavelength (Angstoms) -------  2984 
Wavelength Increment (Angstroms) --  .25 
Filter Wheel #1 Position ---------- (1) Ground quartz diffuser (ND=2.32)
Filter Wheel #2 Position ---------- (1) Neutral Density 0.494



************************************************************
HS scan start time = 02:36:57
Dark Count =  1.4 


Time (GMT)  Wavelength (Ang)  Step Number  Raw Counts  Counts/Second

  157.86        2950.00           2144          56.00       238.01
  158.05        2950.25           2147          67.00       285.97
  158.08        2950.50           2151          66.00       281.61
  158.11        2950.75           2155          65.00       277.25
  158.14        2951.00           2158          69.00       294.68
  158.17        2951.25           2162          69.00       294.68
  158.20        2951.50           2165          59.00       251.09
  158.23        2951.75           2169          70.00       299.04
  158.26        2952.00           2172          56.00       238.01
  158.29        2952.25           2176          60.00       255.45
  158.32        2952.50           2179          64.00       272.89
  158.35        2952.75           2183          69.00       294.68
  158.39        2953.00           2186          63.00       268.53
  158.42        2953.25           2190          68.00       290.33
  158.45        2953.50           2193          64.00       272.89
  158.48        2953.75           2197          61.00       259.81
  158.51        2954.00           2200          67.00       285.97
  158.54        2954.25           2204          67.00       285.97
  158.57        2954.50           2208          64.00       272.89
  158.60        2954.75           2211          60.00       255.45
  158.63        2955.00           2215          68.00       290.33
  158.66        2955.25           2218          77.00       329.56
  158.69        2955.50           2222          69.00       294.68
  158.72        2955.75           2225          70.00       299.04
  158.75        2956.00           2229          70.00       299.04
  158.78        2956.25           2232          70.00       299.04
  158.81        2956.50           2236          72.00       307.76
  158.84        2956.75           2239          71.00       303.40
  158.87        2957.00           2243          72.00       307.76
  158.91        2957.25           2246          74.00       316.48
  158.94        2957.50           2250          83.00       355.71
  158.97        2957.75           2254          69.00       294.68
  159.00        2958.00           2257          72.00       307.76
  159.03        2958.25           2261          77.00       329.56
  159.06        2958.50           2264          83.00       355.71
  159.09        2958.75           2268          74.00       316.48
  159.12        2959.00           2271          87.00       373.15
  159.15        2959.25           2275          84.00       360.07
  159.18        2959.50           2278          68.00       290.33
  159.21        2959.75           2282          92.00       394.95
  159.24        2960.00           2285          87.00       373.15
  159.27        2960.25           2289          80.00       342.64
  159.30        2960.50           2293          96.00       412.39
  159.33        2960.75           2296          88.00       377.51
  159.36        2961.00           2300         115.00       495.21
  159.39        2961.25           2303         260.00      1127.33
  159.43        2961.50           2307         843.00      3669.16
  159.46        2961.75           2310        1562.00      6804.54
  159.49        2962.00           2314        2653.00     11563.40
  159.52        2962.25           2317        3621.00     15787.03
  159.55        2962.50           2321        4969.00     21670.71
  159.58        2962.75           2324        5720.00     24949.67
  159.61        2963.00           2328        6958.00     30356.51
  159.64        2963.25           2331        7917.00     34546.22
  159.67        2963.50           2335        9135.00     39869.18
  159.70        2963.75           2339       10682.00     46632.73
  159.73        2964.00           2342       11704.00     51102.67
  159.76        2964.25           2346       13091.00     57171.18
  159.79        2964.50           2349       13965.00     60996.47
  159.82        2964.75           2353       14964.00     65370.07
  159.85        2965.00           2356       16033.00     70051.56
  159.88        2965.25           2360       17434.00     76189.26
  159.91        2965.50           2363       18331.00     80120.31
  159.95        2965.75           2367       19404.00     84824.06
  159.98        2966.00           2370       20337.00     88915.30
  160.01        2966.25           2374       21271.00     93012.07
  160.04        2966.50           2378       21959.00     96030.56
  160.07        2966.75           2381       22173.00     96969.57
  160.10        2967.00           2385       22126.00     96763.34
  160.13        2967.25           2388       22022.00     96306.99
  160.16        2967.50           2392       22210.00     97131.93
  160.19        2967.75           2395       22036.00     96368.42
  160.22        2968.00           2399       21487.00     93959.66
  160.25        2968.25           2402       20798.00     90937.22
  160.28        2968.50           2406       19925.00     87108.52
  160.31        2968.75           2409       19024.00     83158.06
  160.34        2969.00           2413       17454.00     76276.90
  160.37        2969.25           2417       16108.00     70380.07
  160.40        2969.50           2420       15088.00     65913.03
  160.43        2969.75           2424       13786.00     60212.95
  160.47        2970.00           2427       12876.00     56230.33
  160.50        2970.25           2431       11517.00     50284.67
  160.53        2970.50           2434       10405.00     45421.45
  160.56        2970.75           2438        8977.00     39178.58
  160.59        2971.00           2441        7829.00     34161.72
  160.62        2971.25           2445        6590.00     28749.10
  160.65        2971.50           2449        5375.00     23443.26
  160.68        2971.75           2452        4456.00     19431.32
  160.71        2972.00           2456        3161.00     13779.78
  160.74        2972.25           2459        2218.00      9665.77
  160.77        2972.50           2463        1086.00      4728.75
  160.80        2972.75           2466         485.00      2108.26
  160.83        2973.00           2470         153.00       660.87
  160.86        2973.25           2473         110.00       473.42
  160.89        2973.50           2477          99.00       425.46
  160.92        2973.75           2481          97.00       416.75
  160.95        2974.00           2484         117.00       503.93
  160.99        2974.25           2488          90.00       386.23
  161.02        2974.50           2491          78.00       333.92
  161.05        2974.75           2495          80.00       342.64
  161.08        2975.00           2498          83.00       355.71
  161.11        2975.25           2502          82.00       351.36
  161.14        2975.50           2505          80.00       342.64
  161.17        2975.75           2509          74.00       316.48
  161.20        2976.00           2512          82.00       351.36
  161.23        2976.25           2516          68.00       290.33
  161.26        2976.50           2520          74.00       316.48
  161.29        2976.75           2523          77.00       329.56
  161.32        2977.00           2527          68.00       290.33
  161.35        2977.25           2530          68.00       290.33
  161.38        2977.50           2534          83.00       355.71
  161.41        2977.75           2537          74.00       316.48
  161.44        2978.00           2541          72.00       307.76
  161.47        2978.25           2544          77.00       329.56
  161.50        2978.50           2548          65.00       277.25
  161.54        2978.75           2552          72.00       307.76
  161.57        2979.00           2555          73.00       312.12
  161.60        2979.25           2559          68.00       290.33
  161.63        2979.50           2562          65.00       277.25
  161.66        2979.75           2566          70.00       299.04
  161.69        2980.00           2569          66.00       281.61
  161.72        2980.25           2573          67.00       285.97
  161.75        2980.50           2577          64.00       272.89
  161.78        2980.75           2580          64.00       272.89
  161.81        2981.00           2584          65.00       277.25
  161.84        2981.25           2587          66.00       281.61
  161.87        2981.50           2591          72.00       307.76
  161.90        2981.75           2594          64.00       272.89
  161.93        2982.00           2598          72.00       307.76
  161.96        2982.25           2601          72.00       307.76
  161.99        2982.50           2605          67.00       285.97
  162.03        2982.75           2609          69.00       294.68
  162.06        2983.00           2612          58.00       246.73
  162.09        2983.25           2616          67.00       285.97
  162.12        2983.50           2619          63.00       268.53
  162.15        2983.75           2623          64.00       272.89
  162.18        2984.00           2626          58.00       246.73
HS scan finished at 02:42:24
end
