************************************************************
  HS Scan of (1) Internal mercury lamp
************************************************************
Integration time is 0.2294 seconds per sample
dh130617Reading 51.44 .94 3.41pr1000
************************************************************
Dead Time -------------------------  3.4E-08 
Number of Cycles Used -------------  4 
Starting Wavelength (Angstroms) ---  2950 
Final Wavelength (Angstoms) -------  2984 
Wavelength Increment (Angstroms) --  .25 
Filter Wheel #1 Position ---------- (1) Ground quartz diffuser (ND=2.32)
Filter Wheel #2 Position ---------- (1) Neutral Density 0.494



************************************************************
HS scan start time = 02:35:22
Dark Count =  2.8 


Time (GMT)  Wavelength (Ang)  Step Number  Raw Counts  Counts/Second

  156.26        2950.00           2144         288.00      1243.30
  156.46        2950.25           2147         293.00      1265.09
  156.49        2950.50           2151         306.00      1321.77
  156.52        2950.75           2155         298.00      1286.89
  156.55        2951.00           2158         310.00      1339.21
  156.58        2951.25           2162         313.00      1352.29
  156.61        2951.50           2165         310.00      1339.21
  156.64        2951.75           2169         316.00      1365.36
  156.67        2952.00           2172         306.00      1321.77
  156.70        2952.25           2176         333.00      1439.48
  156.73        2952.50           2179         303.00      1308.69
  156.76        2952.75           2183         305.00      1317.41
  156.79        2953.00           2186         304.00      1313.05
  156.82        2953.25           2190         326.00      1408.96
  156.85        2953.50           2193         303.00      1308.69
  156.88        2953.75           2197         315.00      1361.00
  156.91        2954.00           2200         336.00      1452.56
  156.94        2954.25           2204         332.00      1435.12
  156.98        2954.50           2208         317.00      1369.72
  157.01        2954.75           2211         341.00      1474.35
  157.04        2955.00           2215         385.00      1666.18
  157.07        2955.25           2218         333.00      1439.48
  157.10        2955.50           2222         361.00      1561.55
  157.13        2955.75           2225         343.00      1483.07
  157.16        2956.00           2229         345.00      1491.79
  157.19        2956.25           2232         362.00      1565.91
  157.22        2956.50           2236         339.00      1465.64
  157.25        2956.75           2239         350.00      1513.59
  157.28        2957.00           2243         387.00      1674.90
  157.31        2957.25           2246         365.00      1578.99
  157.34        2957.50           2250         367.00      1587.71
  157.37        2957.75           2254         379.00      1640.02
  157.40        2958.00           2257         379.00      1640.02
  157.43        2958.25           2261         406.00      1757.73
  157.46        2958.50           2264         422.00      1827.49
  157.50        2958.75           2268         404.00      1749.01
  157.53        2959.00           2271         406.00      1757.73
  157.56        2959.25           2275         429.00      1858.01
  157.59        2959.50           2278         434.00      1879.81
  157.62        2959.75           2282         424.00      1836.21
  157.65        2960.00           2285         407.00      1762.09
  157.68        2960.25           2289         445.00      1927.76
  157.71        2960.50           2293         452.00      1958.28
  157.74        2960.75           2296         490.00      2123.95
  157.77        2961.00           2300         650.00      2821.54
  157.80        2961.25           2303        1586.00      6903.10
  157.83        2961.50           2307        5398.00     23537.58
  157.86        2961.75           2310        9611.00     41943.82
  157.89        2962.00           2314       15507.00     67741.72
  157.92        2962.25           2317       20479.00     89531.94
  157.95        2962.50           2321       27228.00    119161.80
  157.98        2962.75           2324       32638.00    142956.50
  158.02        2963.00           2328       40338.00    176889.80
  158.05        2963.25           2331       45431.00    199377.50
  158.08        2963.50           2335       51627.00    226782.00
  158.11        2963.75           2339       58786.00    258509.80
  158.14        2964.00           2342       64200.00    282549.70
  158.17        2964.25           2346       71839.00    316536.60
  158.20        2964.50           2349       77142.00    340176.90
  158.23        2964.75           2353       83415.00    368190.80
  158.26        2965.00           2356       87809.00    387845.50
  158.29        2965.25           2360       94976.00    419960.90
  158.32        2965.50           2363       99952.00    442300.00
  158.35        2965.75           2367      106636.00    472360.90
  158.38        2966.00           2370      111337.00    493540.60
  158.41        2966.25           2374      116789.00    518142.30
  158.44        2966.50           2378      119714.00    531358.30
  158.47        2966.75           2381      120013.00    532710.00
  158.50        2967.00           2385      120081.00    533017.30
  158.54        2967.25           2388      120352.00    534242.50
  158.57        2967.50           2392      120094.00    533076.10
  158.60        2967.75           2395      119507.00    530422.60
  158.63        2968.00           2399      115472.00    512195.60
  158.66        2968.25           2402      110871.00    491439.70
  158.69        2968.50           2406      105053.00    465235.80
  158.72        2968.75           2409      100330.00    443998.40
  158.75        2969.00           2413       94000.00    415583.30
  158.78        2969.25           2417       86649.00    382654.20
  158.81        2969.50           2420       81041.00    357582.70
  158.84        2969.75           2424       74574.00    328724.20
  158.87        2970.00           2427       69177.00    304684.10
  158.90        2970.25           2431       61881.00    272247.70
  158.93        2970.50           2434       56951.00    250370.80
  158.96        2970.75           2438       49110.00    215643.30
  158.99        2971.00           2441       43406.00    190432.20
  159.02        2971.25           2445       35863.00    157159.20
  159.06        2971.50           2449       28202.00    123442.90
  159.09        2971.75           2452       22917.00    100228.50
  159.12        2972.00           2456       16242.00     70960.88
  159.15        2972.25           2459       11724.00     51184.03
  159.18        2972.50           2463        6238.00     27205.63
  159.21        2972.75           2466        3017.00     13145.37
  159.24        2973.00           2470         938.00      4077.29
  159.27        2973.25           2473         556.00      2411.71
  159.30        2973.50           2477         506.00      2193.71
  159.33        2973.75           2481         478.00      2071.64
  159.36        2974.00           2484         494.00      2141.39
  159.39        2974.25           2488         455.00      1971.36
  159.42        2974.50           2491         463.00      2006.24
  159.45        2974.75           2495         454.00      1967.00
  159.48        2975.00           2498         445.00      1927.76
  159.51        2975.25           2502         438.00      1897.25
  159.54        2975.50           2505         407.00      1762.09
  159.58        2975.75           2509         413.00      1788.25
  159.61        2976.00           2512         398.00      1722.86
  159.64        2976.25           2516         411.00      1779.53
  159.67        2976.50           2520         411.00      1779.53
  159.70        2976.75           2523         403.00      1744.65
  159.73        2977.00           2527         371.00      1605.14
  159.76        2977.25           2530         406.00      1757.73
  159.79        2977.50           2534         365.00      1578.99
  159.82        2977.75           2537         373.00      1613.86
  159.85        2978.00           2541         398.00      1722.86
  159.88        2978.25           2544         358.00      1548.47
  159.91        2978.50           2548         399.00      1727.22
  159.94        2978.75           2552         364.00      1574.63
  159.97        2979.00           2555         349.00      1509.23
  160.00        2979.25           2559         338.00      1461.28
  160.03        2979.50           2562         349.00      1509.23
  160.06        2979.75           2566         372.00      1609.50
  160.09        2980.00           2569         336.00      1452.56
  160.13        2980.25           2573         348.00      1504.87
  160.16        2980.50           2577         340.00      1470.00
  160.19        2980.75           2580         341.00      1474.35
  160.22        2981.00           2584         339.00      1465.64
  160.25        2981.25           2587         336.00      1452.56
  160.28        2981.50           2591         339.00      1465.64
  160.31        2981.75           2594         307.00      1326.13
  160.34        2982.00           2598         319.00      1378.44
  160.37        2982.25           2601         324.00      1400.24
  160.40        2982.50           2605         322.00      1391.52
  160.43        2982.75           2609         320.00      1382.80
  160.46        2983.00           2612         312.00      1347.93
  160.49        2983.25           2616         314.00      1356.65
  160.52        2983.50           2619         313.00      1352.29
  160.55        2983.75           2623         320.00      1382.80
  160.58        2984.00           2626         323.00      1395.88
HS scan finished at 02:40:48
end
************************************************************
  HS Scan of (1) Internal mercury lamp
************************************************************
Integration time is 0.2294 seconds per sample
dh130617Reading 51.44 .94 3.84pr1000
************************************************************
Dead Time -------------------------  3.4E-08 
Number of Cycles Used -------------  4 
Starting Wavelength (Angstroms) ---  2950 
Final Wavelength (Angstoms) -------  2984 
Wavelength Increment (Angstroms) --  .25 
Filter Wheel #1 Position ---------- (1) Ground quartz diffuser (ND=2.32)
Filter Wheel #2 Position ---------- (1) Neutral Density 0.494



************************************************************
HS scan start time = 21:07:25
Dark Count =  7 


Time (GMT)  Wavelength (Ang)  Step Number  Raw Counts  Counts/Second

 1268.31        2950.00           2144         314.00      1338.33
 1268.50        2950.25           2147         323.00      1377.57
 1268.53        2950.50           2151         291.00      1238.06
 1268.56        2950.75           2155         300.00      1277.30
 1268.59        2951.00           2158         302.00      1286.02
 1268.62        2951.25           2162         307.00      1307.82
 1268.65        2951.50           2165         312.00      1329.62
 1268.69        2951.75           2169         338.00      1442.97
 1268.72        2952.00           2172         306.00      1303.46
 1268.75        2952.25           2176         315.00      1342.69
 1268.78        2952.50           2179         320.00      1364.49
 1268.81        2952.75           2183         333.00      1421.17
 1268.84        2953.00           2186         350.00      1495.28
 1268.87        2953.25           2190         329.00      1403.73
 1268.90        2953.50           2193         341.00      1456.04
 1268.93        2953.75           2197         332.00      1416.81
 1268.96        2954.00           2200         314.00      1338.33
 1268.99        2954.25           2204         327.00      1395.01
 1269.02        2954.50           2208         320.00      1364.49
 1269.05        2954.75           2211         345.00      1473.48
 1269.08        2955.00           2215         350.00      1495.28
 1269.11        2955.25           2218         353.00      1508.36
 1269.14        2955.50           2222         359.00      1534.52
 1269.17        2955.75           2225         366.00      1565.04
 1269.21        2956.00           2229         348.00      1486.56
 1269.24        2956.25           2232         363.00      1551.96
 1269.27        2956.50           2236         406.00      1739.42
 1269.30        2956.75           2239         363.00      1551.96
 1269.33        2957.00           2243         367.00      1569.40
 1269.36        2957.25           2246         406.00      1739.42
 1269.39        2957.50           2250         387.00      1656.59
 1269.42        2957.75           2254         414.00      1774.30
 1269.45        2958.00           2257         388.00      1660.95
 1269.48        2958.25           2261         392.00      1678.39
 1269.51        2958.50           2264         399.00      1708.90
 1269.54        2958.75           2268         409.00      1752.50
 1269.57        2959.00           2271         414.00      1774.30
 1269.60        2959.25           2275         418.00      1791.74
 1269.63        2959.50           2278         414.00      1774.30
 1269.66        2959.75           2282         437.00      1874.57
 1269.69        2960.00           2285         450.00      1931.25
 1269.72        2960.25           2289         434.00      1861.50
 1269.76        2960.50           2293         444.00      1905.09
 1269.79        2960.75           2296         479.00      2057.69
 1269.82        2961.00           2300         550.00      2367.23
 1269.85        2961.25           2303         888.00      3840.96
 1269.88        2961.50           2307        3739.00     16277.53
 1269.91        2961.75           2310        8042.00     35067.95
 1269.94        2962.00           2314       14592.00     63716.79
 1269.97        2962.25           2317       19427.00     84900.35
 1270.00        2962.50           2321       26138.00    114354.00
 1270.03        2962.75           2324       30962.00    135562.40
 1270.06        2963.00           2328       38604.00    169222.80
 1270.09        2963.25           2331       43906.00    192621.80
 1270.12        2963.50           2335       51772.00    227405.40
 1270.15        2963.75           2339       58742.00    258296.00
 1270.18        2964.00           2342       63918.00    281277.90
 1270.21        2964.25           2346       71118.00    313306.70
 1270.24        2964.50           2349       76701.00    338190.80
 1270.28        2964.75           2353       83737.00    369611.40
 1270.31        2965.00           2356       89278.00    394403.50
 1270.34        2965.25           2360       95478.00    422194.20
 1270.37        2965.50           2363      100392.00    444258.10
 1270.40        2965.75           2367      107466.00    476079.20
 1270.43        2966.00           2370      112432.00    498459.40
 1270.46        2966.25           2374      118580.00    526214.10
 1270.49        2966.50           2378      123226.00    547223.30
 1270.52        2966.75           2381      124210.00    551676.90
 1270.55        2967.00           2385      124714.00    553958.50
 1270.58        2967.25           2388      124709.00    553935.80
 1270.61        2967.50           2392      124589.00    553392.60
 1270.64        2967.75           2395      124433.00    552686.30
 1270.67        2968.00           2399      122135.00    542287.10
 1270.70        2968.25           2402      117970.00    523457.90
 1270.73        2968.50           2406      110822.00    491199.90
 1270.76        2968.75           2409      106150.00    470154.10
 1270.80        2969.00           2413       99760.00    441418.60
 1270.83        2969.25           2417       93194.00    411950.30
 1270.86        2969.50           2420       88212.00    389630.60
 1270.89        2969.75           2424       80203.00    353821.20
 1270.92        2970.00           2427       74430.00    328063.60
 1270.95        2970.25           2431       66086.00    290914.70
 1270.98        2970.50           2434       60595.00    266519.30
 1271.01        2970.75           2438       52866.00    232249.60
 1271.04        2971.00           2441       47287.00    207562.50
 1271.07        2971.25           2445       39977.00    175278.60
 1271.10        2971.50           2449       32712.00    143263.70
 1271.13        2971.75           2452       27112.00    118633.60
 1271.16        2972.00           2456       19604.00     85676.42
 1271.19        2972.25           2459       14191.00     61961.26
 1271.22        2972.50           2463        7805.00     34032.38
 1271.25        2972.75           2466        4148.00     18062.53
 1271.28        2973.00           2470        1388.00      6021.29
 1271.32        2973.25           2473         720.00      3108.44
 1271.35        2973.50           2477         539.00      2319.28
 1271.38        2973.75           2481         512.00      2201.56
 1271.41        2974.00           2484         483.00      2075.12
 1271.44        2974.25           2488         473.00      2031.53
 1271.47        2974.50           2491         479.00      2057.69
 1271.50        2974.75           2495         450.00      1931.25
 1271.53        2975.00           2498         449.00      1926.89
 1271.56        2975.25           2502         431.00      1848.42
 1271.59        2975.50           2505         420.00      1800.46
 1271.62        2975.75           2509         385.00      1647.87
 1271.65        2976.00           2512         401.00      1717.62
 1271.68        2976.25           2516         417.00      1787.38
 1271.71        2976.50           2520         412.00      1765.58
 1271.74        2976.75           2523         393.00      1682.75
 1271.77        2977.00           2527         394.00      1687.11
 1271.80        2977.25           2530         392.00      1678.39
 1271.84        2977.50           2534         382.00      1634.79
 1271.87        2977.75           2537         363.00      1551.96
 1271.90        2978.00           2541         376.00      1608.63
 1271.93        2978.25           2544         393.00      1682.75
 1271.96        2978.50           2548         373.00      1595.55
 1271.99        2978.75           2552         382.00      1634.79
 1272.02        2979.00           2555         355.00      1517.08
 1272.05        2979.25           2559         378.00      1617.35
 1272.08        2979.50           2562         385.00      1647.87
 1272.11        2979.75           2566         356.00      1521.44
 1272.14        2980.00           2569         345.00      1473.48
 1272.17        2980.25           2573         345.00      1473.48
 1272.20        2980.50           2577         333.00      1421.17
 1272.23        2980.75           2580         321.00      1368.85
 1272.26        2981.00           2584         324.00      1381.93
 1272.29        2981.25           2587         332.00      1416.81
 1272.32        2981.50           2591         332.00      1416.81
 1272.36        2981.75           2594         319.00      1360.13
 1272.39        2982.00           2598         327.00      1395.01
 1272.42        2982.25           2601         317.00      1351.41
 1272.45        2982.50           2605         326.00      1390.65
 1272.48        2982.75           2609         296.00      1259.86
 1272.51        2983.00           2612         318.00      1355.77
 1272.54        2983.25           2616         338.00      1442.97
 1272.57        2983.50           2619         346.00      1477.84
 1272.60        2983.75           2623         314.00      1338.33
 1272.63        2984.00           2626         309.00      1316.54
HS scan finished at 21:12:51
end
