************************************************************
  HS Scan of (1) Internal mercury lamp
************************************************************
Integration time is 0.2294 seconds per sample
dh180619El Arenosillo 37.1 6.73 3.39pr1000
************************************************************
Dead Time -------------------------  3.2E-08 
Number of Cycles Used -------------  4 
Starting Wavelength (Angstroms) ---  2950 
Final Wavelength (Angstoms) -------  2984 
Wavelength Increment (Angstroms) --  .25 
Filter Wheel #1 Position ---------- (1) Ground quartz diffuser (ND=2.32)
Filter Wheel #2 Position ---------- (1) Neutral Density 0.494



************************************************************
HS scan start time = 01:52:15
Dark Count =  1.7 


Time (GMT)  Wavelength (Ang)  Step Number  Raw Counts  Counts/Second

  113.14        2950.00           2144        1332.00      5800.12
  113.33        2950.25           2147        1359.00      5917.86
  113.36        2950.50           2151        1380.00      6009.44
  113.39        2950.75           2155        1410.00      6140.26
  113.42        2951.00           2158        1356.00      5904.78
  113.45        2951.25           2162        1393.00      6066.13
  113.48        2951.50           2165        1363.00      5935.30
  113.51        2951.75           2169        1388.00      6044.33
  113.54        2952.00           2172        1390.00      6053.05
  113.57        2952.25           2176        1411.00      6144.63
  113.60        2952.50           2179        1407.00      6127.18
  113.63        2952.75           2183        1383.00      6022.52
  113.67        2953.00           2186        1416.00      6166.43
  113.70        2953.25           2190        1435.00      6249.29
  113.73        2953.50           2193        1422.00      6192.60
  113.76        2953.75           2197        1434.00      6244.93
  113.79        2954.00           2200        1449.00      6310.34
  113.82        2954.25           2204        1433.00      6240.57
  113.85        2954.50           2208        1450.00      6314.70
  113.88        2954.75           2211        1479.00      6441.17
  113.91        2955.00           2215        1480.00      6445.53
  113.94        2955.25           2218        1471.00      6406.28
  113.97        2955.50           2222        1491.00      6493.50
  114.00        2955.75           2225        1448.00      6305.98
  114.03        2956.00           2229        1545.00      6729.00
  114.06        2956.25           2232        1518.00      6611.25
  114.09        2956.50           2236        1522.00      6628.70
  114.12        2956.75           2239        1548.00      6742.08
  114.15        2957.00           2243        1533.00      6676.67
  114.19        2957.25           2246        1571.00      6842.39
  114.22        2957.50           2250        1589.00      6920.89
  114.25        2957.75           2254        1608.00      7003.75
  114.28        2958.00           2257        1622.00      7064.81
  114.31        2958.25           2261        1654.00      7204.36
  114.34        2958.50           2264        1687.00      7348.28
  114.37        2958.75           2268        1677.00      7304.67
  114.40        2959.00           2271        1697.00      7391.90
  114.43        2959.25           2275        1699.00      7400.62
  114.46        2959.50           2278        1744.00      7596.88
  114.49        2959.75           2282        1786.00      7780.05
  114.52        2960.00           2285        1796.00      7823.67
  114.55        2960.25           2289        1845.00      8037.38
  114.58        2960.50           2293        1857.00      8089.71
  114.61        2960.75           2296        1933.00      8421.19
  114.64        2961.00           2300        2192.00      9550.87
  114.67        2961.25           2303        3867.00     16858.70
  114.71        2961.50           2307       15164.00     66235.71
  114.74        2961.75           2310       29300.00    128242.30
  114.77        2962.00           2314       50052.00    219718.60
  114.80        2962.25           2317       66731.00    293632.40
  114.83        2962.50           2321       90478.00    399478.20
  114.86        2962.75           2324      110536.00    489447.00
  114.89        2963.00           2328      137204.00    609879.10
  114.92        2963.25           2331      156687.00    698460.10
  114.95        2963.50           2335      183115.00    819435.00
  114.98        2963.75           2339      208404.00    936091.70
  115.01        2964.00           2342      226785.00   1021440.00
  115.04        2964.25           2346      252359.00   1140983.00
  115.07        2964.50           2349      273325.00   1239686.00
  115.10        2964.75           2353      299815.00   1365312.00
  115.13        2965.00           2356      319764.00   1460604.00
  115.16        2965.25           2360      342880.00   1571775.00
  115.19        2965.50           2363      359517.00   1652291.00
  115.23        2965.75           2367      381741.00   1760517.00
  115.26        2966.00           2370      397859.00   1839493.00
  115.29        2966.25           2374      416721.00   1932441.00
  115.32        2966.50           2378      428094.00   1988762.00
  115.35        2966.75           2381      430717.00   2001781.00
  115.38        2967.00           2385      431726.00   2006792.00
  115.41        2967.25           2388      432237.00   2009331.00
  115.44        2967.50           2392      430414.00   2000276.00
  115.47        2967.75           2395      429064.00   1993575.00
  115.50        2968.00           2399      416897.00   1933311.00
  115.53        2968.25           2402      401803.00   1858881.00
  115.56        2968.50           2406      379675.00   1750423.00
  115.60        2968.75           2409      363358.00   1670941.00
  115.63        2969.00           2413      341477.00   1565004.00
  115.66        2969.25           2417      319088.00   1457365.00
  115.69        2969.50           2420      301635.00   1373981.00
  115.72        2969.75           2424      276105.00   1252822.00
  115.75        2970.00           2427      255286.00   1154725.00
  115.78        2970.25           2431      227412.00   1024360.00
  115.81        2970.50           2434      208181.00    935059.10
  115.84        2970.75           2438      183101.00    819370.60
  115.87        2971.00           2441      164768.00    735350.60
  115.90        2971.25           2445      140666.00    625582.30
  115.94        2971.50           2449      115825.00    513257.70
  115.97        2971.75           2452       96689.00    427281.50
  116.00        2972.00           2456       71597.00    315262.60
  116.03        2972.25           2459       52203.00    229231.20
  116.06        2972.50           2463       27418.00    119972.80
  116.09        2972.75           2466       12895.00     56305.81
  116.12        2973.00           2470        4597.00     20044.67
  116.15        2973.25           2473        2699.00     11762.49
  116.18        2973.50           2477        2077.00      9049.26
  116.21        2973.75           2481        1957.00      8525.87
  116.24        2974.00           2484        1912.00      8329.60
  116.27        2974.25           2488        1892.00      8242.37
  116.30        2974.50           2491        1846.00      8041.74
  116.33        2974.75           2495        1806.00      7867.28
  116.36        2975.00           2498        1823.00      7941.43
  116.39        2975.25           2502        1786.00      7780.05
  116.42        2975.50           2505        1736.00      7561.99
  116.46        2975.75           2509        1698.00      7396.26
  116.49        2976.00           2512        1701.00      7409.34
  116.52        2976.25           2516        1630.00      7099.70
  116.55        2976.50           2520        1663.00      7243.62
  116.58        2976.75           2523        1636.00      7125.86
  116.61        2977.00           2527        1572.00      6846.75
  116.64        2977.25           2530        1598.00      6960.14
  116.67        2977.50           2534        1571.00      6842.39
  116.70        2977.75           2537        1572.00      6846.75
  116.73        2978.00           2541        1553.00      6763.89
  116.76        2978.25           2544        1566.00      6820.58
  116.79        2978.50           2548        1526.00      6646.14
  116.82        2978.75           2552        1520.00      6619.97
  116.85        2979.00           2555        1522.00      6628.70
  116.88        2979.25           2559        1456.00      6340.87
  116.91        2979.50           2562        1488.00      6480.42
  116.94        2979.75           2566        1464.00      6375.76
  116.98        2980.00           2569        1402.00      6105.38
  117.01        2980.25           2573        1445.00      6292.90
  117.04        2980.50           2577        1384.00      6026.88
  117.07        2980.75           2580        1436.00      6253.65
  117.10        2981.00           2584        1389.00      6048.69
  117.13        2981.25           2587        1420.00      6183.87
  117.16        2981.50           2591        1413.00      6153.35
  117.19        2981.75           2594        1387.00      6039.96
  117.22        2982.00           2598        1394.00      6070.49
  117.26        2982.25           2601        1363.00      5935.30
  117.29        2982.50           2605        1335.00      5813.20
  117.32        2982.75           2609        1337.00      5821.92
  117.35        2983.00           2612        1340.00      5835.00
  117.38        2983.25           2616        1350.00      5878.61
  117.41        2983.50           2619        1360.00      5922.22
  117.44        2983.75           2623        1320.00      5747.79
  117.47        2984.00           2626        1309.00      5699.82
HS scan finished at 01:57:41
end
