************************************************************
  HS Scan of (1) Internal mercury lamp
************************************************************
Integration time is 0.2294 seconds per sample
dh130619Reading 51.44 .94 3.31pr1000
************************************************************
Dead Time -------------------------  3.4E-08 
Number of Cycles Used -------------  4 
Starting Wavelength (Angstroms) ---  2950 
Final Wavelength (Angstoms) -------  2984 
Wavelength Increment (Angstroms) --  .25 
Filter Wheel #1 Position ---------- (1) Ground quartz diffuser (ND=2.32)
Filter Wheel #2 Position ---------- (1) Neutral Density 0.494



************************************************************
HS scan start time = 02:36:50
Dark Count =  1.9 


Time (GMT)  Wavelength (Ang)  Step Number  Raw Counts  Counts/Second

  157.72        2950.00           2144        1212.00      5276.01
  157.92        2950.25           2147        1212.00      5276.01
  157.95        2950.50           2151        1215.00      5289.09
  157.98        2950.75           2155        1243.00      5411.20
  158.01        2951.00           2158        1220.00      5310.90
  158.04        2951.25           2162        1259.00      5480.97
  158.07        2951.50           2165        1240.00      5398.11
  158.10        2951.75           2169        1217.00      5297.82
  158.13        2952.00           2172        1250.00      5441.72
  158.16        2952.25           2176        1267.00      5515.86
  158.19        2952.50           2179        1267.00      5515.86
  158.22        2952.75           2183        1238.00      5389.39
  158.25        2953.00           2186        1249.00      5437.36
  158.28        2953.25           2190        1283.00      5585.63
  158.31        2953.50           2193        1264.00      5502.77
  158.35        2953.75           2197        1273.00      5542.02
  158.38        2954.00           2200        1308.00      5694.65
  158.41        2954.25           2204        1329.00      5786.23
  158.44        2954.50           2208        1289.00      5611.79
  158.47        2954.75           2211        1318.00      5738.26
  158.50        2955.00           2215        1338.00      5825.48
  158.53        2955.25           2218        1344.00      5851.64
  158.56        2955.50           2222        1326.00      5773.15
  158.59        2955.75           2225        1382.00      6017.36
  158.62        2956.00           2229        1361.00      5925.78
  158.65        2956.25           2232        1408.00      6130.75
  158.68        2956.50           2236        1391.00      6056.61
  158.71        2956.75           2239        1417.00      6170.00
  158.74        2957.00           2243        1423.00      6196.16
  158.77        2957.25           2246        1433.00      6239.77
  158.80        2957.50           2250        1445.00      6292.11
  158.83        2957.75           2254        1448.00      6305.19
  158.86        2958.00           2257        1452.00      6322.63
  158.90        2958.25           2261        1492.00      6497.08
  158.93        2958.50           2264        1515.00      6597.38
  158.96        2958.75           2268        1564.00      6811.08
  158.99        2959.00           2271        1564.00      6811.08
  159.02        2959.25           2275        1598.00      6959.36
  159.05        2959.50           2278        1603.00      6981.17
  159.08        2959.75           2282        1625.00      7077.12
  159.11        2960.00           2285        1652.00      7194.87
  159.14        2960.25           2289        1705.00      7426.02
  159.17        2960.50           2293        1737.00      7565.59
  159.20        2960.75           2296        1814.00      7901.43
  159.23        2961.00           2300        2135.00      9301.55
  159.26        2961.25           2303        4203.00     18324.84
  159.29        2961.50           2307       14047.00     61353.23
  159.32        2961.75           2310       26460.00    115791.10
  159.35        2962.00           2314       46489.00    204057.30
  159.38        2962.25           2317       64539.00    284060.30
  159.42        2962.50           2321       89012.00    393235.20
  159.45        2962.75           2324      107365.00    475647.40
  159.48        2963.00           2328      130325.00    579406.80
  159.51        2963.25           2331      148284.00    661084.40
  159.54        2963.50           2335      171997.00    769639.20
  159.57        2963.75           2339      199417.00    896185.00
  159.60        2964.00           2342      219380.00    989016.80
  159.63        2964.25           2346      242681.00   1098131.00
  159.66        2964.50           2349      259545.00   1177619.00
  159.69        2964.75           2353      283061.00   1289199.00
  159.72        2965.00           2356      297108.00   1356266.00
  159.75        2965.25           2360      325001.00   1490375.00
  159.78        2965.50           2363      343043.00   1577795.00
  159.81        2965.75           2367      365098.00   1685389.00
  159.84        2966.00           2370      380480.00   1760913.00
  159.87        2966.25           2374      400315.00   1858895.00
  159.91        2966.50           2378      413182.00   1922819.00
  159.94        2966.75           2381      416225.00   1937979.00
  159.97        2967.00           2385      417863.00   1946146.00
  160.00        2967.25           2388      418357.00   1948610.00
  160.03        2967.50           2392      416547.00   1939584.00
  160.06        2967.75           2395      413029.00   1922057.00
  160.09        2968.00           2399      402529.00   1869874.00
  160.12        2968.25           2402      389749.00   1806617.00
  160.15        2968.50           2406      372369.00   1721039.00
  160.18        2968.75           2409      355439.00   1638168.00
  160.21        2969.00           2413      329352.00   1511409.00
  160.24        2969.25           2417      302380.00   1381518.00
  160.27        2969.50           2420      284532.00   1296208.00
  160.30        2969.75           2424      262555.00   1191853.00
  160.33        2970.00           2427      244593.00   1107121.00
  160.36        2970.25           2431      219132.00    987859.90
  160.39        2970.50           2434      199356.00    895902.30
  160.42        2970.75           2438      173057.00    774510.70
  160.46        2971.00           2441      153454.00    684682.90
  160.49        2971.25           2445      128243.00    569967.40
  160.52        2971.50           2449      104045.00    460704.70
  160.55        2971.75           2452       86157.00    380456.90
  160.58        2972.00           2456       62622.00    275542.80
  160.61        2972.25           2459       45369.00    199107.50
  160.64        2972.50           2463       22284.00     97454.46
  160.67        2972.75           2466        9587.00     41842.84
  160.70        2973.00           2470        3253.00     14179.02
  160.73        2973.25           2473        2225.00      9694.13
  160.76        2973.50           2477        1987.00      8655.99
  160.79        2973.75           2481        1899.00      8272.16
  160.82        2974.00           2484        1878.00      8180.57
  160.85        2974.25           2488        1835.00      7993.02
  160.88        2974.50           2491        1799.00      7836.00
  160.91        2974.75           2495        1748.00      7613.57
  160.94        2975.00           2498        1740.00      7578.68
  160.98        2975.25           2502        1732.00      7543.78
  161.01        2975.50           2505        1720.00      7491.45
  161.04        2975.75           2509        1654.00      7203.60
  161.07        2976.00           2512        1637.00      7129.45
  161.10        2976.25           2516        1645.00      7164.34
  161.13        2976.50           2520        1655.00      7207.96
  161.16        2976.75           2523        1616.00      7037.87
  161.19        2977.00           2527        1590.00      6924.47
  161.22        2977.25           2530        1554.00      6767.47
  161.25        2977.50           2534        1527.00      6649.72
  161.28        2977.75           2537        1534.00      6680.24
  161.31        2978.00           2541        1515.00      6597.38
  161.34        2978.25           2544        1516.00      6601.74
  161.37        2978.50           2548        1533.00      6675.88
  161.40        2978.75           2552        1505.00      6553.77
  161.43        2979.00           2555        1494.00      6505.80
  161.46        2979.25           2559        1463.00      6370.60
  161.50        2979.50           2562        1447.00      6300.83
  161.53        2979.75           2566        1442.00      6279.02
  161.56        2980.00           2569        1445.00      6292.11
  161.59        2980.25           2573        1436.00      6252.86
  161.62        2980.50           2577        1389.00      6047.89
  161.65        2980.75           2580        1410.00      6139.47
  161.68        2981.00           2584        1376.00      5991.19
  161.71        2981.25           2587        1374.00      5982.47
  161.74        2981.50           2591        1374.00      5982.47
  161.77        2981.75           2594        1340.00      5834.20
  161.80        2982.00           2598        1371.00      5969.39
  161.83        2982.25           2601        1359.00      5917.06
  161.86        2982.50           2605        1312.00      5712.09
  161.89        2982.75           2609        1342.00      5842.92
  161.92        2983.00           2612        1340.00      5834.20
  161.95        2983.25           2616        1385.00      6030.44
  161.98        2983.50           2619        1327.00      5777.51
  162.02        2983.75           2623        1324.00      5764.43
  162.05        2984.00           2626        1317.00      5733.90
HS scan finished at 02:42:16
end
************************************************************
  HS Scan of (1) Internal mercury lamp
************************************************************
Integration time is 0.2294 seconds per sample
dh130619Reading 51.44 .94 3.29pr1000
************************************************************
Dead Time -------------------------  3.4E-08 
Number of Cycles Used -------------  4 
Starting Wavelength (Angstroms) ---  2950 
Final Wavelength (Angstoms) -------  2984 
Wavelength Increment (Angstroms) --  .25 
Filter Wheel #1 Position ---------- (1) Ground quartz diffuser (ND=2.32)
Filter Wheel #2 Position ---------- (1) Neutral Density 0.494



************************************************************
HS scan start time = 21:10:01
Dark Count =  1.2 


Time (GMT)  Wavelength (Ang)  Step Number  Raw Counts  Counts/Second

 1270.92        2950.00           2144        1088.00      4738.34
 1271.11        2950.25           2147        1105.00      4812.47
 1271.14        2950.50           2151        1128.00      4912.76
 1271.17        2950.75           2155        1159.00      5047.95
 1271.20        2951.00           2158        1112.00      4842.99
 1271.23        2951.25           2162        1131.00      4925.85
 1271.26        2951.50           2165        1147.00      4995.62
 1271.29        2951.75           2169        1120.00      4877.88
 1271.32        2952.00           2172        1145.00      4986.90
 1271.35        2952.25           2176        1141.00      4969.45
 1271.38        2952.50           2179        1127.00      4908.40
 1271.41        2952.75           2183        1135.00      4943.29
 1271.44        2953.00           2186        1147.00      4995.62
 1271.48        2953.25           2190        1169.00      5091.55
 1271.51        2953.50           2193        1138.00      4956.37
 1271.54        2953.75           2197        1198.00      5218.01
 1271.57        2954.00           2200        1155.00      5030.50
 1271.60        2954.25           2204        1184.00      5156.96
 1271.63        2954.50           2208        1182.00      5148.24
 1271.66        2954.75           2211        1197.00      5213.65
 1271.69        2955.00           2215        1184.00      5156.96
 1271.72        2955.25           2218        1164.00      5069.75
 1271.75        2955.50           2222        1183.00      5152.60
 1271.78        2955.75           2225        1220.00      5313.95
 1271.81        2956.00           2229        1184.00      5156.96
 1271.84        2956.25           2232        1227.00      5344.48
 1271.87        2956.50           2236        1229.00      5353.20
 1271.90        2956.75           2239        1244.00      5418.61
 1271.93        2957.00           2243        1269.00      5527.63
 1271.96        2957.25           2246        1297.00      5649.73
 1272.00        2957.50           2250        1291.00      5623.57
 1272.03        2957.75           2254        1287.00      5606.13
 1272.06        2958.00           2257        1294.00      5636.65
 1272.09        2958.25           2261        1321.00      5754.40
 1272.12        2958.50           2264        1307.00      5693.34
 1272.15        2958.75           2268        1352.00      5889.58
 1272.18        2959.00           2271        1319.00      5745.67
 1272.21        2959.25           2275        1353.00      5893.95
 1272.24        2959.50           2278        1377.00      5998.61
 1272.27        2959.75           2282        1440.00      6273.35
 1272.30        2960.00           2285        1464.00      6378.02
 1272.33        2960.25           2289        1454.00      6334.41
 1272.36        2960.50           2293        1461.00      6364.94
 1272.39        2960.75           2296        1557.00      6783.61
 1272.42        2961.00           2300        1600.00      6971.14
 1272.45        2961.25           2303        1982.00      8637.24
 1272.48        2961.50           2307        5066.00     22095.06
 1272.52        2961.75           2310       12398.00     54139.67
 1272.55        2962.00           2314       26968.00    118026.30
 1272.58        2962.25           2317       39864.00    174805.70
 1272.61        2962.50           2321       59099.00    259905.60
 1272.64        2962.75           2324       74650.00    329070.10
 1272.67        2963.00           2328       93637.00    413962.60
 1272.70        2963.25           2331      107446.00    476015.20
 1272.73        2963.50           2335      127609.00    567097.30
 1272.76        2963.75           2339      146694.00    653837.70
 1272.79        2964.00           2342      162970.00    728222.40
 1272.82        2964.25           2346      182524.00    818094.90
 1272.85        2964.50           2349      196341.00    881937.10
 1272.88        2964.75           2353      215727.00    971988.30
 1272.91        2965.00           2356      229561.00   1036594.00
 1272.94        2965.25           2360      247509.00   1120846.00
 1272.97        2965.50           2363      262149.00   1189936.00
 1273.00        2965.75           2367      280049.00   1274863.00
 1273.04        2966.00           2370      294910.00   1345754.00
 1273.07        2966.25           2374      312046.00   1427935.00
 1273.10        2966.50           2378      323426.00   1482773.00
 1273.13        2966.75           2381      326842.00   1499275.00
 1273.16        2967.00           2385      329381.00   1511552.00
 1273.19        2967.25           2388      328576.00   1507658.00
 1273.22        2967.50           2392      328622.00   1507881.00
 1273.25        2967.75           2395      329365.00   1511475.00
 1273.28        2968.00           2399      324970.00   1490229.00
 1273.31        2968.25           2402      316431.00   1449041.00
 1273.34        2968.50           2406      302080.00   1380083.00
 1273.37        2968.75           2409      291331.00   1328649.00
 1273.40        2969.00           2413      274567.00   1248800.00
 1273.43        2969.25           2417      255092.00   1156590.00
 1273.46        2969.50           2420      240119.00   1086096.00
 1273.49        2969.75           2424      220868.00    995963.60
 1273.52        2970.00           2427      207657.00    934433.80
 1273.56        2970.25           2431      187953.00    843146.40
 1273.59        2970.50           2434      174373.00    780564.30
 1273.62        2970.75           2438      154315.00    688619.80
 1273.65        2971.00           2441      138696.00    617424.30
 1273.68        2971.25           2445      117716.00    522336.70
 1273.71        2971.50           2449       97608.00    431779.80
 1273.74        2971.75           2452       82875.00    365784.30
 1273.77        2972.00           2456       63619.00    279975.10
 1273.80        2972.25           2459       48573.00    213275.00
 1273.83        2972.50           2463       29266.00    128128.00
 1273.86        2972.75           2466       16631.00     72671.94
 1273.89        2973.00           2470        5910.00     25780.22
 1273.92        2973.25           2473        2747.00     11974.36
 1273.95        2973.50           2477        1681.00      7324.40
 1273.98        2973.75           2481        1560.00      6796.69
 1274.01        2974.00           2484        1552.00      6761.80
 1274.04        2974.25           2488        1516.00      6604.80
 1274.08        2974.50           2491        1447.00      6303.88
 1274.11        2974.75           2495        1431.00      6234.10
 1274.14        2975.00           2498        1435.00      6251.55
 1274.17        2975.25           2502        1391.00      6059.66
 1274.20        2975.50           2505        1377.00      5998.61
 1274.23        2975.75           2509        1376.00      5994.25
 1274.26        2976.00           2512        1329.00      5789.28
 1274.29        2976.25           2516        1338.00      5828.53
 1274.32        2976.50           2520        1326.00      5776.20
 1274.35        2976.75           2523        1290.00      5619.21
 1274.38        2977.00           2527        1260.00      5488.38
 1274.41        2977.25           2530        1265.00      5510.19
 1274.44        2977.50           2534        1257.00      5475.30
 1274.47        2977.75           2537        1236.00      5383.72
 1274.50        2978.00           2541        1218.00      5305.23
 1274.53        2978.25           2544        1175.00      5117.72
 1274.56        2978.50           2548        1238.00      5392.45
 1274.60        2978.75           2552        1195.00      5204.93
 1274.63        2979.00           2555        1209.00      5265.98
 1274.66        2979.25           2559        1170.00      5095.91
 1274.69        2979.50           2562        1183.00      5152.60
 1274.72        2979.75           2566        1159.00      5047.95
 1274.75        2980.00           2569        1180.00      5139.52
 1274.78        2980.25           2573        1143.00      4978.18
 1274.81        2980.50           2577        1147.00      4995.62
 1274.84        2980.75           2580        1101.00      4795.03
 1274.87        2981.00           2584        1139.00      4960.73
 1274.90        2981.25           2587        1139.00      4960.73
 1274.93        2981.50           2591        1116.00      4860.44
 1274.96        2981.75           2594        1112.00      4842.99
 1274.99        2982.00           2598        1095.00      4768.86
 1275.02        2982.25           2601        1108.00      4825.55
 1275.05        2982.50           2605        1079.00      4699.09
 1275.08        2982.75           2609        1101.00      4795.03
 1275.11        2983.00           2612        1101.00      4795.03
 1275.15        2983.25           2616        1115.00      4856.08
 1275.18        2983.50           2619        1068.00      4651.13
 1275.21        2983.75           2623        1088.00      4738.34
 1275.24        2984.00           2626        1065.00      4638.05
HS scan finished at 21:15:28
end
