************************************************************
  HS Scan of (1) Internal mercury lamp
************************************************************
Integration time is 0.2294 seconds per sample
dh150618Reading 51.44 .94 3.27pr1000
************************************************************
Dead Time -------------------------  3.4E-08 
Number of Cycles Used -------------  4 
Starting Wavelength (Angstroms) ---  2950 
Final Wavelength (Angstoms) -------  2984 
Wavelength Increment (Angstroms) --  .25 
Filter Wheel #1 Position ---------- (1) Ground quartz diffuser (ND=2.32)
Filter Wheel #2 Position ---------- (1) Neutral Density 0.494



************************************************************
HS scan start time = 01:08:19
Dark Count =  1.3 


Time (GMT)  Wavelength (Ang)  Step Number  Raw Counts  Counts/Second

   69.22        2950.00           2144          57.00       242.81
   69.41        2950.25           2147          66.00       282.04
   69.44        2950.50           2151          56.00       238.45
   69.47        2950.75           2155          58.00       247.17
   69.50        2951.00           2158          63.00       268.97
   69.53        2951.25           2162          61.00       260.25
   69.56        2951.50           2165          72.00       308.20
   69.59        2951.75           2169          67.00       286.40
   69.62        2952.00           2172          68.00       290.76
   69.66        2952.25           2176          65.00       277.68
   69.69        2952.50           2179          71.00       303.84
   69.72        2952.75           2183          66.00       282.04
   69.75        2953.00           2186          66.00       282.04
   69.78        2953.25           2190          68.00       290.76
   69.81        2953.50           2193          62.00       264.61
   69.84        2953.75           2197          74.00       316.92
   69.87        2954.00           2200          70.00       299.48
   69.90        2954.25           2204          72.00       308.20
   69.93        2954.50           2208          72.00       308.20
   69.96        2954.75           2211          73.00       312.56
   69.99        2955.00           2215          83.00       356.15
   70.02        2955.25           2218          72.00       308.20
   70.05        2955.50           2222          70.00       299.48
   70.08        2955.75           2225          82.00       351.79
   70.11        2956.00           2229          71.00       303.84
   70.14        2956.25           2232          72.00       308.20
   70.18        2956.50           2236          75.00       321.28
   70.21        2956.75           2239          78.00       334.35
   70.24        2957.00           2243          72.00       308.20
   70.27        2957.25           2246          93.00       399.74
   70.30        2957.50           2250          75.00       321.28
   70.33        2957.75           2254          83.00       356.15
   70.36        2958.00           2257          78.00       334.35
   70.39        2958.25           2261          82.00       351.79
   70.42        2958.50           2264          82.00       351.79
   70.45        2958.75           2268          83.00       356.15
   70.48        2959.00           2271          80.00       343.07
   70.51        2959.25           2275          85.00       364.87
   70.54        2959.50           2278          88.00       377.95
   70.57        2959.75           2282          91.00       391.03
   70.60        2960.00           2285          84.00       360.51
   70.63        2960.25           2289          94.00       404.10
   70.66        2960.50           2293         102.00       438.98
   70.70        2960.75           2296         115.00       495.65
   70.73        2961.00           2300         128.00       552.32
   70.76        2961.25           2303         283.00      1228.04
   70.79        2961.50           2307         871.00      3791.68
   70.82        2961.75           2310        1665.00      7254.19
   70.85        2962.00           2314        2769.00     12069.90
   70.88        2962.25           2317        3707.00     16162.76
   70.91        2962.50           2321        4976.00     21701.71
   70.94        2962.75           2324        5981.00     26089.83
   70.97        2963.00           2328        7396.00     32270.35
   71.00        2963.25           2331        8516.00     37164.20
   71.03        2963.50           2335        9752.00     42566.80
   71.06        2963.75           2339       11130.00     48592.43
   71.09        2964.00           2342       11954.00     52196.74
   71.12        2964.25           2346       13496.00     58944.08
   71.15        2964.50           2349       14656.00     64021.95
   71.18        2964.75           2353       16110.00     70389.28
   71.21        2965.00           2356       17093.00     74695.56
   71.25        2965.25           2360       18241.00     79726.28
   71.28        2965.50           2363       18914.00     82676.28
   71.31        2965.75           2367       20264.00     88595.59
   71.34        2966.00           2370       21413.00     93635.47
   71.37        2966.25           2374       22474.00     98290.88
   71.40        2966.50           2378       23072.00    100915.40
   71.43        2966.75           2381       22955.00    100401.90
   71.46        2967.00           2385       23042.00    100783.70
   71.49        2967.25           2388       23097.00    101025.10
   71.52        2967.50           2392       23450.00    102574.60
   71.55        2967.75           2395       23168.00    101336.80
   71.58        2968.00           2399       22563.00     98681.44
   71.61        2968.25           2402       21563.00     94293.54
   71.64        2968.50           2406       20454.00     89428.87
   71.67        2968.75           2409       19189.00     83881.86
   71.70        2969.00           2413       18023.00     78770.85
   71.74        2969.25           2417       16781.00     73328.63
   71.77        2969.50           2420       15772.00     68908.86
   71.80        2969.75           2424       14257.00     62275.14
   71.83        2970.00           2427       13151.00     57434.20
   71.86        2970.25           2431       11796.00     51505.55
   71.89        2970.50           2434       11022.00     48120.08
   71.92        2970.75           2438        9531.00     41600.65
   71.95        2971.00           2441        8545.00     37290.93
   71.98        2971.25           2445        7116.00     31047.15
   72.01        2971.50           2449        5700.00     24862.77
   72.04        2971.75           2452        4647.00     20265.49
   72.07        2972.00           2456        3255.00     14190.37
   72.10        2972.25           2459        2253.00      9818.88
   72.13        2972.50           2463        1228.00      5348.40
   72.16        2972.75           2466         638.00      2775.76
   72.19        2973.00           2470         201.00       870.56
   72.22        2973.25           2473         129.00       556.68
   72.26        2973.50           2477         109.00       469.49
   72.29        2973.75           2481         101.00       434.62
   72.32        2974.00           2484         115.00       495.65
   72.35        2974.25           2488         136.00       587.20
   72.38        2974.50           2491          87.00       373.59
   72.41        2974.75           2495          88.00       377.95
   72.44        2975.00           2498          94.00       404.10
   72.47        2975.25           2502          86.00       369.23
   72.50        2975.50           2505          90.00       386.67
   72.53        2975.75           2509          85.00       364.87
   72.56        2976.00           2512          80.00       343.07
   72.59        2976.25           2516          85.00       364.87
   72.62        2976.50           2520          71.00       303.84
   72.65        2976.75           2523          72.00       308.20
   72.68        2977.00           2527          77.00       329.99
   72.71        2977.25           2530          76.00       325.64
   72.74        2977.50           2534          81.00       347.43
   72.78        2977.75           2537          75.00       321.28
   72.81        2978.00           2541          67.00       286.40
   72.84        2978.25           2544          75.00       321.28
   72.87        2978.50           2548          72.00       308.20
   72.90        2978.75           2552          73.00       312.56
   72.93        2979.00           2555          75.00       321.28
   72.96        2979.25           2559          72.00       308.20
   72.99        2979.50           2562          71.00       303.84
   73.02        2979.75           2566          72.00       308.20
   73.05        2980.00           2569          74.00       316.92
   73.08        2980.25           2573          76.00       325.64
   73.11        2980.50           2577          67.00       286.40
   73.14        2980.75           2580          71.00       303.84
   73.17        2981.00           2584          71.00       303.84
   73.20        2981.25           2587          67.00       286.40
   73.23        2981.50           2591          62.00       264.61
   73.26        2981.75           2594          73.00       312.56
   73.30        2982.00           2598          70.00       299.48
   73.33        2982.25           2601          67.00       286.40
   73.36        2982.50           2605          68.00       290.76
   73.39        2982.75           2609          69.00       295.12
   73.42        2983.00           2612          58.00       247.17
   73.46        2983.25           2616          59.00       251.53
   73.49        2983.50           2619          58.00       247.17
   73.52        2983.75           2623          62.00       264.61
   73.56        2984.00           2626          61.00       260.25
HS scan finished at 01:13:47
end
************************************************************
  HS Scan of (1) Internal mercury lamp
************************************************************
Integration time is 0.2294 seconds per sample
dh150618Reading 51.44 .94 3.58pr1000
************************************************************
Dead Time -------------------------  3.4E-08 
Number of Cycles Used -------------  4 
Starting Wavelength (Angstroms) ---  2950 
Final Wavelength (Angstoms) -------  2984 
Wavelength Increment (Angstroms) --  .25 
Filter Wheel #1 Position ---------- (1) Ground quartz diffuser (ND=2.32)
Filter Wheel #2 Position ---------- (1) Neutral Density 0.494



************************************************************
HS scan start time = 21:07:24
Dark Count =  3 


Time (GMT)  Wavelength (Ang)  Step Number  Raw Counts  Counts/Second

 1268.29        2950.00           2144          63.00       261.55
 1268.49        2950.25           2147          58.00       239.76
 1268.52        2950.50           2151          55.00       226.68
 1268.55        2950.75           2155          58.00       239.76
 1268.58        2951.00           2158          67.00       278.99
 1268.61        2951.25           2162          61.00       252.84
 1268.64        2951.50           2165          69.00       287.71
 1268.67        2951.75           2169          65.00       270.27
 1268.70        2952.00           2172          63.00       261.55
 1268.73        2952.25           2176          68.00       283.35
 1268.76        2952.50           2179          59.00       244.12
 1268.79        2952.75           2183          63.00       261.55
 1268.82        2953.00           2186          64.00       265.91
 1268.85        2953.25           2190          65.00       270.27
 1268.88        2953.50           2193          64.00       265.91
 1268.91        2953.75           2197          62.00       257.19
 1268.95        2954.00           2200          65.00       270.27
 1268.98        2954.25           2204          58.00       239.76
 1269.01        2954.50           2208          67.00       278.99
 1269.04        2954.75           2211          69.00       287.71
 1269.07        2955.00           2215          65.00       270.27
 1269.10        2955.25           2218          66.00       274.63
 1269.13        2955.50           2222          66.00       274.63
 1269.16        2955.75           2225          67.00       278.99
 1269.19        2956.00           2229          69.00       287.71
 1269.22        2956.25           2232          70.00       292.07
 1269.25        2956.50           2236          79.00       331.30
 1269.28        2956.75           2239          70.00       292.07
 1269.31        2957.00           2243          72.00       300.79
 1269.34        2957.25           2246          73.00       305.15
 1269.37        2957.50           2250          74.00       309.51
 1269.40        2957.75           2254          75.00       313.87
 1269.43        2958.00           2257          77.00       322.58
 1269.47        2958.25           2261          68.00       283.35
 1269.50        2958.50           2264          81.00       340.02
 1269.53        2958.75           2268          83.00       348.74
 1269.56        2959.00           2271          80.00       335.66
 1269.59        2959.25           2275          77.00       322.58
 1269.62        2959.50           2278          85.00       357.46
 1269.65        2959.75           2282          86.00       361.82
 1269.68        2960.00           2285          86.00       361.82
 1269.71        2960.25           2289          83.00       348.74
 1269.74        2960.50           2293         112.00       475.16
 1269.77        2960.75           2296          92.00       387.97
 1269.80        2961.00           2300         127.00       540.55
 1269.83        2961.25           2303         220.00       945.98
 1269.86        2961.50           2307         734.00      3186.92
 1269.89        2961.75           2310        1451.00      6313.47
 1269.92        2962.00           2314        2646.00     11525.88
 1269.95        2962.25           2317        3565.00     15535.67
 1269.99        2962.50           2321        4781.00     20843.01
 1270.02        2962.75           2324        5680.00     24768.02
 1270.05        2963.00           2328        6978.00     30436.89
 1270.08        2963.25           2331        7957.00     34714.01
 1270.11        2963.50           2335        9189.00     40098.22
 1270.14        2963.75           2339       10521.00     45921.69
 1270.17        2964.00           2342       11636.00     50798.21
 1270.20        2964.25           2346       13131.00     57339.23
 1270.23        2964.50           2349       14126.00     61694.23
 1270.26        2964.75           2353       15179.00     66304.50
 1270.29        2965.00           2356       15977.00     69799.28
 1270.32        2965.25           2360       16892.00     73807.48
 1270.35        2965.50           2363       17971.00     78535.50
 1270.38        2965.75           2367       19543.00     85426.49
 1270.41        2966.00           2370       20375.00     89074.94
 1270.44        2966.25           2374       21801.00     95330.29
 1270.47        2966.50           2378       22216.00     97151.25
 1270.51        2966.75           2381       22453.00     98191.26
 1270.54        2967.00           2385       22417.00     98033.28
 1270.57        2967.25           2388       22122.00     96738.77
 1270.60        2967.50           2392       22117.00     96716.82
 1270.63        2967.75           2395       22107.00     96672.94
 1270.66        2968.00           2399       21304.00     93149.83
 1270.69        2968.25           2402       20635.00     90215.28
 1270.72        2968.50           2406       19401.00     84803.89
 1270.75        2968.75           2409       18471.00     80726.94
 1270.78        2969.00           2413       17069.00     74582.96
 1270.81        2969.25           2417       15982.00     69821.18
 1270.84        2969.50           2420       14994.00     65494.42
 1270.87        2969.75           2424       13507.00     58984.78
 1270.90        2970.00           2427       12576.00     54910.62
 1270.93        2970.25           2431       11262.00     49162.32
 1270.96        2970.50           2434       10420.00     45480.04
 1271.00        2970.75           2438        9036.00     39429.46
 1271.03        2971.00           2441        7963.00     34740.22
 1271.06        2971.25           2445        6474.00     28235.47
 1271.09        2971.50           2449        5248.00     22881.79
 1271.12        2971.75           2452        4435.00     19332.67
 1271.15        2972.00           2456        3201.00     13947.33
 1271.18        2972.25           2459        2246.00      9780.93
 1271.21        2972.50           2463        1124.00      4887.47
 1271.24        2972.75           2466         520.00      2253.88
 1271.27        2973.00           2470         150.00       640.82
 1271.30        2973.25           2473         125.00       531.83
 1271.33        2973.50           2477          97.00       409.77
 1271.36        2973.75           2481          87.00       366.18
 1271.39        2974.00           2484          93.00       392.33
 1271.42        2974.25           2488          89.00       374.90
 1271.45        2974.50           2491          93.00       392.33
 1271.48        2974.75           2495          88.00       370.54
 1271.52        2975.00           2498          90.00       379.26
 1271.55        2975.25           2502          80.00       335.66
 1271.58        2975.50           2505          82.00       344.38
 1271.61        2975.75           2509          84.00       353.10
 1271.64        2976.00           2512          79.00       331.30
 1271.67        2976.25           2516          81.00       340.02
 1271.70        2976.50           2520          72.00       300.79
 1271.73        2976.75           2523          77.00       322.58
 1271.76        2977.00           2527          76.00       318.22
 1271.79        2977.25           2530          75.00       313.87
 1271.82        2977.50           2534          76.00       318.22
 1271.85        2977.75           2537          66.00       274.63
 1271.88        2978.00           2541          75.00       313.87
 1271.91        2978.25           2544          70.00       292.07
 1271.94        2978.50           2548          67.00       278.99
 1271.97        2978.75           2552          65.00       270.27
 1272.00        2979.00           2555          68.00       283.35
 1272.03        2979.25           2559          68.00       283.35
 1272.07        2979.50           2562          72.00       300.79
 1272.10        2979.75           2566          68.00       283.35
 1272.13        2980.00           2569          71.00       296.43
 1272.16        2980.25           2573          66.00       274.63
 1272.19        2980.50           2577          67.00       278.99
 1272.22        2980.75           2580          64.00       265.91
 1272.25        2981.00           2584          69.00       287.71
 1272.28        2981.25           2587          60.00       248.48
 1272.31        2981.50           2591          64.00       265.91
 1272.34        2981.75           2594          66.00       274.63
 1272.37        2982.00           2598          61.00       252.84
 1272.40        2982.25           2601          66.00       274.63
 1272.43        2982.50           2605          64.00       265.91
 1272.46        2982.75           2609          62.00       257.19
 1272.49        2983.00           2612          68.00       283.35
 1272.52        2983.25           2616          63.00       261.55
 1272.55        2983.50           2619          63.00       261.55
 1272.59        2983.75           2623          59.00       244.12
 1272.62        2984.00           2626          66.00       274.63
HS scan finished at 21:12:50
end
