************************************************************
  HS Scan of (1) Internal mercury lamp
************************************************************
Integration time is 0.2294 seconds per sample
dh160618Reading 51.44 .94 3.43pr1000
************************************************************
Dead Time -------------------------  3.4E-08 
Number of Cycles Used -------------  4 
Starting Wavelength (Angstroms) ---  2950 
Final Wavelength (Angstoms) -------  2984 
Wavelength Increment (Angstroms) --  .25 
Filter Wheel #1 Position ---------- (1) Ground quartz diffuser (ND=2.32)
Filter Wheel #2 Position ---------- (1) Neutral Density 0.494



************************************************************
HS scan start time = 01:08:32
Dark Count =  1.9 


Time (GMT)  Wavelength (Ang)  Step Number  Raw Counts  Counts/Second

   69.43        2950.00           2144          64.00       270.71
   69.63        2950.25           2147          65.00       275.07
   69.66        2950.50           2151          56.00       235.83
   69.69        2950.75           2155          66.00       279.43
   69.72        2951.00           2158          66.00       279.43
   69.75        2951.25           2162          60.00       253.27
   69.78        2951.50           2165          72.00       305.58
   69.81        2951.75           2169          61.00       257.63
   69.84        2952.00           2172          64.00       270.71
   69.87        2952.25           2176          60.00       253.27
   69.90        2952.50           2179          58.00       244.55
   69.93        2952.75           2183          62.00       261.99
   69.96        2953.00           2186          66.00       279.43
   70.00        2953.25           2190          64.00       270.71
   70.03        2953.50           2193          65.00       275.07
   70.06        2953.75           2197          70.00       296.86
   70.09        2954.00           2200          66.00       279.43
   70.12        2954.25           2204          59.00       248.91
   70.15        2954.50           2208          67.00       283.79
   70.18        2954.75           2211          66.00       279.43
   70.21        2955.00           2215          75.00       318.66
   70.24        2955.25           2218          65.00       275.07
   70.27        2955.50           2222          74.00       314.30
   70.30        2955.75           2225          71.00       301.22
   70.33        2956.00           2229          71.00       301.22
   70.36        2956.25           2232          69.00       292.51
   70.39        2956.50           2236          84.00       357.89
   70.42        2956.75           2239          70.00       296.86
   70.45        2957.00           2243          77.00       327.38
   70.48        2957.25           2246          81.00       344.82
   70.52        2957.50           2250          72.00       305.58
   70.55        2957.75           2254          76.00       323.02
   70.58        2958.00           2257          80.00       340.46
   70.61        2958.25           2261          79.00       336.10
   70.64        2958.50           2264          80.00       340.46
   70.67        2958.75           2268          73.00       309.94
   70.70        2959.00           2271         100.00       427.64
   70.73        2959.25           2275          84.00       357.89
   70.76        2959.50           2278          88.00       375.33
   70.79        2959.75           2282          80.00       340.46
   70.83        2960.00           2285          85.00       362.25
   70.86        2960.25           2289          80.00       340.46
   70.89        2960.50           2293         124.00       532.27
   70.92        2960.75           2296         111.00       475.60
   70.95        2961.00           2300         130.00       558.42
   70.98        2961.25           2303         259.00      1120.79
   71.01        2961.50           2307         721.00      3135.03
   71.04        2961.75           2310        1449.00      6309.55
   71.07        2962.00           2314        2720.00     11853.51
   71.10        2962.25           2317        3817.00     16640.19
   71.13        2962.50           2321        5147.00     22445.63
   71.16        2962.75           2324        6049.00     26384.16
   71.19        2963.00           2328        7458.00     32538.60
   71.23        2963.25           2331        8360.00     36479.83
   71.26        2963.50           2335        9761.00     42603.52
   71.29        2963.75           2339       11088.00     48406.10
   71.32        2964.00           2342       12142.00     53016.58
   71.35        2964.25           2346       13358.00     58337.48
   71.38        2964.50           2349       14673.00     64093.74
   71.41        2964.75           2353       16242.00     70964.84
   71.44        2965.00           2356       17119.00     74806.85
   71.47        2965.25           2360       18235.00     79697.37
   71.50        2965.50           2363       19151.00     83712.65
   71.53        2965.75           2367       20581.00     89983.25
   71.56        2966.00           2370       21751.00     95115.74
   71.59        2966.25           2374       22813.00     99776.01
   71.62        2966.50           2378       23162.00    101307.80
   71.65        2966.75           2381       23550.00    103011.00
   71.68        2967.00           2385       23718.00    103748.50
   71.71        2967.25           2388       23698.00    103660.70
   71.75        2967.50           2392       23501.00    102795.90
   71.78        2967.75           2395       23200.00    101474.60
   71.81        2968.00           2399       22405.00     97985.44
   71.84        2968.25           2402       21809.00     95370.21
   71.87        2968.50           2406       20565.00     89913.08
   71.90        2968.75           2409       19314.00     84427.27
   71.93        2969.00           2413       17951.00     78452.68
   71.96        2969.25           2417       16886.00     73786.01
   71.99        2969.50           2420       15891.00     69427.43
   72.02        2969.75           2424       14972.00     65402.90
   72.05        2970.00           2427       13650.00     59615.48
   72.08        2970.25           2431       12047.00     52600.96
   72.11        2970.50           2434       10968.00     47881.28
   72.14        2970.75           2438        9583.00     41825.35
   72.17        2971.00           2441        8527.00     37209.64
   72.20        2971.25           2445        6989.00     30489.75
   72.23        2971.50           2449        5628.00     24545.76
   72.26        2971.75           2452        4591.00     20018.42
   72.30        2972.00           2456        3269.00     14248.84
   72.33        2972.25           2459        2310.00     10064.91
   72.36        2972.50           2463        1170.00      5092.86
   72.39        2972.75           2466         538.00      2337.15
   72.42        2973.00           2470         174.00       750.24
   72.45        2973.25           2473         131.00       562.78
   72.48        2973.50           2477         109.00       466.88
   72.51        2973.75           2481         101.00       432.00
   72.54        2974.00           2484         134.00       575.86
   72.57        2974.25           2488          95.00       405.85
   72.60        2974.50           2491          86.00       366.61
   72.63        2974.75           2495          92.00       392.77
   72.66        2975.00           2498          97.00       414.57
   72.69        2975.25           2502          78.00       331.74
   72.72        2975.50           2505          78.00       331.74
   72.75        2975.75           2509          80.00       340.46
   72.78        2976.00           2512          84.00       357.89
   72.82        2976.25           2516          74.00       314.30
   72.85        2976.50           2520          73.00       309.94
   72.88        2976.75           2523          82.00       349.18
   72.91        2977.00           2527          74.00       314.30
   72.94        2977.25           2530          86.00       366.61
   72.97        2977.50           2534          76.00       323.02
   73.00        2977.75           2537          78.00       331.74
   73.03        2978.00           2541          74.00       314.30
   73.06        2978.25           2544          71.00       301.22
   73.09        2978.50           2548          65.00       275.07
   73.12        2978.75           2552          76.00       323.02
   73.15        2979.00           2555          70.00       296.86
   73.18        2979.25           2559          66.00       279.43
   73.21        2979.50           2562          74.00       314.30
   73.24        2979.75           2566          63.00       266.35
   73.27        2980.00           2569          62.00       261.99
   73.30        2980.25           2573          61.00       257.63
   73.34        2980.50           2577          73.00       309.94
   73.37        2980.75           2580          73.00       309.94
   73.40        2981.00           2584          60.00       253.27
   73.43        2981.25           2587          61.00       257.63
   73.46        2981.50           2591          70.00       296.86
   73.49        2981.75           2594          71.00       301.22
   73.52        2982.00           2598          64.00       270.71
   73.55        2982.25           2601          66.00       279.43
   73.58        2982.50           2605          64.00       270.71
   73.61        2982.75           2609          65.00       275.07
   73.64        2983.00           2612          61.00       257.63
   73.67        2983.25           2616          65.00       275.07
   73.70        2983.50           2619          63.00       266.35
   73.73        2983.75           2623          65.00       275.07
   73.76        2984.00           2626          73.00       309.94
HS scan finished at 01:13:59
end
************************************************************
  HS Scan of (1) Internal mercury lamp
************************************************************
Integration time is 0.2294 seconds per sample
dh160618Reading 51.44 .94 3.35pr1000
************************************************************
Dead Time -------------------------  3.4E-08 
Number of Cycles Used -------------  4 
Starting Wavelength (Angstroms) ---  2950 
Final Wavelength (Angstoms) -------  2984 
Wavelength Increment (Angstroms) --  .25 
Filter Wheel #1 Position ---------- (1) Ground quartz diffuser (ND=2.32)
Filter Wheel #2 Position ---------- (1) Neutral Density 0.494



************************************************************
HS scan start time = 21:09:54
Dark Count =  2.3 


Time (GMT)  Wavelength (Ang)  Step Number  Raw Counts  Counts/Second

 1270.80        2950.00           2144          66.00       277.68
 1270.99        2950.25           2147          71.00       299.48
 1271.02        2950.50           2151          63.00       264.61
 1271.05        2950.75           2155          68.00       286.40
 1271.08        2951.00           2158          66.00       277.68
 1271.11        2951.25           2162          62.00       260.25
 1271.14        2951.50           2165          66.00       277.68
 1271.17        2951.75           2169          72.00       303.84
 1271.20        2952.00           2172          78.00       329.99
 1271.24        2952.25           2176          64.00       268.96
 1271.27        2952.50           2179          62.00       260.25
 1271.30        2952.75           2183          81.00       343.07
 1271.33        2953.00           2186          71.00       299.48
 1271.36        2953.25           2190          71.00       299.48
 1271.39        2953.50           2193          76.00       321.28
 1271.42        2953.75           2197          70.00       295.12
 1271.45        2954.00           2200          72.00       303.84
 1271.48        2954.25           2204          65.00       273.32
 1271.51        2954.50           2208          70.00       295.12
 1271.54        2954.75           2211          71.00       299.48
 1271.57        2955.00           2215          67.00       282.04
 1271.60        2955.25           2218          69.00       290.76
 1271.63        2955.50           2222          73.00       308.20
 1271.66        2955.75           2225          75.00       316.92
 1271.69        2956.00           2229          65.00       273.32
 1271.72        2956.25           2232          72.00       303.84
 1271.76        2956.50           2236          80.00       338.71
 1271.79        2956.75           2239          83.00       351.79
 1271.82        2957.00           2243          79.00       334.35
 1271.85        2957.25           2246          71.00       299.48
 1271.88        2957.50           2250          80.00       338.71
 1271.91        2957.75           2254          76.00       321.28
 1271.94        2958.00           2257          81.00       343.07
 1271.97        2958.25           2261          86.00       364.87
 1272.00        2958.50           2264          84.00       356.15
 1272.03        2958.75           2268          88.00       373.59
 1272.06        2959.00           2271          91.00       386.67
 1272.09        2959.25           2275          94.00       399.74
 1272.12        2959.50           2278          85.00       360.51
 1272.15        2959.75           2282          77.00       325.64
 1272.18        2960.00           2285          95.00       404.10
 1272.21        2960.25           2289          97.00       412.82
 1272.24        2960.50           2293         102.00       434.62
 1272.28        2960.75           2296          98.00       417.18
 1272.31        2961.00           2300         117.00       500.01
 1272.34        2961.25           2303         239.00      1031.86
 1272.37        2961.50           2307         874.00      3800.40
 1272.40        2961.75           2310        1690.00      7358.86
 1272.43        2962.00           2314        2895.00     12615.26
 1272.46        2962.25           2317        3741.00     16306.77
 1272.49        2962.50           2321        5134.00     22387.13
 1272.52        2962.75           2324        6069.00     26469.76
 1272.55        2963.00           2328        7455.00     32523.74
 1272.58        2963.25           2331        8483.00     37015.61
 1272.61        2963.50           2335        9844.00     42964.64
 1272.64        2963.75           2339       10940.00     47757.08
 1272.67        2964.00           2342       12265.00     53552.96
 1272.70        2964.25           2346       13834.00     60419.11
 1272.73        2964.50           2349       15016.00     65593.81
 1272.76        2964.75           2353       16375.00     71545.68
 1272.80        2965.00           2356       17351.00     75821.63
 1272.83        2965.25           2360       18506.00     80883.43
 1272.86        2965.50           2363       19452.00     85030.56
 1272.89        2965.75           2367       20746.00     90705.19
 1272.92        2966.00           2370       21871.00     95640.49
 1272.95        2966.25           2374       22977.00    100494.10
 1272.98        2966.50           2378       23738.00    103834.50
 1273.01        2966.75           2381       24002.00    104993.60
 1273.04        2967.00           2385       24280.00    106214.20
 1273.07        2967.25           2388       24016.00    105055.10
 1273.10        2967.50           2392       23838.00    104273.60
 1273.13        2967.75           2395       23568.00    103088.20
 1273.16        2968.00           2399       23397.00    102337.60
 1273.19        2968.25           2402       22492.00     98365.49
 1273.22        2968.50           2406       20964.00     91661.41
 1273.25        2968.75           2409       19718.00     86196.89
 1273.28        2969.00           2413       18580.00     81207.78
 1273.32        2969.25           2417       17520.00     76562.16
 1273.35        2969.50           2420       16181.00     70695.88
 1273.38        2969.75           2424       14316.00     62529.05
 1273.41        2970.00           2427       13279.00     57989.99
 1273.44        2970.25           2431       12346.00     53907.35
 1273.47        2970.50           2434       11295.00     49309.72
 1273.51        2970.75           2438        9839.00     42942.78
 1273.54        2971.00           2441        8533.00     37234.12
 1273.58        2971.25           2445        7378.00     32187.35
 1273.61        2971.50           2449        5912.00     25784.15
 1273.64        2971.75           2452        4798.00     20920.28
 1273.67        2972.00           2456        3426.00     14932.17
 1273.70        2972.25           2459        2446.00     10656.43
 1273.73        2972.50           2463        1381.00      6011.25
 1273.76        2972.75           2466         726.00      3155.09
 1273.79        2973.00           2470         230.00       992.62
 1273.82        2973.25           2473         149.00       639.51
 1273.85        2973.50           2477         100.00       425.90
 1273.88        2973.75           2481          96.00       408.46
 1273.91        2974.00           2484          89.00       377.95
 1273.94        2974.25           2488          94.00       399.74
 1273.97        2974.50           2491          98.00       417.18
 1274.00        2974.75           2495          92.00       391.03
 1274.03        2975.00           2498          88.00       373.59
 1274.06        2975.25           2502          90.00       382.31
 1274.10        2975.50           2505          89.00       377.95
 1274.13        2975.75           2509          87.00       369.23
 1274.16        2976.00           2512          95.00       404.10
 1274.19        2976.25           2516          86.00       364.87
 1274.22        2976.50           2520          80.00       338.71
 1274.25        2976.75           2523          83.00       351.79
 1274.28        2977.00           2527          77.00       325.64
 1274.31        2977.25           2530          76.00       321.28
 1274.34        2977.50           2534          75.00       316.92
 1274.37        2977.75           2537          85.00       360.51
 1274.40        2978.00           2541          76.00       321.28
 1274.43        2978.25           2544          72.00       303.84
 1274.46        2978.50           2548          77.00       325.64
 1274.49        2978.75           2552          77.00       325.64
 1274.52        2979.00           2555          73.00       308.20
 1274.55        2979.25           2559          78.00       329.99
 1274.58        2979.50           2562          73.00       308.20
 1274.62        2979.75           2566          70.00       295.12
 1274.65        2980.00           2569          81.00       343.07
 1274.68        2980.25           2573          74.00       312.56
 1274.71        2980.50           2577          71.00       299.48
 1274.74        2980.75           2580          73.00       308.20
 1274.77        2981.00           2584          74.00       312.56
 1274.80        2981.25           2587          68.00       286.40
 1274.83        2981.50           2591          70.00       295.12
 1274.86        2981.75           2594          69.00       290.76
 1274.89        2982.00           2598          67.00       282.04
 1274.92        2982.25           2601          63.00       264.61
 1274.95        2982.50           2605          67.00       282.04
 1274.98        2982.75           2609          69.00       290.76
 1275.01        2983.00           2612          67.00       282.04
 1275.04        2983.25           2616          76.00       321.28
 1275.07        2983.50           2619          67.00       282.04
 1275.10        2983.75           2623          71.00       299.48
 1275.14        2984.00           2626          70.00       295.12
HS scan finished at 21:15:21
end
