************************************************************
  HS Scan of (1) Internal mercury lamp
************************************************************
Integration time is 0.2294 seconds per sample
dh250617Reading 51.44 .94 3.41pr1000
************************************************************
Dead Time -------------------------  3.4E-08 
Number of Cycles Used -------------  4 
Starting Wavelength (Angstroms) ---  2950 
Final Wavelength (Angstoms) -------  2984 
Wavelength Increment (Angstroms) --  .25 
Filter Wheel #1 Position ---------- (1) Ground quartz diffuser (ND=2.32)
Filter Wheel #2 Position ---------- (1) Neutral Density 0.494



************************************************************
HS scan start time = 01:18:34
Dark Count =  1.8 


Time (GMT)  Wavelength (Ang)  Step Number  Raw Counts  Counts/Second

   79.47        2950.00           2144         432.00      1875.45
   79.67        2950.25           2147         424.00      1840.57
   79.70        2950.50           2151         430.00      1866.73
   79.73        2950.75           2155         436.00      1892.89
   79.76        2951.00           2158         419.00      1818.77
   79.79        2951.25           2162         426.00      1849.29
   79.82        2951.50           2165         441.00      1914.68
   79.85        2951.75           2169         455.00      1975.72
   79.88        2952.00           2172         439.00      1905.97
   79.91        2952.25           2176         425.00      1844.93
   79.94        2952.50           2179         438.00      1901.61
   79.97        2952.75           2183         415.00      1801.33
   80.00        2953.00           2186         437.00      1897.25
   80.03        2953.25           2190         439.00      1905.97
   80.06        2953.50           2193         430.00      1866.73
   80.09        2953.75           2197         420.00      1823.13
   80.12        2954.00           2200         449.00      1949.56
   80.16        2954.25           2204         430.00      1866.73
   80.19        2954.50           2208         455.00      1975.72
   80.22        2954.75           2211         454.00      1971.36
   80.25        2955.00           2215         468.00      2032.40
   80.28        2955.25           2218         476.00      2067.28
   80.31        2955.50           2222         477.00      2071.64
   80.34        2955.75           2225         454.00      1971.36
   80.37        2956.00           2229         471.00      2045.48
   80.40        2956.25           2232         464.00      2014.96
   80.43        2956.50           2236         485.00      2106.52
   80.46        2956.75           2239         481.00      2089.08
   80.49        2957.00           2243         480.00      2084.72
   80.52        2957.25           2246         491.00      2132.67
   80.55        2957.50           2250         498.00      2163.19
   80.58        2957.75           2254         496.00      2154.47
   80.61        2958.00           2257         473.00      2054.20
   80.64        2958.25           2261         529.00      2298.35
   80.68        2958.50           2264         519.00      2254.75
   80.71        2958.75           2268         518.00      2250.39
   80.74        2959.00           2271         531.00      2307.07
   80.77        2959.25           2275         538.00      2337.59
   80.80        2959.50           2278         569.00      2472.74
   80.83        2959.75           2282         561.00      2437.87
   80.86        2960.00           2285         582.00      2529.42
   80.89        2960.25           2289         590.00      2564.30
   80.92        2960.50           2293         625.00      2716.90
   80.95        2960.75           2296         645.00      2804.10
   80.98        2961.00           2300         713.00      3100.59
   81.01        2961.25           2303        1133.00      4931.95
   81.04        2961.50           2307        4147.00     18080.86
   81.07        2961.75           2310        9032.00     39417.22
   81.10        2962.00           2314       16899.00     73843.41
   81.13        2962.25           2317       23069.00    100900.00
   81.16        2962.50           2321       32034.00    140302.40
   81.19        2962.75           2324       39363.00    172593.10
   81.23        2963.00           2328       49411.00    216979.30
   81.26        2963.25           2331       56116.00    246673.10
   81.29        2963.50           2335       64734.00    284927.40
   81.32        2963.75           2339       73799.00    325274.10
   81.35        2964.00           2342       81375.00    359079.20
   81.38        2964.25           2346       91393.00    403901.00
   81.41        2964.50           2349       98308.00    434920.20
   81.44        2964.75           2353      107748.00    477372.60
   81.47        2965.00           2356      113918.00    505186.50
   81.50        2965.25           2360      122352.00    543292.30
   81.53        2965.50           2363      128314.00    570289.60
   81.56        2965.75           2367      137170.00    610484.30
   81.59        2966.00           2370      143951.00    641336.30
   81.62        2966.25           2374      152511.00    680376.20
   81.65        2966.50           2378      158243.00    706577.00
   81.68        2966.75           2381      159424.00    711981.20
   81.71        2967.00           2385      160312.00    716046.00
   81.75        2967.25           2388      159628.00    712915.00
   81.78        2967.50           2392      160234.00    715688.80
   81.81        2967.75           2395      159541.00    712516.70
   81.84        2968.00           2399      157779.00    704454.30
   81.87        2968.25           2402      152147.00    678714.00
   81.90        2968.50           2406      144240.00    642652.70
   81.93        2968.75           2409      137815.00    613416.10
   81.96        2969.00           2413      130591.00    580613.60
   81.99        2969.25           2417      122431.00    543649.70
   82.02        2969.50           2420      114857.00    509424.10
   82.05        2969.75           2424      104559.00    463017.60
   82.08        2970.00           2427       97083.00    429420.30
   82.11        2970.25           2431       86700.00    382886.80
   82.14        2970.50           2434       79594.00    351125.10
   82.17        2970.75           2438       69184.00    304719.70
   82.20        2971.00           2441       62058.00    273038.20
   82.24        2971.25           2445       52669.00    231400.20
   82.27        2971.50           2449       42675.00    187208.80
   82.30        2971.75           2452       35095.00    153780.20
   82.33        2972.00           2456       26193.00    114618.40
   82.36        2972.25           2459       19566.00     85532.59
   82.39        2972.50           2463       11362.00     49604.96
   82.42        2972.75           2466        6331.00     27616.16
   82.45        2973.00           2470        2003.00      8726.22
   82.48        2973.25           2473         920.00      4003.16
   82.51        2973.50           2477         693.00      3013.39
   82.54        2973.75           2481         619.00      2690.74
   82.57        2974.00           2484         621.00      2699.46
   82.60        2974.25           2488         590.00      2564.30
   82.63        2974.50           2491         613.00      2664.58
   82.66        2974.75           2495         585.00      2542.50
   82.69        2975.00           2498         531.00      2307.07
   82.72        2975.25           2502         534.00      2320.15
   82.75        2975.50           2505         527.00      2289.63
   82.79        2975.75           2509         541.00      2350.67
   82.82        2976.00           2512         542.00      2355.03
   82.85        2976.25           2516         505.00      2193.71
   82.88        2976.50           2520         508.00      2206.79
   82.91        2976.75           2523         522.00      2267.83
   82.94        2977.00           2527         502.00      2180.63
   82.97        2977.25           2530         509.00      2211.15
   83.00        2977.50           2534         484.00      2102.16
   83.03        2977.75           2537         479.00      2080.36
   83.06        2978.00           2541         509.00      2211.15
   83.09        2978.25           2544         449.00      1949.56
   83.12        2978.50           2548         462.00      2006.24
   83.15        2978.75           2552         457.00      1984.44
   83.18        2979.00           2555         463.00      2010.60
   83.21        2979.25           2559         440.00      1910.32
   83.24        2979.50           2562         458.00      1988.80
   83.27        2979.75           2566         416.00      1805.69
   83.31        2980.00           2569         423.00      1836.21
   83.34        2980.25           2573         434.00      1884.17
   83.37        2980.50           2577         447.00      1940.84
   83.40        2980.75           2580         419.00      1818.77
   83.43        2981.00           2584         440.00      1910.32
   83.46        2981.25           2587         392.00      1701.06
   83.49        2981.50           2591         413.00      1792.61
   83.52        2981.75           2594         429.00      1862.37
   83.55        2982.00           2598         432.00      1875.45
   83.58        2982.25           2601         404.00      1753.37
   83.61        2982.50           2605         406.00      1762.09
   83.64        2982.75           2609         402.00      1744.65
   83.67        2983.00           2612         417.00      1810.05
   83.70        2983.25           2616         410.00      1779.53
   83.73        2983.50           2619         428.00      1858.01
   83.76        2983.75           2623         390.00      1692.34
   83.79        2984.00           2626         407.00      1766.45
HS scan finished at 01:24:01
end
************************************************************
  HS Scan of (1) Internal mercury lamp
************************************************************
Integration time is 0.2294 seconds per sample
dh250617Reading 51.44 .94 3.6pr1000
************************************************************
Dead Time -------------------------  3.4E-08 
Number of Cycles Used -------------  4 
Starting Wavelength (Angstroms) ---  2950 
Final Wavelength (Angstoms) -------  2984 
Wavelength Increment (Angstroms) --  .25 
Filter Wheel #1 Position ---------- (1) Ground quartz diffuser (ND=2.32)
Filter Wheel #2 Position ---------- (1) Neutral Density 0.494



************************************************************
HS scan start time = 21:07:25
Dark Count =  3.5 


Time (GMT)  Wavelength (Ang)  Step Number  Raw Counts  Counts/Second

 1268.31        2950.00           2144         307.00      1323.08
 1268.50        2950.25           2147         308.00      1327.44
 1268.53        2950.50           2151         303.00      1305.64
 1268.56        2950.75           2155         322.00      1388.47
 1268.59        2951.00           2158         314.00      1353.59
 1268.63        2951.25           2162         336.00      1449.50
 1268.66        2951.50           2165         321.00      1384.11
 1268.69        2951.75           2169         316.00      1362.31
 1268.72        2952.00           2172         340.00      1466.94
 1268.75        2952.25           2176         313.00      1349.23
 1268.78        2952.50           2179         319.00      1375.39
 1268.81        2952.75           2183         325.00      1401.55
 1268.84        2953.00           2186         322.00      1388.47
 1268.87        2953.25           2190         316.00      1362.31
 1268.90        2953.50           2193         337.00      1453.86
 1268.93        2953.75           2197         348.00      1501.82
 1268.96        2954.00           2200         338.00      1458.22
 1268.99        2954.25           2204         337.00      1453.86
 1269.02        2954.50           2208         358.00      1545.42
 1269.05        2954.75           2211         347.00      1497.46
 1269.08        2955.00           2215         344.00      1484.38
 1269.11        2955.25           2218         355.00      1532.34
 1269.15        2955.50           2222         360.00      1554.14
 1269.18        2955.75           2225         347.00      1497.46
 1269.21        2956.00           2229         357.00      1541.06
 1269.24        2956.25           2232         370.00      1597.73
 1269.27        2956.50           2236         387.00      1671.85
 1269.30        2956.75           2239         398.00      1719.80
 1269.33        2957.00           2243         347.00      1497.46
 1269.37        2957.25           2246         398.00      1719.80
 1269.40        2957.50           2250         375.00      1619.53
 1269.43        2957.75           2254         400.00      1728.52
 1269.46        2958.00           2257         391.00      1689.29
 1269.49        2958.25           2261         413.00      1785.20
 1269.52        2958.50           2264         405.00      1750.32
 1269.55        2958.75           2268         409.00      1767.76
 1269.58        2959.00           2271         410.00      1772.12
 1269.61        2959.25           2275         422.00      1824.44
 1269.64        2959.50           2278         416.00      1798.28
 1269.67        2959.75           2282         436.00      1885.47
 1269.70        2960.00           2285         426.00      1841.88
 1269.73        2960.25           2289         449.00      1942.15
 1269.76        2960.50           2293         459.00      1985.75
 1269.79        2960.75           2296         496.00      2147.06
 1269.82        2961.00           2300         527.00      2282.22
 1269.85        2961.25           2303         847.00      3677.44
 1269.89        2961.50           2307        3279.00     14285.49
 1269.92        2961.75           2310        7054.00     30766.69
 1269.95        2962.00           2314       13477.00     58851.30
 1269.98        2962.25           2317       18607.00     81320.88
 1270.01        2962.50           2321       24906.00    108957.80
 1270.04        2962.75           2324       29350.00    128487.30
 1270.07        2963.00           2328       36011.00    157808.30
 1270.10        2963.25           2331       41860.00    183603.40
 1270.13        2963.50           2335       49946.00    219338.90
 1270.16        2963.75           2339       56969.00    250447.50
 1270.19        2964.00           2342       61907.00    272360.10
 1270.22        2964.25           2346       69255.00    305028.10
 1270.25        2964.50           2349       74816.00    329800.00
 1270.28        2964.75           2353       82326.00    363320.50
 1270.31        2965.00           2356       87418.00    386092.30
 1270.34        2965.25           2360       93592.00    413750.50
 1270.37        2965.50           2363       98248.00    434643.10
 1270.41        2965.75           2367      105267.00    466195.70
 1270.44        2966.00           2370      110053.00    487749.50
 1270.47        2966.25           2374      116402.00    516391.50
 1270.50        2966.50           2378      120735.00    535971.10
 1270.53        2966.75           2381      122471.00    543823.00
 1270.56        2967.00           2385      123187.00    547062.60
 1270.59        2967.25           2388      122960.00    546035.50
 1270.62        2967.50           2392      123310.00    547619.30
 1270.65        2967.75           2395      123290.00    547528.80
 1270.68        2968.00           2399      121116.00    537694.00
 1270.71        2968.25           2402      118743.00    526966.50
 1270.74        2968.50           2406      112153.00    497216.90
 1270.77        2968.75           2409      106262.00    470674.10
 1270.80        2969.00           2413       99772.00    441488.20
 1270.83        2969.25           2417       93294.00    412414.30
 1270.86        2969.50           2420       87871.00    388119.90
 1270.89        2969.75           2424       79981.00    352845.50
 1270.93        2970.00           2427       73692.00    324789.60
 1270.96        2970.25           2431       65504.00    288342.60
 1270.99        2970.50           2434       59974.00    263778.40
 1271.02        2970.75           2438       52578.00    230989.70
 1271.05        2971.00           2441       47400.00    208077.60
 1271.08        2971.25           2445       39818.00    174592.60
 1271.12        2971.50           2449       33064.00    144828.70
 1271.15        2971.75           2452       28065.00    122837.60
 1271.18        2972.00           2456       21032.00     91954.44
 1271.21        2972.25           2459       15232.00     66534.40
 1271.24        2972.50           2463        8573.00     37403.69
 1271.27        2972.75           2466        4574.00     19937.23
 1271.30        2973.00           2470        1505.00      6546.79
 1271.33        2973.25           2473         758.00      3289.38
 1271.36        2973.50           2477         509.00      2203.74
 1271.39        2973.75           2481         495.00      2142.70
 1271.42        2974.00           2484         483.00      2090.38
 1271.45        2974.25           2488         441.00      1907.27
 1271.48        2974.50           2491         452.00      1955.23
 1271.51        2974.75           2495         429.00      1854.96
 1271.54        2975.00           2498         424.00      1833.16
 1271.57        2975.25           2502         418.00      1807.00
 1271.60        2975.50           2505         410.00      1772.12
 1271.63        2975.75           2509         392.00      1693.65
 1271.67        2976.00           2512         405.00      1750.32
 1271.70        2976.25           2516         397.00      1715.44
 1271.73        2976.50           2520         375.00      1619.53
 1271.76        2976.75           2523         407.00      1759.04
 1271.79        2977.00           2527         387.00      1671.85
 1271.82        2977.25           2530         388.00      1676.21
 1271.85        2977.50           2534         370.00      1597.73
 1271.88        2977.75           2537         363.00      1567.22
 1271.91        2978.00           2541         352.00      1519.26
 1271.94        2978.25           2544         365.00      1575.93
 1271.98        2978.50           2548         353.00      1523.62
 1272.01        2978.75           2552         360.00      1554.14
 1272.04        2979.00           2555         342.00      1475.66
 1272.07        2979.25           2559         369.00      1593.37
 1272.10        2979.50           2562         343.00      1480.02
 1272.13        2979.75           2566         327.00      1410.27
 1272.16        2980.00           2569         346.00      1493.10
 1272.19        2980.25           2573         336.00      1449.50
 1272.22        2980.50           2577         326.00      1405.91
 1272.25        2980.75           2580         312.00      1344.87
 1272.28        2981.00           2584         309.00      1331.80
 1272.31        2981.25           2587         314.00      1353.59
 1272.35        2981.50           2591         311.00      1340.51
 1272.38        2981.75           2594         307.00      1323.08
 1272.41        2982.00           2598         319.00      1375.39
 1272.44        2982.25           2601         305.00      1314.36
 1272.47        2982.50           2605         298.00      1283.84
 1272.50        2982.75           2609         324.00      1397.19
 1272.53        2983.00           2612         306.00      1318.72
 1272.56        2983.25           2616         290.00      1248.96
 1272.59        2983.50           2619         301.00      1296.92
 1272.62        2983.75           2623         313.00      1349.23
 1272.65        2984.00           2626         309.00      1331.80
HS scan finished at 21:12:52
end
