************************************************************
  HS Scan of (1) Internal mercury lamp
************************************************************
Integration time is 0.2294 seconds per sample
dh250619El Arenosillo 37.1 6.73 3.7pr1000
************************************************************
Dead Time -------------------------  3.2E-08 
Number of Cycles Used -------------  4 
Starting Wavelength (Angstroms) ---  2950 
Final Wavelength (Angstoms) -------  2984 
Wavelength Increment (Angstroms) --  .25 
Filter Wheel #1 Position ---------- (1) Ground quartz diffuser (ND=2.32)
Filter Wheel #2 Position ---------- (1) Neutral Density 0.494



************************************************************
HS scan start time = 01:53:49
Dark Count =  3.9 


Time (GMT)  Wavelength (Ang)  Step Number  Raw Counts  Counts/Second

  114.71        2950.00           2144        1326.00      5764.36
  114.90        2950.25           2147        1343.00      5838.49
  114.93        2950.50           2151        1375.00      5978.04
  114.96        2950.75           2155        1370.00      5956.24
  114.99        2951.00           2158        1362.00      5921.35
  115.02        2951.25           2162        1365.00      5934.43
  115.05        2951.50           2165        1376.00      5982.40
  115.09        2951.75           2169        1380.00      5999.84
  115.12        2952.00           2172        1377.00      5986.76
  115.15        2952.25           2176        1403.00      6100.14
  115.18        2952.50           2179        1388.00      6034.73
  115.21        2952.75           2183        1416.00      6156.84
  115.24        2953.00           2186        1409.00      6126.31
  115.27        2953.25           2190        1448.00      6296.39
  115.30        2953.50           2193        1387.00      6030.37
  115.33        2953.75           2197        1458.00      6340.00
  115.36        2954.00           2200        1475.00      6414.13
  115.39        2954.25           2204        1456.00      6331.27
  115.42        2954.50           2208        1453.00      6318.19
  115.45        2954.75           2211        1468.00      6383.61
  115.48        2955.00           2215        1502.00      6531.88
  115.51        2955.25           2218        1486.00      6462.10
  115.54        2955.50           2222        1485.00      6457.74
  115.57        2955.75           2225        1461.00      6353.08
  115.61        2956.00           2229        1520.00      6610.38
  115.64        2956.25           2232        1489.00      6475.19
  115.67        2956.50           2236        1540.00      6697.60
  115.70        2956.75           2239        1582.00      6880.77
  115.73        2957.00           2243        1568.00      6819.71
  115.76        2957.25           2246        1590.00      6915.66
  115.79        2957.50           2250        1588.00      6906.93
  115.82        2957.75           2254        1619.00      7042.13
  115.85        2958.00           2257        1676.00      7290.72
  115.88        2958.25           2261        1649.00      7172.96
  115.91        2958.50           2264        1675.00      7286.35
  115.94        2958.75           2268        1699.00      7391.02
  115.97        2959.00           2271        1751.00      7617.81
  116.00        2959.25           2275        1754.00      7630.90
  116.03        2959.50           2278        1756.00      7639.62
  116.06        2959.75           2282        1834.00      7979.81
  116.09        2960.00           2285        1826.00      7944.91
  116.13        2960.25           2289        1866.00      8119.37
  116.16        2960.50           2293        1913.00      8324.36
  116.19        2960.75           2296        2033.00      8847.75
  116.22        2961.00           2300        2523.00     10985.12
  116.25        2961.25           2303        5171.00     22540.67
  116.28        2961.50           2307       18653.00     81507.43
  116.31        2961.75           2310       36551.00    160134.50
  116.34        2962.00           2314       65258.00    287080.80
  116.37        2962.25           2317       86929.00    383603.80
  116.40        2962.50           2321      114154.00    505721.20
  116.43        2962.75           2324      133274.00    592062.40
  116.46        2963.00           2328      162679.00    725795.60
  116.49        2963.25           2331      184225.00    824526.80
  116.52        2963.50           2335      212785.00    956380.80
  116.55        2963.75           2339      238428.00   1075739.00
  116.58        2964.00           2342      257576.00   1165474.00
  116.61        2964.25           2346      287695.00   1307696.00
  116.64        2964.50           2349      309551.00   1411734.00
  116.68        2964.75           2353      339232.00   1554166.00
  116.71        2965.00           2356      360466.00   1656886.00
  116.74        2965.25           2360      384636.00   1774661.00
  116.77        2965.50           2363      404836.00   1873797.00
  116.80        2965.75           2367      430553.00   2000956.00
  116.83        2966.00           2370      449579.00   2095724.00
  116.86        2966.25           2374      467334.00   2184701.00
  116.89        2966.50           2378      473600.00   2216229.00
  116.92        2966.75           2381      475973.00   2228186.00
  116.95        2967.00           2385      475965.00   2228145.00
  116.98        2967.25           2388      476712.00   2231912.00
  117.01        2967.50           2392      474186.00   2219181.00
  117.04        2967.75           2395      471551.00   2205912.00
  117.07        2968.00           2399      456309.00   2129389.00
  117.10        2968.25           2402      439609.00   2045989.00
  117.13        2968.50           2406      412471.00   1911437.00
  117.17        2968.75           2409      390959.00   1805622.00
  117.20        2969.00           2413      365710.00   1682361.00
  117.23        2969.25           2417      341224.00   1563773.00
  117.26        2969.50           2420      322508.00   1473748.00
  117.29        2969.75           2424      292699.00   1331453.00
  117.32        2970.00           2427      272360.00   1235119.00
  117.35        2970.25           2431      244664.00   1104905.00
  117.38        2970.50           2434      225208.00   1014089.00
  117.41        2970.75           2438      197581.00    886047.50
  117.44        2971.00           2441      177616.00    794174.90
  117.47        2971.25           2445      149031.00    663580.90
  117.50        2971.50           2449      121012.00    536634.90
  117.53        2971.75           2452       99717.00    440844.50
  117.56        2972.00           2456       72062.00    317321.40
  117.59        2972.25           2459       49508.00    217304.00
  117.62        2972.50           2463       22089.00     96571.29
  117.65        2972.75           2466        9892.00     43163.76
  117.68        2973.00           2470        3766.00     16408.35
  117.72        2973.25           2473        2540.00     11059.28
  117.75        2973.50           2477        2153.00      9371.16
  117.78        2973.75           2481        2015.00      8769.24
  117.81        2974.00           2484        1894.00      8241.49
  117.84        2974.25           2488        1895.00      8245.86
  117.87        2974.50           2491        1885.00      8202.24
  117.90        2974.75           2495        1812.00      7883.86
  117.93        2975.00           2498        1827.00      7949.28
  117.96        2975.25           2502        1720.00      7482.61
  117.99        2975.50           2505        1713.00      7452.08
  118.02        2975.75           2509        1694.00      7369.22
  118.05        2976.00           2512        1675.00      7286.35
  118.08        2976.25           2516        1644.00      7151.16
  118.11        2976.50           2520        1647.00      7164.24
  118.14        2976.75           2523        1609.00      6998.52
  118.17        2977.00           2527        1596.00      6941.82
  118.21        2977.25           2530        1598.00      6950.54
  118.24        2977.50           2534        1556.00      6767.38
  118.27        2977.75           2537        1582.00      6880.77
  118.30        2978.00           2541        1580.00      6872.04
  118.33        2978.25           2544        1537.00      6684.52
  118.36        2978.50           2548        1499.00      6518.80
  118.39        2978.75           2552        1454.00      6322.55
  118.42        2979.00           2555        1465.00      6370.52
  118.45        2979.25           2559        1471.00      6396.69
  118.48        2979.50           2562        1446.00      6287.66
  118.51        2979.75           2566        1433.00      6230.97
  118.54        2980.00           2569        1445.00      6283.30
  118.57        2980.25           2573        1417.00      6161.20
  118.60        2980.50           2577        1396.00      6069.62
  118.63        2980.75           2580        1418.00      6165.56
  118.66        2981.00           2584        1374.00      5973.68
  118.69        2981.25           2587        1393.00      6056.54
  118.72        2981.50           2591        1378.00      5991.12
  118.76        2981.75           2594        1397.00      6073.98
  118.79        2982.00           2598        1374.00      5973.68
  118.82        2982.25           2601        1355.00      5890.82
  118.85        2982.50           2605        1361.00      5916.99
  118.88        2982.75           2609        1353.00      5882.10
  118.91        2983.00           2612        1336.00      5807.97
  118.95        2983.25           2616        1291.00      5611.73
  118.98        2983.50           2619        1345.00      5847.21
  119.01        2983.75           2623        1319.00      5733.83
  119.04        2984.00           2626        1326.00      5764.36
HS scan finished at 01:59:16
end
************************************************************
  HS Scan of (1) Internal mercury lamp
************************************************************
Integration time is 0.2294 seconds per sample
dh250619El Arenosillo 37.1 6.73 3.88pr1000
************************************************************
Dead Time -------------------------  3.2E-08 
Number of Cycles Used -------------  4 
Starting Wavelength (Angstroms) ---  2950 
Final Wavelength (Angstoms) -------  2984 
Wavelength Increment (Angstroms) --  .25 
Filter Wheel #1 Position ---------- (1) Ground quartz diffuser (ND=2.32)
Filter Wheel #2 Position ---------- (1) Neutral Density 0.494



************************************************************
HS scan start time = 20:36:28
Dark Count =  5.8 


Time (GMT)  Wavelength (Ang)  Step Number  Raw Counts  Counts/Second

 1237.36        2950.00           2144        1175.00      5097.61
 1237.55        2950.25           2147        1197.00      5193.54
 1237.58        2950.50           2151        1199.00      5202.26
 1237.61        2950.75           2155        1218.00      5285.11
 1237.64        2951.00           2158        1239.00      5376.69
 1237.67        2951.25           2162        1225.00      5315.64
 1237.70        2951.50           2165        1249.00      5420.30
 1237.73        2951.75           2169        1185.00      5141.21
 1237.77        2952.00           2172        1275.00      5533.67
 1237.80        2952.25           2176        1250.00      5424.66
 1237.83        2952.50           2179        1263.00      5481.34
 1237.86        2952.75           2183        1261.00      5472.62
 1237.89        2953.00           2186        1235.00      5359.25
 1237.92        2953.25           2190        1233.00      5350.52
 1237.95        2953.50           2193        1276.00      5538.03
 1237.98        2953.75           2197        1243.00      5394.13
 1238.01        2954.00           2200        1260.00      5468.26
 1238.04        2954.25           2204        1261.00      5472.62
 1238.07        2954.50           2208        1281.00      5559.84
 1238.10        2954.75           2211        1318.00      5721.19
 1238.13        2955.00           2215        1288.00      5590.36
 1238.16        2955.25           2218        1292.00      5607.81
 1238.19        2955.50           2222        1378.00      5982.84
 1238.24        2955.75           2225        1357.00      5891.26
 1238.27        2956.00           2229        1322.00      5738.63
 1238.30        2956.25           2232        1348.00      5852.01
 1238.33        2956.50           2236        1389.00      6030.81
 1238.36        2956.75           2239        1391.00      6039.53
 1238.39        2957.00           2243        1409.00      6118.02
 1238.42        2957.25           2246        1398.00      6070.05
 1238.45        2957.50           2250        1415.00      6144.19
 1238.48        2957.75           2254        1415.00      6144.19
 1238.51        2958.00           2257        1466.00      6366.60
 1238.55        2958.25           2261        1481.00      6432.01
 1238.58        2958.50           2264        1523.00      6615.18
 1238.61        2958.75           2268        1529.00      6641.34
 1238.64        2959.00           2271        1567.00      6807.06
 1238.67        2959.25           2275        1587.00      6894.28
 1238.70        2959.50           2278        1618.00      7029.48
 1238.73        2959.75           2282        1621.00      7042.56
 1238.76        2960.00           2285        1645.00      7147.23
 1238.79        2960.25           2289        1678.00      7291.15
 1238.82        2960.50           2293        1732.00      7526.66
 1238.85        2960.75           2296        1816.00      7893.01
 1238.88        2961.00           2300        2196.00      9550.43
 1238.91        2961.25           2303        3489.00     15191.34
 1238.94        2961.50           2307       12937.00     56471.63
 1238.97        2961.75           2310       27574.00    120640.10
 1239.00        2962.00           2314       51853.00    227664.80
 1239.04        2962.25           2317       71970.00    316903.70
 1239.07        2962.50           2321       98011.00    433187.60
 1239.10        2962.75           2324      117627.00    521360.10
 1239.13        2963.00           2328      142082.00    631991.10
 1239.16        2963.25           2331      160292.00    714887.80
 1239.19        2963.50           2335      184011.00    823534.30
 1239.22        2963.75           2339      208385.00    935984.70
 1239.25        2964.00           2342      227895.00   1026591.00
 1239.28        2964.25           2346      257710.00   1166095.00
 1239.31        2964.50           2349      277203.00   1257993.00
 1239.34        2964.75           2353      301815.00   1374819.00
 1239.37        2965.00           2356      318156.00   1452881.00
 1239.40        2965.25           2360      343738.00   1575896.00
 1239.43        2965.50           2363      363717.00   1672665.00
 1239.46        2965.75           2367      390655.00   1804123.00
 1239.49        2966.00           2370      407996.00   1889355.00
 1239.52        2966.25           2374      427021.00   1983418.00
 1239.55        2966.50           2378      435360.00   2024833.00
 1239.59        2966.75           2381      437487.00   2035415.00
 1239.62        2967.00           2385      439062.00   2043256.00
 1239.65        2967.25           2388      438546.00   2040686.00
 1239.68        2967.50           2392      438133.00   2038630.00
 1239.71        2967.75           2395      435597.00   2026012.00
 1239.74        2968.00           2399      420877.00   1952977.00
 1239.77        2968.25           2402      404896.00   1874083.00
 1239.80        2968.50           2406      381991.00   1761718.00
 1239.83        2968.75           2409      366446.00   1685931.00
 1239.86        2969.00           2413      342253.00   1568728.00
 1239.89        2969.25           2417      317631.00   1450367.00
 1239.92        2969.50           2420      296328.00   1348696.00
 1239.95        2969.75           2424      269864.00   1223329.00
 1239.98        2970.00           2427      251068.00   1134907.00
 1240.01        2970.25           2431      225680.00   1016277.00
 1240.04        2970.50           2434      206923.00    929216.50
 1240.08        2970.75           2438      180335.00    806646.00
 1240.11        2971.00           2441      160199.00    714463.20
 1240.14        2971.25           2445      135291.00    601190.20
 1240.17        2971.50           2449      109461.00    484593.60
 1240.20        2971.75           2452       89482.00    395006.10
 1240.23        2972.00           2456       61469.00    270257.40
 1240.26        2972.25           2459       41712.00    182872.60
 1240.29        2972.50           2463       18971.00     82892.65
 1240.32        2972.75           2466        8073.00     35206.17
 1240.35        2973.00           2470        2823.00     12285.56
 1240.38        2973.25           2473        2026.00      8808.93
 1240.41        2973.50           2477        1892.00      8224.48
 1240.44        2973.75           2481        1809.00      7862.48
 1240.47        2974.00           2484        1748.00      7596.44
 1240.50        2974.25           2488        1744.00      7579.00
 1240.53        2974.50           2491        1672.00      7264.98
 1240.56        2974.75           2495        1616.00      7020.76
 1240.59        2975.00           2498        1584.00      6881.20
 1240.63        2975.25           2502        1549.00      6728.56
 1240.66        2975.50           2505        1542.00      6698.04
 1240.69        2975.75           2509        1539.00      6684.95
 1240.72        2976.00           2512        1514.00      6575.93
 1240.75        2976.25           2516        1473.00      6397.12
 1240.78        2976.50           2520        1505.00      6536.68
 1240.81        2976.75           2523        1465.00      6362.24
 1240.84        2977.00           2527        1445.00      6275.02
 1240.87        2977.25           2530        1452.00      6305.54
 1240.90        2977.50           2534        1398.00      6070.05
 1240.93        2977.75           2537        1378.00      5982.84
 1240.96        2978.00           2541        1345.00      5838.93
 1240.99        2978.25           2544        1386.00      6017.72
 1241.02        2978.50           2548        1425.00      6187.80
 1241.05        2978.75           2552        1336.00      5799.68
 1241.08        2979.00           2555        1313.00      5699.38
 1241.11        2979.25           2559        1305.00      5664.50
 1241.15        2979.50           2562        1298.00      5633.97
 1241.18        2979.75           2566        1285.00      5577.28
 1241.21        2980.00           2569        1264.00      5485.71
 1241.24        2980.25           2573        1286.00      5581.64
 1241.27        2980.50           2577        1283.00      5568.56
 1241.30        2980.75           2580        1279.00      5551.12
 1241.33        2981.00           2584        1264.00      5485.71
 1241.36        2981.25           2587        1235.00      5359.25
 1241.39        2981.50           2591        1252.00      5433.38
 1241.42        2981.75           2594        1186.00      5145.57
 1241.45        2982.00           2598        1210.00      5250.23
 1241.48        2982.25           2601        1197.00      5193.54
 1241.51        2982.50           2605        1199.00      5202.26
 1241.54        2982.75           2609        1187.00      5149.93
 1241.57        2983.00           2612        1241.00      5385.41
 1241.60        2983.25           2616        1209.00      5245.87
 1241.63        2983.50           2619        1185.00      5141.21
 1241.67        2983.75           2623        1187.00      5149.93
 1241.70        2984.00           2626        1186.00      5145.57
HS scan finished at 20:41:55
end
