************************************************************
  HS Scan of (1) Internal mercury lamp
************************************************************
Integration time is 0.2294 seconds per sample
dh220619El Arenosillo 37.1 6.73 3.76pr1000
************************************************************
Dead Time -------------------------  3.2E-08 
Number of Cycles Used -------------  4 
Starting Wavelength (Angstroms) ---  2950 
Final Wavelength (Angstoms) -------  2984 
Wavelength Increment (Angstroms) --  .25 
Filter Wheel #1 Position ---------- (1) Ground quartz diffuser (ND=2.32)
Filter Wheel #2 Position ---------- (1) Neutral Density 0.494



************************************************************
HS scan start time = 01:48:51
Dark Count =  4.8 


Time (GMT)  Wavelength (Ang)  Step Number  Raw Counts  Counts/Second

  109.75        2950.00           2144        1292.00      5612.17
  109.95        2950.25           2147        1330.00      5777.88
  109.98        2950.50           2151        1314.00      5708.10
  110.01        2950.75           2155        1293.00      5616.53
  110.04        2951.00           2158        1329.00      5773.52
  110.07        2951.25           2162        1357.00      5895.62
  110.10        2951.50           2165        1316.00      5716.83
  110.13        2951.75           2169        1375.00      5974.12
  110.16        2952.00           2172        1364.00      5926.15
  110.19        2952.25           2176        1363.00      5921.78
  110.22        2952.50           2179        1346.00      5847.65
  110.25        2952.75           2183        1369.00      5947.95
  110.28        2953.00           2186        1387.00      6026.45
  110.31        2953.25           2190        1361.00      5913.06
  110.34        2953.50           2193        1359.00      5904.34
  110.37        2953.75           2197        1370.00      5952.31
  110.40        2954.00           2200        1422.00      6179.08
  110.43        2954.25           2204        1424.00      6187.80
  110.47        2954.50           2208        1441.00      6261.93
  110.50        2954.75           2211        1441.00      6261.93
  110.53        2955.00           2215        1426.00      6196.52
  110.56        2955.25           2218        1440.00      6257.57
  110.59        2955.50           2222        1468.00      6379.68
  110.62        2955.75           2225        1446.00      6283.74
  110.65        2956.00           2229        1489.00      6471.26
  110.68        2956.25           2232        1486.00      6458.18
  110.71        2956.50           2236        1488.00      6466.90
  110.74        2956.75           2239        1496.00      6501.79
  110.77        2957.00           2243        1538.00      6684.95
  110.80        2957.25           2246        1542.00      6702.40
  110.83        2957.50           2250        1583.00      6881.20
  110.86        2957.75           2254        1571.00      6828.87
  110.89        2958.00           2257        1597.00      6942.26
  110.92        2958.25           2261        1628.00      7077.45
  110.95        2958.50           2264        1640.00      7129.79
  110.99        2958.75           2268        1655.00      7195.21
  111.02        2959.00           2271        1704.00      7408.91
  111.05        2959.25           2275        1740.00      7565.91
  111.08        2959.50           2278        1750.00      7609.53
  111.11        2959.75           2282        1794.00      7801.42
  111.14        2960.00           2285        1798.00      7818.87
  111.17        2960.25           2289        1820.00      7914.82
  111.20        2960.50           2293        1878.00      8167.78
  111.23        2960.75           2296        1946.00      8464.37
  111.26        2961.00           2300        2456.00     10688.92
  111.29        2961.25           2303        4724.00     20585.49
  111.32        2961.50           2307       16503.00     72085.01
  111.35        2961.75           2310       34353.00    150453.20
  111.38        2962.00           2314       62888.00    276557.00
  111.41        2962.25           2317       81704.00    360272.70
  111.44        2962.50           2321      108251.00    479157.60
  111.47        2962.75           2324      129238.00    573792.60
  111.51        2963.00           2328      157898.00    703968.80
  111.54        2963.25           2331      179847.00    804409.90
  111.57        2963.50           2335      207498.00    931882.60
  111.60        2963.75           2339      231984.00   1045653.00
  111.63        2964.00           2342      250374.00   1131656.00
  111.66        2964.25           2346      276846.00   1256310.00
  111.69        2964.50           2349      298965.00   1361250.00
  111.72        2964.75           2353      328051.00   1500350.00
  111.75        2965.00           2356      346576.00   1589610.00
  111.78        2965.25           2360      371733.00   1711669.00
  111.81        2965.50           2363      390442.00   1803084.00
  111.84        2965.75           2367      415063.00   1924232.00
  111.87        2966.00           2370      435365.00   2024863.00
  111.90        2966.25           2374      458555.00   2140636.00
  111.93        2966.50           2378      468515.00   2190634.00
  111.96        2966.75           2381      471220.00   2204242.00
  111.99        2967.00           2385      471187.00   2204075.00
  112.02        2967.25           2388      471261.00   2204448.00
  112.06        2967.50           2392      471594.00   2206124.00
  112.09        2967.75           2395      469985.00   2198027.00
  112.12        2968.00           2399      461884.00   2157329.00
  112.15        2968.25           2402      447155.00   2083612.00
  112.18        2968.50           2406      420323.00   1950240.00
  112.21        2968.75           2409      401276.00   1856274.00
  112.24        2969.00           2413      374142.00   1723409.00
  112.27        2969.25           2417      347498.00   1594066.00
  112.30        2969.50           2420      327393.00   1497189.00
  112.33        2969.75           2424      300485.00   1368488.00
  112.36        2970.00           2427      278516.00   1264208.00
  112.39        2970.25           2431      248107.00   1121028.00
  112.42        2970.50           2434      227964.00   1026917.00
  112.45        2970.75           2438      199393.00    894408.80
  112.48        2971.00           2441      178593.00    798653.80
  112.51        2971.25           2445      152290.00    678410.30
  112.55        2971.50           2449      121679.00    539640.80
  112.58        2971.75           2452       97320.00    430095.20
  112.61        2972.00           2456       66281.00    291619.80
  112.64        2972.25           2459       46531.00    204146.20
  112.67        2972.50           2463       21606.00     94448.94
  112.70        2972.75           2466        9608.00     41918.44
  112.73        2973.00           2470        3600.00     15680.05
  112.76        2973.25           2473        2443.00     10632.21
  112.79        2973.50           2477        2065.00      8983.40
  112.82        2973.75           2481        1959.00      8521.07
  112.85        2974.00           2484        1925.00      8372.78
  112.88        2974.25           2488        1880.00      8176.51
  112.91        2974.50           2491        1831.00      7962.80
  112.94        2974.75           2495        1783.00      7753.45
  112.97        2975.00           2498        1782.00      7749.09
  113.00        2975.25           2502        1721.00      7483.05
  113.03        2975.50           2505        1688.00      7339.13
  113.07        2975.75           2509        1697.00      7378.38
  113.10        2976.00           2512        1628.00      7077.45
  113.13        2976.25           2516        1651.00      7177.76
  113.16        2976.50           2520        1630.00      7086.18
  113.19        2976.75           2523        1664.00      7234.46
  113.22        2977.00           2527        1544.00      6711.12
  113.25        2977.25           2530        1549.00      6732.92
  113.28        2977.50           2534        1537.00      6680.59
  113.31        2977.75           2537        1488.00      6466.90
  113.34        2978.00           2541        1531.00      6654.42
  113.37        2978.25           2544        1533.00      6663.15
  113.40        2978.50           2548        1495.00      6497.43
  113.43        2978.75           2552        1405.00      6104.94
  113.46        2979.00           2555        1441.00      6261.93
  113.49        2979.25           2559        1443.00      6270.66
  113.52        2979.50           2562        1431.00      6218.32
  113.55        2979.75           2566        1401.00      6087.50
  113.58        2980.00           2569        1422.00      6179.08
  113.62        2980.25           2573        1374.00      5969.75
  113.65        2980.50           2577        1409.00      6122.39
  113.68        2980.75           2580        1356.00      5891.26
  113.71        2981.00           2584        1382.00      6004.64
  113.74        2981.25           2587        1346.00      5847.65
  113.77        2981.50           2591        1386.00      6022.09
  113.80        2981.75           2594        1349.00      5860.73
  113.83        2982.00           2598        1354.00      5882.54
  113.86        2982.25           2601        1332.00      5786.60
  113.89        2982.50           2605        1345.00      5843.29
  113.92        2982.75           2609        1312.00      5699.38
  113.95        2983.00           2612        1271.00      5520.59
  113.98        2983.25           2616        1356.00      5891.26
  114.01        2983.50           2619        1282.00      5568.56
  114.04        2983.75           2623        1323.00      5747.35
  114.07        2984.00           2626        1294.00      5620.89
HS scan finished at 01:54:17
end
************************************************************
  HS Scan of (1) Internal mercury lamp
************************************************************
Integration time is 0.2294 seconds per sample
dh220619El Arenosillo 37.1 6.73 3.6pr1000
************************************************************
Dead Time -------------------------  3.2E-08 
Number of Cycles Used -------------  4 
Starting Wavelength (Angstroms) ---  2950 
Final Wavelength (Angstoms) -------  2984 
Wavelength Increment (Angstroms) --  .25 
Filter Wheel #1 Position ---------- (1) Ground quartz diffuser (ND=2.32)
Filter Wheel #2 Position ---------- (1) Neutral Density 0.494



************************************************************
HS scan start time = 21:27:55
Dark Count =  3 


Time (GMT)  Wavelength (Ang)  Step Number  Raw Counts  Counts/Second

 1288.81        2950.00           2144        1237.00      5380.18
 1289.00        2950.25           2147        1259.00      5476.11
 1289.03        2950.50           2151        1274.00      5541.52
 1289.06        2950.75           2155        1275.00      5545.88
 1289.09        2951.00           2158        1263.00      5493.56
 1289.12        2951.25           2162        1263.00      5493.56
 1289.15        2951.50           2165        1267.00      5511.00
 1289.18        2951.75           2169        1272.00      5532.80
 1289.22        2952.00           2172        1305.00      5676.71
 1289.25        2952.25           2176        1305.00      5676.71
 1289.28        2952.50           2179        1315.00      5720.32
 1289.31        2952.75           2183        1270.00      5524.08
 1289.34        2953.00           2186        1306.00      5681.07
 1289.37        2953.25           2190        1296.00      5637.46
 1289.40        2953.50           2193        1380.00      6003.77
 1289.43        2953.75           2197        1309.00      5694.15
 1289.46        2954.00           2200        1305.00      5676.71
 1289.49        2954.25           2204        1368.00      5951.44
 1289.52        2954.50           2208        1390.00      6047.38
 1289.55        2954.75           2211        1390.00      6047.38
 1289.58        2955.00           2215        1357.00      5903.47
 1289.61        2955.25           2218        1364.00      5934.00
 1289.64        2955.50           2222        1379.00      5999.41
 1289.67        2955.75           2225        1397.00      6077.90
 1289.70        2956.00           2229        1391.00      6051.74
 1289.73        2956.25           2232        1407.00      6121.51
 1289.77        2956.50           2236        1419.00      6173.84
 1289.80        2956.75           2239        1430.00      6221.81
 1289.83        2957.00           2243        1487.00      6470.39
 1289.86        2957.25           2246        1481.00      6444.22
 1289.89        2957.50           2250        1492.00      6492.19
 1289.92        2957.75           2254        1516.00      6596.86
 1289.95        2958.00           2257        1525.00      6636.11
 1289.98        2958.25           2261        1511.00      6575.05
 1290.01        2958.50           2264        1555.00      6766.94
 1290.04        2958.75           2268        1577.00      6862.88
 1290.07        2959.00           2271        1625.00      7072.22
 1290.10        2959.25           2275        1665.00      7246.67
 1290.13        2959.50           2278        1657.00      7211.78
 1290.16        2959.75           2282        1667.00      7255.39
 1290.19        2960.00           2285        1730.00      7530.15
 1290.22        2960.25           2289        1754.00      7634.82
 1290.25        2960.50           2293        1808.00      7870.33
 1290.29        2960.75           2296        1802.00      7844.17
 1290.32        2961.00           2300        2236.00      9737.12
 1290.35        2961.25           2303        4291.00     18703.43
 1290.38        2961.50           2307       15116.00     66019.90
 1290.41        2961.75           2310       30366.00    132922.50
 1290.44        2962.00           2314       54588.00    239779.60
 1290.47        2962.25           2317       72693.00    320132.90
 1290.50        2962.50           2321       97193.00    429534.10
 1290.53        2962.75           2324      116412.00    515896.70
 1290.56        2963.00           2328      143063.00    636458.30
 1290.59        2963.25           2331      162371.00    724393.00
 1290.62        2963.50           2335      187900.00    841434.30
 1290.65        2963.75           2339      210216.00    944478.30
 1290.68        2964.00           2342      227590.00   1025183.00
 1290.71        2964.25           2346      252601.00   1142113.00
 1290.74        2964.50           2349      271998.00   1233414.00
 1290.78        2964.75           2353      298769.00   1360325.00
 1290.81        2965.00           2356      317384.00   1449198.00
 1290.84        2965.25           2360      341886.00   1566971.00
 1290.87        2965.50           2363      358429.00   1647006.00
 1290.90        2965.75           2367      381877.00   1761175.00
 1290.93        2966.00           2370      399577.00   1847929.00
 1290.96        2966.25           2374      419830.00   1947810.00
 1290.99        2966.50           2378      430722.00   2001799.00
 1291.02        2966.75           2381      433912.00   2017648.00
 1291.05        2967.00           2385      434526.00   2020700.00
 1291.08        2967.25           2388      434708.00   2021605.00
 1291.11        2967.50           2392      434253.00   2019343.00
 1291.14        2967.75           2395      433121.00   2013716.00
 1291.17        2968.00           2399      425426.00   1975524.00
 1291.20        2968.25           2402      413448.00   1916265.00
 1291.23        2968.50           2406      388036.00   1791306.00
 1291.26        2968.75           2409      370826.00   1707260.00
 1291.30        2969.00           2413      345952.00   1586604.00
 1291.33        2969.25           2417      322635.00   1474361.00
 1291.36        2969.50           2420      304372.00   1387021.00
 1291.39        2969.75           2424      277805.00   1260853.00
 1291.42        2970.00           2427      257691.00   1166018.00
 1291.45        2970.25           2431      230603.00   1039222.00
 1291.48        2970.50           2434      210843.00    947383.40
 1291.51        2970.75           2438      185987.00    832633.00
 1291.54        2971.00           2441      165717.00    739682.80
 1291.57        2971.25           2445      140217.00    623538.90
 1291.60        2971.50           2449      113176.00    501321.70
 1291.63        2971.75           2452       91673.00    404818.00
 1291.66        2972.00           2456       62491.00    274803.50
 1291.69        2972.25           2459       43720.00    191744.00
 1291.72        2972.50           2463       21164.00     92518.50
 1291.75        2972.75           2466        9675.00     42219.17
 1291.78        2973.00           2470        3508.00     15286.46
 1291.82        2973.25           2473        2297.00     10003.20
 1291.85        2973.50           2477        1972.00      8585.62
 1291.88        2973.75           2481        1843.00      8022.98
 1291.91        2974.00           2484        1802.00      7844.17
 1291.94        2974.25           2488        1766.00      7687.16
 1291.97        2974.50           2491        1729.00      7525.79
 1292.00        2974.75           2495        1658.00      7216.14
 1292.03        2975.00           2498        1648.00      7172.53
 1292.06        2975.25           2502        1616.00      7032.97
 1292.09        2975.50           2505        1603.00      6976.27
 1292.12        2975.75           2509        1591.00      6923.94
 1292.15        2976.00           2512        1585.00      6897.77
 1292.18        2976.25           2516        1581.00      6880.33
 1292.21        2976.50           2520        1553.00      6758.22
 1292.24        2976.75           2523        1498.00      6518.36
 1292.27        2977.00           2527        1485.00      6461.67
 1292.30        2977.25           2530        1481.00      6444.22
 1292.33        2977.50           2534        1485.00      6461.67
 1292.37        2977.75           2537        1485.00      6461.67
 1292.40        2978.00           2541        1383.00      6016.85
 1292.43        2978.25           2544        1393.00      6060.46
 1292.46        2978.50           2548        1398.00      6082.26
 1292.49        2978.75           2552        1373.00      5973.24
 1292.52        2979.00           2555        1372.00      5968.88
 1292.55        2979.25           2559        1342.00      5838.06
 1292.58        2979.50           2562        1346.00      5855.50
 1292.61        2979.75           2566        1351.00      5877.30
 1292.64        2980.00           2569        1331.00      5790.09
 1292.67        2980.25           2573        1303.00      5667.99
 1292.70        2980.50           2577        1304.00      5672.35
 1292.73        2980.75           2580        1289.00      5606.93
 1292.76        2981.00           2584        1278.00      5558.97
 1292.79        2981.25           2587        1285.00      5589.49
 1292.82        2981.50           2591        1284.00      5585.13
 1292.85        2981.75           2594        1288.00      5602.57
 1292.89        2982.00           2598        1246.00      5419.42
 1292.92        2982.25           2601        1272.00      5532.80
 1292.95        2982.50           2605        1251.00      5441.23
 1292.98        2982.75           2609        1258.00      5471.75
 1293.01        2983.00           2612        1233.00      5362.73
 1293.04        2983.25           2616        1226.00      5332.21
 1293.07        2983.50           2619        1235.00      5371.46
 1293.10        2983.75           2623        1242.00      5401.98
 1293.13        2984.00           2626        1226.00      5332.21
HS scan finished at 21:33:21
end
