************************************************************
  HS Scan of (1) Internal mercury lamp
************************************************************
Integration time is 0.2294 seconds per sample
dh190618Reading 51.44 .94 3.64pr1000
************************************************************
Dead Time -------------------------  3.4E-08 
Number of Cycles Used -------------  4 
Starting Wavelength (Angstroms) ---  2950 
Final Wavelength (Angstoms) -------  2984 
Wavelength Increment (Angstroms) --  .25 
Filter Wheel #1 Position ---------- (1) Ground quartz diffuser (ND=2.32)
Filter Wheel #2 Position ---------- (1) Neutral Density 0.494



************************************************************
HS scan start time = 01:17:21
Dark Count =  3.1 


Time (GMT)  Wavelength (Ang)  Step Number  Raw Counts  Counts/Second

   78.26        2950.00           2144          56.00       230.60
   78.45        2950.25           2147          51.00       208.81
   78.48        2950.50           2151          51.00       208.81
   78.51        2950.75           2155          52.00       213.17
   78.54        2951.00           2158          59.00       243.68
   78.57        2951.25           2162          53.00       217.53
   78.60        2951.50           2165          61.00       252.40
   78.63        2951.75           2169          63.00       261.12
   78.67        2952.00           2172          51.00       208.81
   78.70        2952.25           2176          59.00       243.68
   78.73        2952.50           2179          57.00       234.96
   78.76        2952.75           2183          53.00       217.53
   78.79        2953.00           2186          53.00       217.53
   78.82        2953.25           2190          60.00       248.04
   78.85        2953.50           2193          62.00       256.76
   78.88        2953.75           2197          58.00       239.32
   78.91        2954.00           2200          56.00       230.60
   78.94        2954.25           2204          61.00       252.40
   78.97        2954.50           2208          58.00       239.32
   79.00        2954.75           2211          58.00       239.32
   79.03        2955.00           2215          64.00       265.48
   79.06        2955.25           2218          66.00       274.20
   79.09        2955.50           2222          58.00       239.32
   79.12        2955.75           2225          61.00       252.40
   79.15        2956.00           2229          61.00       252.40
   79.19        2956.25           2232          57.00       234.96
   79.22        2956.50           2236          66.00       274.20
   79.25        2956.75           2239          63.00       261.12
   79.28        2957.00           2243          66.00       274.20
   79.31        2957.25           2246          60.00       248.04
   79.34        2957.50           2250          75.00       313.43
   79.37        2957.75           2254          75.00       313.43
   79.40        2958.00           2257          66.00       274.20
   79.43        2958.25           2261          67.00       278.56
   79.46        2958.50           2264          78.00       326.51
   79.49        2958.75           2268          71.00       295.99
   79.52        2959.00           2271          71.00       295.99
   79.55        2959.25           2275          69.00       287.27
   79.58        2959.50           2278          76.00       317.79
   79.61        2959.75           2282          76.00       317.79
   79.64        2960.00           2285          68.00       282.91
   79.67        2960.25           2289          84.00       352.66
   79.71        2960.50           2293          92.00       387.54
   79.74        2960.75           2296          83.00       348.30
   79.77        2961.00           2300         128.00       544.47
   79.80        2961.25           2303         288.00      1241.99
   79.83        2961.50           2307         917.00      3984.41
   79.86        2961.75           2310        1611.00      7010.83
   79.89        2962.00           2314        2632.00     11464.36
   79.92        2962.25           2317        3528.00     15373.77
   79.95        2962.50           2321        4562.00     19886.59
   79.98        2962.75           2324        5368.00     23405.28
   80.01        2963.00           2328        6451.00     28134.57
   80.04        2963.25           2331        7377.00     32179.48
   80.07        2963.50           2335        8560.00     37348.62
   80.10        2963.75           2339       10018.00     43721.88
   80.14        2964.00           2342       10802.00     47150.08
   80.17        2964.25           2346       11946.00     52153.87
   80.20        2964.50           2349       12635.00     55168.34
   80.23        2964.75           2353       13832.00     60406.85
   80.26        2965.00           2356       14749.00     64421.25
   80.29        2965.25           2360       15947.00     69667.45
   80.32        2965.50           2363       16704.00     72983.41
   80.35        2965.75           2367       17741.00     77527.11
   80.38        2966.00           2370       18744.00     81923.16
   80.42        2966.25           2374       19690.00     86070.60
   80.45        2966.50           2378       20145.00     88065.83
   80.48        2966.75           2381       20390.00     89140.30
   80.51        2967.00           2385       20293.00     88714.88
   80.54        2967.25           2388       20160.00     88131.61
   80.57        2967.50           2392       20157.00     88118.46
   80.60        2967.75           2395       20000.00     87429.96
   80.63        2968.00           2399       19317.00     84435.18
   80.66        2968.25           2402       18619.00     81375.23
   80.69        2968.50           2406       17658.00     77163.38
   80.72        2968.75           2409       16653.00     72759.99
   80.75        2969.00           2413       15158.00     66212.10
   80.78        2969.25           2417       13845.00     60463.76
   80.81        2969.50           2420       12905.00     56349.80
   80.84        2969.75           2424       11815.00     51580.80
   80.87        2970.00           2427       10888.00     47526.17
   80.90        2970.25           2431        9652.00     42121.75
   80.93        2970.50           2434        8807.00     38428.12
   80.97        2970.75           2438        7697.00     33577.55
   81.00        2971.00           2441        6786.00     29597.77
   81.03        2971.25           2445        5588.00     24365.86
   81.06        2971.50           2449        4521.00     19707.62
   81.09        2971.75           2452        3654.00     15923.62
   81.12        2972.00           2456        2635.00     11477.45
   81.15        2972.25           2459        1883.00      8197.14
   81.18        2972.50           2463         885.00      3844.88
   81.21        2972.75           2466         385.00      1664.87
   81.24        2973.00           2470         134.00       570.63
   81.27        2973.25           2473          94.00       396.26
   81.30        2973.50           2477         110.00       466.01
   81.33        2973.75           2481          85.00       357.02
   81.36        2974.00           2484          82.00       343.94
   81.39        2974.25           2488          90.00       378.82
   81.42        2974.50           2491         106.00       448.57
   81.45        2974.75           2495          72.00       300.35
   81.49        2975.00           2498          79.00       330.87
   81.52        2975.25           2502          85.00       357.02
   81.55        2975.50           2505          82.00       343.94
   81.58        2975.75           2509          81.00       339.59
   81.61        2976.00           2512          80.00       335.23
   81.64        2976.25           2516          71.00       295.99
   81.67        2976.50           2520          69.00       287.27
   81.70        2976.75           2523          74.00       309.07
   81.73        2977.00           2527          75.00       313.43
   81.76        2977.25           2530          64.00       265.48
   81.79        2977.50           2534          74.00       309.07
   81.82        2977.75           2537          72.00       300.35
   81.85        2978.00           2541          70.00       291.63
   81.88        2978.25           2544          70.00       291.63
   81.91        2978.50           2548          68.00       282.91
   81.94        2978.75           2552          64.00       265.48
   81.97        2979.00           2555          64.00       265.48
   82.01        2979.25           2559          67.00       278.56
   82.04        2979.50           2562          68.00       282.91
   82.07        2979.75           2566          72.00       300.35
   82.10        2980.00           2569          64.00       265.48
   82.13        2980.25           2573          67.00       278.56
   82.16        2980.50           2577          66.00       274.20
   82.19        2980.75           2580          63.00       261.12
   82.22        2981.00           2584          70.00       291.63
   82.25        2981.25           2587          58.00       239.32
   82.28        2981.50           2591          66.00       274.20
   82.31        2981.75           2594          63.00       261.12
   82.34        2982.00           2598          63.00       261.12
   82.37        2982.25           2601          57.00       234.96
   82.40        2982.50           2605          65.00       269.84
   82.43        2982.75           2609          59.00       243.68
   82.46        2983.00           2612          61.00       252.40
   82.49        2983.25           2616          51.00       208.81
   82.53        2983.50           2619          65.00       269.84
   82.56        2983.75           2623          65.00       269.84
   82.59        2984.00           2626          61.00       252.40
HS scan finished at 01:22:49
end
************************************************************
  HS Scan of (1) Internal mercury lamp
************************************************************
Integration time is 0.2294 seconds per sample
dh190618Reading 51.44 .94 3.84pr1000
************************************************************
Dead Time -------------------------  3.4E-08 
Number of Cycles Used -------------  4 
Starting Wavelength (Angstroms) ---  2950 
Final Wavelength (Angstoms) -------  2984 
Wavelength Increment (Angstroms) --  .25 
Filter Wheel #1 Position ---------- (1) Ground quartz diffuser (ND=2.32)
Filter Wheel #2 Position ---------- (1) Neutral Density 0.494



************************************************************
HS scan start time = 21:07:26
Dark Count =  5.6 


Time (GMT)  Wavelength (Ang)  Step Number  Raw Counts  Counts/Second

 1268.33        2950.00           2144          72.00       289.45
 1268.52        2950.25           2147          62.00       245.86
 1268.55        2950.50           2151          62.00       245.86
 1268.58        2950.75           2155          63.00       250.22
 1268.61        2951.00           2158          67.00       267.66
 1268.64        2951.25           2162          76.00       306.89
 1268.67        2951.50           2165          67.00       267.66
 1268.70        2951.75           2169          71.00       285.09
 1268.73        2952.00           2172          65.00       258.94
 1268.76        2952.25           2176          68.00       272.02
 1268.79        2952.50           2179          67.00       267.66
 1268.83        2952.75           2183          66.00       263.30
 1268.86        2953.00           2186          64.00       254.58
 1268.89        2953.25           2190          72.00       289.45
 1268.92        2953.50           2193          70.00       280.74
 1268.95        2953.75           2197          69.00       276.38
 1268.98        2954.00           2200          71.00       285.09
 1269.01        2954.25           2204          66.00       263.30
 1269.04        2954.50           2208          74.00       298.17
 1269.07        2954.75           2211          67.00       267.66
 1269.10        2955.00           2215          59.00       232.78
 1269.13        2955.25           2218          66.00       263.30
 1269.16        2955.50           2222          67.00       267.66
 1269.19        2955.75           2225          68.00       272.02
 1269.22        2956.00           2229          68.00       272.02
 1269.25        2956.25           2232          70.00       280.74
 1269.28        2956.50           2236          81.00       328.69
 1269.31        2956.75           2239          75.00       302.53
 1269.35        2957.00           2243          79.00       319.97
 1269.38        2957.25           2246          80.00       324.33
 1269.41        2957.50           2250          80.00       324.33
 1269.44        2957.75           2254          78.00       315.61
 1269.47        2958.00           2257          84.00       341.77
 1269.50        2958.25           2261          78.00       315.61
 1269.53        2958.50           2264          83.00       337.41
 1269.56        2958.75           2268          89.00       363.56
 1269.59        2959.00           2271          89.00       363.56
 1269.62        2959.25           2275          88.00       359.20
 1269.65        2959.50           2278          87.00       354.84
 1269.68        2959.75           2282          79.00       319.97
 1269.71        2960.00           2285          88.00       359.20
 1269.74        2960.25           2289          94.00       385.36
 1269.77        2960.50           2293         113.00       468.19
 1269.80        2960.75           2296          91.00       372.28
 1269.83        2961.00           2300         156.00       655.64
 1269.87        2961.25           2303         413.00      1776.04
 1269.90        2961.50           2307        1228.00      5329.65
 1269.93        2961.75           2310        1984.00      8626.77
 1269.96        2962.00           2314        3166.00     13783.27
 1269.99        2962.25           2317        4060.00     17684.56
 1270.02        2962.50           2321        5482.00     23892.11
 1270.05        2962.75           2324        6485.00     28272.15
 1270.08        2963.00           2328        7834.00     34165.21
 1270.11        2963.25           2331        8939.00     38994.13
 1270.14        2963.50           2335       10557.00     46067.74
 1270.17        2963.75           2339       11988.00     52326.67
 1270.20        2964.00           2342       13020.00     56842.10
 1270.23        2964.25           2346       14431.00     63018.06
 1270.26        2964.50           2349       15411.00     67309.05
 1270.29        2964.75           2353       16700.00     72954.93
 1270.32        2965.00           2356       17721.00     77428.51
 1270.35        2965.25           2360       19092.00     83437.77
 1270.39        2965.50           2363       20123.00     87958.38
 1270.42        2965.75           2367       21374.00     93445.50
 1270.45        2966.00           2370       22216.00     97139.83
 1270.48        2966.25           2374       23491.00    102735.70
 1270.51        2966.50           2378       23838.00    104259.10
 1270.54        2966.75           2381       24084.00    105339.10
 1270.57        2967.00           2385       24104.00    105426.90
 1270.60        2967.25           2388       24157.00    105659.60
 1270.63        2967.50           2392       24089.00    105361.10
 1270.66        2967.75           2395       24039.00    105141.50
 1270.69        2968.00           2399       23112.00    101072.10
 1270.72        2968.25           2402       22449.00     98162.30
 1270.75        2968.50           2406       21172.00     92559.36
 1270.78        2968.75           2409       19988.00     87366.38
 1270.81        2969.00           2413       18473.00     80724.31
 1270.84        2969.25           2417       17083.00     74632.91
 1270.87        2969.50           2420       15894.00     69424.36
 1270.91        2969.75           2424       14656.00     64003.12
 1270.94        2970.00           2427       13535.00     59095.96
 1270.97        2970.25           2431       12115.00     52882.27
 1271.00        2970.50           2434       10974.00     47891.35
 1271.03        2970.75           2438        9513.00     41503.17
 1271.06        2971.00           2441        8404.00     36655.95
 1271.09        2971.25           2445        7075.00     30849.26
 1271.12        2971.50           2449        5840.00     25455.33
 1271.15        2971.75           2452        4752.00     20705.07
 1271.18        2972.00           2456        3327.00     14485.77
 1271.21        2972.25           2459        2213.00      9625.64
 1271.24        2972.50           2463        1043.00      4522.93
 1271.27        2972.75           2466         509.00      2194.58
 1271.30        2973.00           2470         159.00       668.72
 1271.33        2973.25           2473         127.00       529.22
 1271.36        2973.50           2477         124.00       516.14
 1271.40        2973.75           2481          96.00       394.08
 1271.43        2974.00           2484         100.00       411.51
 1271.46        2974.25           2488          96.00       394.08
 1271.49        2974.50           2491          89.00       363.56
 1271.52        2974.75           2495          93.00       381.00
 1271.55        2975.00           2498          85.00       346.12
 1271.58        2975.25           2502          91.00       372.28
 1271.61        2975.50           2505          85.00       346.12
 1271.64        2975.75           2509          85.00       346.12
 1271.67        2976.00           2512          81.00       328.69
 1271.70        2976.25           2516          77.00       311.25
 1271.73        2976.50           2520          76.00       306.89
 1271.76        2976.75           2523          81.00       328.69
 1271.79        2977.00           2527          82.00       333.05
 1271.82        2977.25           2530          83.00       337.41
 1271.85        2977.50           2534          78.00       315.61
 1271.88        2977.75           2537          73.00       293.81
 1271.91        2978.00           2541          82.00       333.05
 1271.95        2978.25           2544          86.00       350.48
 1271.98        2978.50           2548          70.00       280.74
 1272.01        2978.75           2552          75.00       302.53
 1272.04        2979.00           2555          83.00       337.41
 1272.07        2979.25           2559          66.00       263.30
 1272.10        2979.50           2562          76.00       306.89
 1272.13        2979.75           2566          69.00       276.38
 1272.16        2980.00           2569          70.00       280.74
 1272.19        2980.25           2573          69.00       276.38
 1272.22        2980.50           2577          72.00       289.45
 1272.26        2980.75           2580          66.00       263.30
 1272.29        2981.00           2584          71.00       285.09
 1272.32        2981.25           2587          72.00       289.45
 1272.35        2981.50           2591          70.00       280.74
 1272.38        2981.75           2594          62.00       245.86
 1272.41        2982.00           2598          66.00       263.30
 1272.44        2982.25           2601          68.00       272.02
 1272.47        2982.50           2605          69.00       276.38
 1272.50        2982.75           2609          68.00       272.02
 1272.53        2983.00           2612          68.00       272.02
 1272.56        2983.25           2616          66.00       263.30
 1272.59        2983.50           2619          70.00       280.74
 1272.62        2983.75           2623          70.00       280.74
 1272.66        2984.00           2626          64.00       254.58
HS scan finished at 21:12:53
end
