************************************************************
  HS Scan of (1) Internal mercury lamp
************************************************************
Integration time is 0.2294 seconds per sample
dh260618Reading 51.44 .94 3.64pr1000
************************************************************
Dead Time -------------------------  3.4E-08 
Number of Cycles Used -------------  4 
Starting Wavelength (Angstroms) ---  2950 
Final Wavelength (Angstoms) -------  2984 
Wavelength Increment (Angstroms) --  .25 
Filter Wheel #1 Position ---------- (1) Ground quartz diffuser (ND=2.32)
Filter Wheel #2 Position ---------- (1) Neutral Density 0.494



************************************************************
HS scan start time = 01:18:48
Dark Count =  3.6 


Time (GMT)  Wavelength (Ang)  Step Number  Raw Counts  Counts/Second

   79.70        2950.00           2144          63.00       258.94
   79.89        2950.25           2147          59.00       241.50
   79.92        2950.50           2151          59.00       241.50
   79.96        2950.75           2155          68.00       280.74
   79.99        2951.00           2158          62.00       254.58
   80.02        2951.25           2162          59.00       241.50
   80.05        2951.50           2165          59.00       241.50
   80.08        2951.75           2169          61.00       250.22
   80.11        2952.00           2172          62.00       254.58
   80.14        2952.25           2176          63.00       258.94
   80.17        2952.50           2179          61.00       250.22
   80.20        2952.75           2183          56.00       228.42
   80.23        2953.00           2186          59.00       241.50
   80.26        2953.25           2190          64.00       263.30
   80.29        2953.50           2193          64.00       263.30
   80.32        2953.75           2197          68.00       280.74
   80.35        2954.00           2200          60.00       245.86
   80.38        2954.25           2204          68.00       280.74
   80.41        2954.50           2208          72.00       298.17
   80.44        2954.75           2211          66.00       272.02
   80.47        2955.00           2215          68.00       280.74
   80.51        2955.25           2218          70.00       289.45
   80.54        2955.50           2222          73.00       302.53
   80.57        2955.75           2225          63.00       258.94
   80.60        2956.00           2229          68.00       280.74
   80.63        2956.25           2232          73.00       302.53
   80.66        2956.50           2236          69.00       285.09
   80.69        2956.75           2239          70.00       289.45
   80.72        2957.00           2243          78.00       324.33
   80.75        2957.25           2246          81.00       337.41
   80.78        2957.50           2250          69.00       285.09
   80.81        2957.75           2254          73.00       302.53
   80.84        2958.00           2257          75.00       311.25
   80.87        2958.25           2261          78.00       324.33
   80.90        2958.50           2264          77.00       319.97
   80.93        2958.75           2268          77.00       319.97
   80.96        2959.00           2271          78.00       324.33
   80.99        2959.25           2275          78.00       324.33
   81.03        2959.50           2278          80.00       333.05
   81.06        2959.75           2282          83.00       346.12
   81.09        2960.00           2285          94.00       394.08
   81.12        2960.25           2289          89.00       372.28
   81.15        2960.50           2293         104.00       437.67
   81.18        2960.75           2296          95.00       398.44
   81.21        2961.00           2300         140.00       594.61
   81.24        2961.25           2303         401.00      1732.45
   81.27        2961.50           2307        1186.00      5155.22
   81.30        2961.75           2310        1951.00      8491.55
   81.33        2962.00           2314        3166.00     13791.99
   81.36        2962.25           2317        4173.00     18186.48
   81.39        2962.50           2321        5481.00     23896.48
   81.42        2962.75           2324        6563.00     28621.56
   81.45        2963.00           2328        7967.00     34755.08
   81.48        2963.25           2331        8856.00     38640.10
   81.51        2963.50           2335       10483.00     45752.90
   81.55        2963.75           2339       12215.00     53328.53
   81.58        2964.00           2342       13265.00     57923.03
   81.61        2964.25           2346       14980.00     65430.49
   81.64        2964.50           2349       15995.00     69875.50
   81.67        2964.75           2353       17193.00     75123.65
   81.70        2965.00           2356       18184.00     79466.38
   81.73        2965.25           2360       19383.00     84722.34
   81.76        2965.50           2363       20328.00     88866.19
   81.79        2965.75           2367       21934.00     95911.22
   81.82        2966.00           2370       22664.00     99114.61
   81.85        2966.25           2374       23694.00    103635.70
   81.88        2966.50           2378       24163.00    105694.80
   81.91        2966.75           2381       23960.00    104803.50
   81.94        2967.00           2385       23979.00    104886.90
   81.97        2967.25           2388       24197.00    105844.00
   82.00        2967.50           2392       24013.00    105036.20
   82.03        2967.75           2395       23609.00    103262.50
   82.07        2968.00           2399       22783.00     99636.88
   82.10        2968.25           2402       21563.00     94283.46
   82.13        2968.50           2406       20295.00     88721.47
   82.16        2968.75           2409       19332.00     84498.74
   82.19        2969.00           2413       18209.00     79575.96
   82.22        2969.25           2417       16571.00     72398.57
   82.25        2969.50           2420       15906.00     69485.68
   82.28        2969.75           2424       14358.00     62707.23
   82.31        2970.00           2427       13105.00     57222.83
   82.34        2970.25           2431       11726.00     51189.28
   82.37        2970.50           2434       10649.00     46478.80
   82.40        2970.75           2438        9227.00     40261.70
   82.43        2971.00           2441        8274.00     36096.59
   82.46        2971.25           2445        6968.00     30390.59
   82.49        2971.50           2449        5507.00     24010.01
   82.52        2971.75           2452        4444.00     19369.33
   82.55        2972.00           2456        3050.00     13285.86
   82.59        2972.25           2459        2159.00      9398.82
   82.62        2972.50           2463        1170.00      5085.45
   82.65        2972.75           2466         565.00      2447.46
   82.68        2973.00           2470         180.00       768.98
   82.71        2973.25           2473         129.00       546.65
   82.74        2973.50           2477         104.00       437.67
   82.77        2973.75           2481         108.00       455.11
   82.80        2974.00           2484          97.00       407.15
   82.83        2974.25           2488          83.00       346.12
   82.86        2974.50           2491          96.00       402.80
   82.89        2974.75           2495          89.00       372.28
   82.92        2975.00           2498          90.00       376.64
   82.95        2975.25           2502          85.00       354.84
   82.98        2975.50           2505          78.00       324.33
   83.01        2975.75           2509          80.00       333.05
   83.04        2976.00           2512          79.00       328.69
   83.07        2976.25           2516          81.00       337.41
   83.10        2976.50           2520          80.00       333.05
   83.14        2976.75           2523          73.00       302.53
   83.17        2977.00           2527          76.00       315.61
   83.20        2977.25           2530          79.00       328.69
   83.23        2977.50           2534          71.00       293.81
   83.26        2977.75           2537          76.00       315.61
   83.29        2978.00           2541          70.00       289.45
   83.32        2978.25           2544          82.00       341.77
   83.35        2978.50           2548          73.00       302.53
   83.38        2978.75           2552          67.00       276.38
   83.41        2979.00           2555          69.00       285.09
   83.44        2979.25           2559          68.00       280.74
   83.47        2979.50           2562          67.00       276.38
   83.50        2979.75           2566          66.00       272.02
   83.53        2980.00           2569          75.00       311.25
   83.56        2980.25           2573          63.00       258.94
   83.59        2980.50           2577          75.00       311.25
   83.62        2980.75           2580          74.00       306.89
   83.66        2981.00           2584          72.00       298.17
   83.69        2981.25           2587          65.00       267.66
   83.72        2981.50           2591          65.00       267.66
   83.75        2981.75           2594          65.00       267.66
   83.78        2982.00           2598          65.00       267.66
   83.81        2982.25           2601          65.00       267.66
   83.84        2982.50           2605          69.00       285.09
   83.87        2982.75           2609          64.00       263.30
   83.90        2983.00           2612          65.00       267.66
   83.93        2983.25           2616          64.00       263.30
   83.96        2983.50           2619          72.00       298.17
   83.99        2983.75           2623          66.00       272.02
   84.02        2984.00           2626          60.00       245.86
HS scan finished at 01:24:15
end
************************************************************
  HS Scan of (1) Internal mercury lamp
************************************************************
Integration time is 0.2294 seconds per sample
dh260618Reading 51.44 .94 4pr1000
************************************************************
Dead Time -------------------------  3.4E-08 
Number of Cycles Used -------------  4 
Starting Wavelength (Angstroms) ---  2950 
Final Wavelength (Angstoms) -------  2984 
Wavelength Increment (Angstroms) --  .25 
Filter Wheel #1 Position ---------- (1) Ground quartz diffuser (ND=2.32)
Filter Wheel #2 Position ---------- (1) Neutral Density 0.494



************************************************************
HS scan start time = 21:07:25
Dark Count =  9.8 


Time (GMT)  Wavelength (Ang)  Step Number  Raw Counts  Counts/Second

 1268.31        2950.00           2144          53.00       188.32
 1268.51        2950.25           2147          50.00       175.24
 1268.54        2950.50           2151          55.00       197.04
 1268.57        2950.75           2155          45.00       153.44
 1268.60        2951.00           2158          54.00       192.68
 1268.63        2951.25           2162          51.00       179.60
 1268.66        2951.50           2165          49.00       170.88
 1268.69        2951.75           2169          50.00       175.24
 1268.72        2952.00           2172          49.00       170.88
 1268.75        2952.25           2176          50.00       175.24
 1268.78        2952.50           2179          49.00       170.88
 1268.81        2952.75           2183          47.00       162.16
 1268.84        2953.00           2186          48.00       166.52
 1268.87        2953.25           2190          49.00       170.88
 1268.91        2953.50           2193          49.00       170.88
 1268.94        2953.75           2197          53.00       188.32
 1268.97        2954.00           2200          51.00       179.60
 1269.00        2954.25           2204          55.00       197.04
 1269.03        2954.50           2208          56.00       201.40
 1269.06        2954.75           2211          52.00       183.96
 1269.09        2955.00           2215          50.00       175.24
 1269.12        2955.25           2218          52.00       183.96
 1269.15        2955.50           2222          50.00       175.24
 1269.18        2955.75           2225          51.00       179.60
 1269.21        2956.00           2229          60.00       218.83
 1269.24        2956.25           2232          50.00       175.24
 1269.27        2956.50           2236          50.00       175.24
 1269.30        2956.75           2239          51.00       179.60
 1269.33        2957.00           2243          52.00       183.96
 1269.36        2957.25           2246          54.00       192.68
 1269.39        2957.50           2250          60.00       218.83
 1269.43        2957.75           2254          60.00       218.83
 1269.46        2958.00           2257          57.00       205.76
 1269.49        2958.25           2261          54.00       192.68
 1269.52        2958.50           2264          63.00       231.91
 1269.55        2958.75           2268          59.00       214.47
 1269.58        2959.00           2271          57.00       205.76
 1269.61        2959.25           2275          65.00       240.63
 1269.64        2959.50           2278          61.00       223.19
 1269.67        2959.75           2282          55.00       197.04
 1269.70        2960.00           2285          63.00       231.91
 1269.73        2960.25           2289          60.00       218.83
 1269.76        2960.50           2293          66.00       244.99
 1269.79        2960.75           2296          66.00       244.99
 1269.82        2961.00           2300          78.00       297.30
 1269.85        2961.25           2303         154.00       628.61
 1269.88        2961.50           2307         648.00      2782.30
 1269.91        2961.75           2310        1205.00      5211.04
 1269.95        2962.00           2314        1989.00      8630.26
 1269.98        2962.25           2317        2616.00     11365.33
 1270.01        2962.50           2321        3497.00     15209.26
 1270.04        2962.75           2324        4206.00     18303.46
 1270.07        2963.00           2328        5152.00     22432.97
 1270.10        2963.25           2331        5871.00     25572.36
 1270.13        2963.50           2335        6767.00     29485.52
 1270.16        2963.75           2339        7716.00     33631.29
 1270.19        2964.00           2342        8262.00     36017.06
 1270.22        2964.25           2346        9357.00     40802.87
 1270.25        2964.50           2349       10027.00     43731.94
 1270.28        2964.75           2353       10936.00     47706.79
 1270.31        2965.00           2356       11658.00     50864.71
 1270.34        2965.25           2360       12394.00     54084.55
 1270.37        2965.50           2363       13369.00     58351.05
 1270.40        2965.75           2367       14314.00     62487.46
 1270.43        2966.00           2370       15476.00     67575.31
 1270.47        2966.25           2374       16074.00     70194.36
 1270.50        2966.50           2378       16664.00     72778.82
 1270.53        2966.75           2381       16811.00     73422.82
 1270.56        2967.00           2385       16871.00     73685.68
 1270.59        2967.25           2388       16990.00     74207.05
 1270.62        2967.50           2392       16926.00     73926.65
 1270.65        2967.75           2395       16689.00     72888.34
 1270.68        2968.00           2399       16033.00     70014.78
 1270.71        2968.25           2402       15495.00     67658.52
 1270.74        2968.50           2406       14560.00     63564.43
 1270.77        2968.75           2409       13995.00     61091.02
 1270.80        2969.00           2413       12832.00     56001.03
 1270.83        2969.25           2417       11995.00     52338.92
 1270.86        2969.50           2420       11241.00     49040.73
 1270.89        2969.75           2424       10272.00     44803.16
 1270.92        2970.00           2427        9469.00     41292.46
 1270.95        2970.25           2431        8452.00     36847.36
 1270.99        2970.50           2434        7759.00     33819.16
 1271.02        2970.75           2438        6608.00     28791.03
 1271.05        2971.00           2441        5876.00     25594.19
 1271.08        2971.25           2445        4837.00     21057.79
 1271.11        2971.50           2449        4018.00     17482.93
 1271.14        2971.75           2452        3340.00     14524.17
 1271.17        2972.00           2456        2347.00     10191.85
 1271.20        2972.25           2459        1736.00      7526.77
 1271.23        2972.50           2463         858.00      3697.94
 1271.26        2972.75           2466         385.00      1635.66
 1271.29        2973.00           2470         147.00       598.09
 1271.32        2973.25           2473          86.00       332.17
 1271.35        2973.50           2477          77.00       292.94
 1271.38        2973.75           2481          63.00       231.91
 1271.41        2974.00           2484          69.00       258.07
 1271.44        2974.25           2488          64.00       236.27
 1271.47        2974.50           2491          69.00       258.07
 1271.51        2974.75           2495          75.00       284.22
 1271.54        2975.00           2498          59.00       214.47
 1271.57        2975.25           2502          65.00       240.63
 1271.60        2975.50           2505          62.00       227.55
 1271.63        2975.75           2509          65.00       240.63
 1271.66        2976.00           2512          64.00       236.27
 1271.69        2976.25           2516          58.00       210.11
 1271.72        2976.50           2520          56.00       201.40
 1271.75        2976.75           2523          52.00       183.96
 1271.78        2977.00           2527          57.00       205.76
 1271.81        2977.25           2530          57.00       205.76
 1271.84        2977.50           2534          57.00       205.76
 1271.87        2977.75           2537          51.00       179.60
 1271.90        2978.00           2541          51.00       179.60
 1271.93        2978.25           2544          53.00       188.32
 1271.96        2978.50           2548          53.00       188.32
 1271.99        2978.75           2552          55.00       197.04
 1272.02        2979.00           2555          51.00       179.60
 1272.06        2979.25           2559          48.00       166.52
 1272.09        2979.50           2562          55.00       197.04
 1272.12        2979.75           2566          43.00       144.73
 1272.15        2980.00           2569          52.00       183.96
 1272.18        2980.25           2573          48.00       166.52
 1272.21        2980.50           2577          47.00       162.16
 1272.24        2980.75           2580          52.00       183.96
 1272.27        2981.00           2584          50.00       175.24
 1272.30        2981.25           2587          47.00       162.16
 1272.33        2981.50           2591          51.00       179.60
 1272.36        2981.75           2594          44.00       149.09
 1272.39        2982.00           2598          49.00       170.88
 1272.42        2982.25           2601          51.00       179.60
 1272.45        2982.50           2605          49.00       170.88
 1272.48        2982.75           2609          45.00       153.44
 1272.51        2983.00           2612          47.00       162.16
 1272.54        2983.25           2616          40.00       131.65
 1272.58        2983.50           2619          40.00       131.65
 1272.61        2983.75           2623          37.00       118.57
 1272.64        2984.00           2626          46.00       157.80
HS scan finished at 21:12:52
end
