************************************************************
  HS Scan of (1) Internal mercury lamp
************************************************************
Integration time is 0.2294 seconds per sample
dh210619El Arenosillo 37.1 6.73 3.58pr1000
************************************************************
Dead Time -------------------------  3.2E-08 
Number of Cycles Used -------------  4 
Starting Wavelength (Angstroms) ---  2950 
Final Wavelength (Angstoms) -------  2984 
Wavelength Increment (Angstroms) --  .25 
Filter Wheel #1 Position ---------- (1) Ground quartz diffuser (ND=2.32)
Filter Wheel #2 Position ---------- (1) Neutral Density 0.494



************************************************************
HS scan start time = 02:06:44
Dark Count =  2.6 


Time (GMT)  Wavelength (Ang)  Step Number  Raw Counts  Counts/Second

  127.62        2950.00           2144        1404.00      6110.17
  127.82        2950.25           2147        1378.00      5996.79
  127.85        2950.50           2151        1348.00      5865.97
  127.88        2950.75           2155        1396.00      6075.29
  127.91        2951.00           2158        1371.00      5966.27
  127.94        2951.25           2162        1379.00      6001.15
  127.97        2951.50           2165        1387.00      6036.04
  128.00        2951.75           2169        1385.00      6027.32
  128.03        2952.00           2172        1435.00      6245.36
  128.06        2952.25           2176        1418.00      6171.23
  128.09        2952.50           2179        1400.00      6092.73
  128.12        2952.75           2183        1399.00      6088.37
  128.15        2953.00           2186        1407.00      6123.26
  128.18        2953.25           2190        1424.00      6197.39
  128.22        2953.50           2193        1487.00      6472.13
  128.25        2953.75           2197        1475.00      6419.80
  128.28        2954.00           2200        1443.00      6280.25
  128.31        2954.25           2204        1466.00      6380.55
  128.34        2954.50           2208        1473.00      6411.08
  128.37        2954.75           2211        1494.00      6502.66
  128.40        2955.00           2215        1493.00      6498.30
  128.43        2955.25           2218        1513.00      6585.52
  128.46        2955.50           2222        1488.00      6476.50
  128.49        2955.75           2225        1532.00      6668.38
  128.52        2956.00           2229        1544.00      6720.71
  128.55        2956.25           2232        1534.00      6677.10
  128.58        2956.50           2236        1588.00      6912.60
  128.61        2956.75           2239        1563.00      6803.57
  128.64        2957.00           2243        1572.00      6842.82
  128.67        2957.25           2246        1597.00      6951.85
  128.70        2957.50           2250        1619.00      7047.80
  128.74        2957.75           2254        1635.00      7117.58
  128.77        2958.00           2257        1699.00      7396.69
  128.80        2958.25           2261        1708.00      7435.95
  128.83        2958.50           2264        1723.00      7501.37
  128.86        2958.75           2268        1770.00      7706.35
  128.89        2959.00           2271        1756.00      7645.29
  128.92        2959.25           2275        1764.00      7680.18
  128.95        2959.50           2278        1814.00      7898.25
  128.98        2959.75           2282        1860.00      8098.87
  129.01        2960.00           2285        1889.00      8225.36
  129.04        2960.25           2289        1966.00      8561.19
  129.07        2960.50           2293        1965.00      8556.83
  129.10        2960.75           2296        2040.00      8883.96
  129.13        2961.00           2300        2550.00     11108.57
  129.16        2961.25           2303        5779.00     25200.79
  129.19        2961.50           2307       20711.00     90533.92
  129.22        2961.75           2310       37754.00    165439.40
  129.26        2962.00           2314       63795.00    280591.80
  129.29        2962.25           2317       85352.00    376565.40
  129.32        2962.50           2321      115028.00    509663.30
  129.35        2962.75           2324      135570.00    602469.00
  129.38        2963.00           2328      166200.00    741892.90
  129.41        2963.25           2331      186468.00    834847.40
  129.44        2963.50           2335      213352.00    959016.10
  129.47        2963.75           2339      240219.00   1084116.00
  129.50        2964.00           2342      261296.00   1182974.00
  129.53        2964.25           2346      290600.00   1321489.00
  129.56        2964.50           2349      313151.00   1428945.00
  129.59        2964.75           2353      341892.00   1567002.00
  129.62        2965.00           2356      364341.00   1675713.00
  129.65        2965.25           2360      392184.00   1811635.00
  129.68        2965.50           2363      413190.00   1914993.00
  129.71        2965.75           2367      438779.00   2041862.00
  129.74        2966.00           2370      455625.00   2125970.00
  129.78        2966.25           2374      471724.00   2206789.00
  129.81        2966.50           2378      479257.00   2244756.00
  129.84        2966.75           2381      481263.00   2254882.00
  129.87        2967.00           2385      481734.00   2257260.00
  129.90        2967.25           2388      481930.00   2258251.00
  129.93        2967.50           2392      480841.00   2252751.00
  129.96        2967.75           2395      477879.00   2237803.00
  129.99        2968.00           2399      460278.00   2149284.00
  130.02        2968.25           2402      441477.00   2055301.00
  130.05        2968.50           2406      415558.00   1926689.00
  130.08        2968.75           2409      397121.00   1835863.00
  130.11        2969.00           2413      370568.00   1706006.00
  130.14        2969.25           2417      342640.00   1570612.00
  130.17        2969.50           2420      323797.00   1479937.00
  130.20        2969.75           2424      296085.00   1347556.00
  130.23        2970.00           2427      273739.00   1241637.00
  130.26        2970.25           2431      245856.00   1110493.00
  130.30        2970.50           2434      226215.00   1018783.00
  130.33        2970.75           2438      199424.00    894562.00
  130.36        2971.00           2441      179952.00    804902.20
  130.39        2971.25           2445      152129.00    677687.30
  130.42        2971.50           2449      123501.00    547875.60
  130.45        2971.75           2452       99774.00    441105.90
  130.48        2972.00           2456       67957.00    299075.30
  130.51        2972.25           2459       45722.00    200583.30
  130.54        2972.50           2463       21940.00     95923.46
  130.57        2972.75           2466       10250.00     44734.44
  130.60        2973.00           2470        3558.00     15506.38
  130.63        2973.25           2473        2396.00     10436.79
  130.66        2973.50           2477        2131.00      9280.87
  130.69        2973.75           2481        2033.00      8853.42
  130.72        2974.00           2484        1977.00      8609.17
  130.75        2974.25           2488        1948.00      8482.69
  130.78        2974.50           2491        1947.00      8478.32
  130.81        2974.75           2495        1898.00      8264.61
  130.85        2975.00           2498        1858.00      8090.15
  130.88        2975.25           2502        1801.00      7841.55
  130.91        2975.50           2505        1775.00      7728.15
  130.94        2975.75           2509        1795.00      7815.38
  130.97        2976.00           2512        1695.00      7379.25
  131.00        2976.25           2516        1705.00      7422.86
  131.03        2976.50           2520        1716.00      7470.84
  131.06        2976.75           2523        1707.00      7431.58
  131.09        2977.00           2527        1694.00      7374.89
  131.12        2977.25           2530        1660.00      7226.61
  131.15        2977.50           2534        1583.00      6890.80
  131.18        2977.75           2537        1575.00      6855.91
  131.21        2978.00           2541        1619.00      7047.80
  131.24        2978.25           2544        1563.00      6803.57
  131.27        2978.50           2548        1570.00      6834.10
  131.30        2978.75           2552        1541.00      6707.63
  131.34        2979.00           2555        1467.00      6384.91
  131.37        2979.25           2559        1509.00      6568.08
  131.40        2979.50           2562        1513.00      6585.52
  131.43        2979.75           2566        1475.00      6419.80
  131.46        2980.00           2569        1485.00      6463.41
  131.49        2980.25           2573        1455.00      6332.58
  131.52        2980.50           2577        1422.00      6188.67
  131.55        2980.75           2580        1456.00      6336.94
  131.58        2981.00           2584        1417.00      6166.87
  131.61        2981.25           2587        1434.00      6241.00
  131.64        2981.50           2591        1404.00      6110.17
  131.67        2981.75           2594        1406.00      6118.90
  131.70        2982.00           2598        1393.00      6062.20
  131.73        2982.25           2601        1411.00      6140.70
  131.76        2982.50           2605        1375.00      5983.71
  131.79        2982.75           2609        1399.00      6088.37
  131.82        2983.00           2612        1353.00      5887.77
  131.86        2983.25           2616        1409.00      6131.98
  131.89        2983.50           2619        1378.00      5996.79
  131.92        2983.75           2623        1382.00      6014.24
  131.95        2984.00           2626        1390.00      6049.12
HS scan finished at 02:12:10
end
************************************************************
  HS Scan of (1) Internal mercury lamp
************************************************************
Integration time is 0.2294 seconds per sample
dh210619El Arenosillo 37.1 6.73 3.72pr1000
************************************************************
Dead Time -------------------------  3.2E-08 
Number of Cycles Used -------------  4 
Starting Wavelength (Angstroms) ---  2950 
Final Wavelength (Angstoms) -------  2984 
Wavelength Increment (Angstroms) --  .25 
Filter Wheel #1 Position ---------- (1) Ground quartz diffuser (ND=2.32)
Filter Wheel #2 Position ---------- (1) Neutral Density 0.494



************************************************************
HS scan start time = 21:41:26
Dark Count =  3.6 


Time (GMT)  Wavelength (Ang)  Step Number  Raw Counts  Counts/Second

 1302.33        2950.00           2144        1374.00      5974.99
 1302.53        2950.25           2147        1349.00      5865.97
 1302.56        2950.50           2151        1354.00      5887.77
 1302.59        2950.75           2155        1333.00      5796.19
 1302.62        2951.00           2158        1314.00      5713.34
 1302.65        2951.25           2162        1389.00      6040.40
 1302.68        2951.50           2165        1375.00      5979.35
 1302.71        2951.75           2169        1350.00      5870.33
 1302.74        2952.00           2172        1354.00      5887.77
 1302.77        2952.25           2176        1383.00      6014.24
 1302.80        2952.50           2179        1384.00      6018.60
 1302.83        2952.75           2183        1414.00      6149.42
 1302.86        2953.00           2186        1384.00      6018.60
 1302.89        2953.25           2190        1446.00      6288.97
 1302.92        2953.50           2193        1422.00      6184.31
 1302.96        2953.75           2197        1383.00      6014.24
 1302.99        2954.00           2200        1462.00      6358.75
 1303.02        2954.25           2204        1462.00      6358.75
 1303.05        2954.50           2208        1432.00      6227.92
 1303.08        2954.75           2211        1405.00      6110.17
 1303.11        2955.00           2215        1459.00      6345.67
 1303.14        2955.25           2218        1477.00      6424.16
 1303.17        2955.50           2222        1525.00      6633.49
 1303.20        2955.75           2225        1508.00      6559.35
 1303.23        2956.00           2229        1473.00      6406.72
 1303.26        2956.25           2232        1532.00      6664.02
 1303.29        2956.50           2236        1561.00      6790.49
 1303.32        2956.75           2239        1556.00      6768.69
 1303.35        2957.00           2243        1532.00      6664.02
 1303.38        2957.25           2246        1571.00      6834.10
 1303.41        2957.50           2250        1628.00      7082.69
 1303.44        2957.75           2254        1599.00      6956.21
 1303.47        2958.00           2257        1626.00      7073.96
 1303.51        2958.25           2261        1627.00      7078.33
 1303.54        2958.50           2264        1683.00      7322.55
 1303.57        2958.75           2268        1630.00      7091.41
 1303.60        2959.00           2271        1700.00      7396.69
 1303.63        2959.25           2275        1680.00      7309.47
 1303.66        2959.50           2278        1760.00      7658.37
 1303.69        2959.75           2282        1781.00      7749.96
 1303.72        2960.00           2285        1832.00      7972.39
 1303.75        2960.25           2289        1836.00      7989.84
 1303.78        2960.50           2293        1912.00      8321.31
 1303.81        2960.75           2296        1988.00      8652.79
 1303.84        2961.00           2300        2494.00     10859.92
 1303.87        2961.25           2303        5027.00     21913.35
 1303.90        2961.50           2307       17207.00     75173.65
 1303.93        2961.75           2310       32754.00    143422.20
 1303.96        2962.00           2314       58665.00    257835.20
 1303.99        2962.25           2317       78801.00    347332.60
 1304.03        2962.50           2321      104285.00    461344.10
 1304.06        2962.75           2324      124648.00    553051.30
 1304.09        2963.00           2328      153074.00    681986.30
 1304.12        2963.25           2331      175857.00    786108.10
 1304.15        2963.50           2335      205846.00    924242.80
 1304.18        2963.75           2339      232015.00   1045803.00
 1304.21        2964.00           2342      251493.00   1136911.00
 1304.24        2964.25           2346      276723.00   1255734.00
 1304.27        2964.50           2349      296240.00   1348288.00
 1304.30        2964.75           2353      325868.00   1489872.00
 1304.33        2965.00           2356      346268.00   1588127.00
 1304.36        2965.25           2360      371382.00   1709966.00
 1304.39        2965.50           2363      389311.00   1797548.00
 1304.42        2965.75           2367      415337.00   1925592.00
 1304.45        2966.00           2370      434853.00   2022323.00
 1304.48        2966.25           2374      457604.00   2135877.00
 1304.51        2966.50           2378      467798.00   2187035.00
 1304.55        2966.75           2381      470729.00   2201777.00
 1304.58        2967.00           2385      471984.00   2208093.00
 1304.61        2967.25           2388      471751.00   2206920.00
 1304.64        2967.50           2392      471583.00   2206075.00
 1304.67        2967.75           2395      469842.00   2197314.00
 1304.70        2968.00           2399      461531.00   2155564.00
 1304.73        2968.25           2402      447204.00   2083863.00
 1304.76        2968.50           2406      422954.00   1963272.00
 1304.79        2968.75           2409      402376.00   1861691.00
 1304.82        2969.00           2413      374296.00   1724166.00
 1304.85        2969.25           2417      347643.00   1594773.00
 1304.88        2969.50           2420      326622.00   1493492.00
 1304.91        2969.75           2424      300600.00   1369041.00
 1304.94        2970.00           2427      277351.00   1258704.00
 1304.97        2970.25           2431      246033.00   1111317.00
 1305.00        2970.50           2434      225802.00   1016855.00
 1305.03        2970.75           2438      198899.00    892133.10
 1305.07        2971.00           2441      178983.00    800449.30
 1305.10        2971.25           2445      150277.00    669251.90
 1305.13        2971.50           2449      121891.00    540602.90
 1305.16        2971.75           2452      101416.00    448466.70
 1305.19        2972.00           2456       68707.00    302404.00
 1305.22        2972.25           2459       47300.00    207548.20
 1305.25        2972.50           2463       21883.00     95669.07
 1305.28        2972.75           2466        9580.00     41801.30
 1305.31        2973.00           2470        3655.00     15925.29
 1305.34        2973.25           2473        2404.00     10467.32
 1305.37        2973.50           2477        2103.00      9154.38
 1305.40        2973.75           2481        1977.00      8604.81
 1305.43        2974.00           2484        1952.00      8495.77
 1305.46        2974.25           2488        1880.00      8181.74
 1305.49        2974.50           2491        1861.00      8098.87
 1305.52        2974.75           2495        1813.00      7889.52
 1305.55        2975.00           2498        1774.00      7719.43
 1305.59        2975.25           2502        1781.00      7749.96
 1305.62        2975.50           2505        1751.00      7619.12
 1305.65        2975.75           2509        1723.00      7497.00
 1305.68        2976.00           2512        1670.00      7265.86
 1305.71        2976.25           2516        1658.00      7213.52
 1305.74        2976.50           2520        1629.00      7087.05
 1305.77        2976.75           2523        1647.00      7165.55
 1305.80        2977.00           2527        1602.00      6969.30
 1305.83        2977.25           2530        1598.00      6951.85
 1305.86        2977.50           2534        1539.00      6694.55
 1305.89        2977.75           2537        1533.00      6668.38
 1305.92        2978.00           2541        1583.00      6886.44
 1305.95        2978.25           2544        1512.00      6576.80
 1305.98        2978.50           2548        1538.00      6690.19
 1306.01        2978.75           2552        1507.00      6554.99
 1306.04        2979.00           2555        1453.00      6319.50
 1306.07        2979.25           2559        1450.00      6306.42
 1306.11        2979.50           2562        1479.00      6432.89
 1306.14        2979.75           2566        1420.00      6175.59
 1306.17        2980.00           2569        1440.00      6262.81
 1306.20        2980.25           2573        1390.00      6044.76
 1306.23        2980.50           2577        1381.00      6005.51
 1306.26        2980.75           2580        1381.00      6005.51
 1306.29        2981.00           2584        1406.00      6114.54
 1306.32        2981.25           2587        1383.00      6014.24
 1306.35        2981.50           2591        1389.00      6040.40
 1306.38        2981.75           2594        1345.00      5848.52
 1306.41        2982.00           2598        1349.00      5865.97
 1306.44        2982.25           2601        1337.00      5813.64
 1306.47        2982.50           2605        1345.00      5848.52
 1306.50        2982.75           2609        1323.00      5752.58
 1306.53        2983.00           2612        1330.00      5783.11
 1306.56        2983.25           2616        1308.00      5687.17
 1306.59        2983.50           2619        1297.00      5639.20
 1306.63        2983.75           2623        1327.00      5770.03
 1306.66        2984.00           2626        1309.00      5691.53
HS scan finished at 21:46:52
end
