************************************************************
  HS Scan of (1) Internal mercury lamp
************************************************************
Integration time is 0.2294 seconds per sample
dh270618Reading 51.44 .94 3.54pr1000
************************************************************
Dead Time -------------------------  3.4E-08 
Number of Cycles Used -------------  4 
Starting Wavelength (Angstroms) ---  2950 
Final Wavelength (Angstoms) -------  2984 
Wavelength Increment (Angstroms) --  .25 
Filter Wheel #1 Position ---------- (1) Ground quartz diffuser (ND=2.32)
Filter Wheel #2 Position ---------- (1) Neutral Density 0.494



************************************************************
HS scan start time = 02:38:48
Dark Count =  2.6 


Time (GMT)  Wavelength (Ang)  Step Number  Raw Counts  Counts/Second

  159.70        2950.00           2144          76.00       319.97
  159.89        2950.25           2147          72.00       302.53
  159.92        2950.50           2151          75.00       315.61
  159.95        2950.75           2155          71.00       298.17
  159.98        2951.00           2158          79.00       333.05
  160.01        2951.25           2162          79.00       333.05
  160.05        2951.50           2165          71.00       298.17
  160.08        2951.75           2169          69.00       289.45
  160.11        2952.00           2172          76.00       319.97
  160.14        2952.25           2176          71.00       298.17
  160.17        2952.50           2179          77.00       324.33
  160.20        2952.75           2183          80.00       337.41
  160.23        2953.00           2186          82.00       346.12
  160.26        2953.25           2190          79.00       333.05
  160.29        2953.50           2193          79.00       333.05
  160.32        2953.75           2197          76.00       319.97
  160.35        2954.00           2200          76.00       319.97
  160.38        2954.25           2204          76.00       319.97
  160.41        2954.50           2208          81.00       341.77
  160.44        2954.75           2211          80.00       337.41
  160.47        2955.00           2215          85.00       359.20
  160.50        2955.25           2218          87.00       367.92
  160.53        2955.50           2222          86.00       363.56
  160.57        2955.75           2225          85.00       359.20
  160.60        2956.00           2229          81.00       341.77
  160.63        2956.25           2232          86.00       363.56
  160.66        2956.50           2236          74.00       311.25
  160.69        2956.75           2239          83.00       350.48
  160.72        2957.00           2243          87.00       367.92
  160.75        2957.25           2246          86.00       363.56
  160.78        2957.50           2250          86.00       363.56
  160.81        2957.75           2254          86.00       363.56
  160.84        2958.00           2257          97.00       411.51
  160.87        2958.25           2261          89.00       376.64
  160.90        2958.50           2264          96.00       407.15
  160.93        2958.75           2268         116.00       494.34
  160.96        2959.00           2271          96.00       407.15
  160.99        2959.25           2275          95.00       402.80
  161.02        2959.50           2278         119.00       507.42
  161.05        2959.75           2282         111.00       472.54
  161.08        2960.00           2285         105.00       446.39
  161.12        2960.25           2289         118.00       503.06
  161.15        2960.50           2293         111.00       472.54
  161.19        2960.75           2296         173.00       742.83
  161.22        2961.00           2300         153.00       655.64
  161.25        2961.25           2303         352.00      1523.18
  161.28        2961.50           2307        1321.00      5748.29
  161.31        2961.75           2310        2401.00     10458.82
  161.34        2962.00           2314        4072.00     17750.03
  161.37        2962.25           2317        5289.00     23062.54
  161.40        2962.50           2321        7331.00     31980.70
  161.43        2962.75           2324        8582.00     37446.95
  161.46        2963.00           2328       10287.00     44900.23
  161.50        2963.25           2331       11801.00     51521.74
  161.53        2963.50           2335       13861.00     60535.98
  161.56        2963.75           2339       15920.00     69551.38
  161.59        2964.00           2342       17300.00     75596.85
  161.62        2964.25           2346       19263.00     84200.60
  161.65        2964.50           2349       20283.00     88673.22
  161.68        2964.75           2353       22424.00     98065.75
  161.71        2965.00           2356       23891.00    104504.90
  161.74        2965.25           2360       25652.00    112238.30
  161.77        2965.50           2363       27044.00    118354.10
  161.80        2965.75           2367       28873.00    126393.80
  161.83        2966.00           2370       30412.00    133162.10
  161.86        2966.25           2374       31770.00    139137.10
  161.89        2966.50           2378       32739.00    143401.90
  161.92        2966.75           2381       32734.00    143379.90
  161.95        2967.00           2385       32718.00    143309.50
  161.98        2967.25           2388       32781.00    143586.80
  162.02        2967.50           2392       32856.00    143917.00
  162.05        2967.75           2395       32911.00    144159.10
  162.08        2968.00           2399       32133.00    140734.60
  162.11        2968.25           2402       31185.00    136562.90
  162.14        2968.50           2406       29486.00    129089.30
  162.17        2968.75           2409       27828.00    121799.80
  162.20        2969.00           2413       25786.00    112826.90
  162.23        2969.25           2417       23846.00    104307.40
  162.26        2969.50           2420       22364.00     97802.46
  162.29        2969.75           2424       20698.00     90493.36
  162.32        2970.00           2427       19019.00     83130.90
  162.35        2970.25           2431       16437.00     71815.95
  162.38        2970.50           2434       14983.00     65448.01
  162.41        2970.75           2438       12922.00     56426.38
  162.44        2971.00           2441       11545.00     50401.91
  162.47        2971.25           2445        9737.00     42495.54
  162.50        2971.50           2449        7923.00     34567.19
  162.54        2971.75           2452        6508.00     28385.71
  162.57        2972.00           2456        4677.00     20390.77
  162.60        2972.25           2459        3376.00     14712.68
  162.63        2972.50           2463        1637.00      7126.40
  162.66        2972.75           2466         758.00      3293.31
  162.69        2973.00           2470         235.00      1013.11
  162.72        2973.25           2473         148.00       633.84
  162.75        2973.50           2477         133.00       568.45
  162.78        2973.75           2481         134.00       572.81
  162.81        2974.00           2484         124.00       529.22
  162.84        2974.25           2488         115.00       489.98
  162.87        2974.50           2491         103.00       437.67
  162.90        2974.75           2495         118.00       503.06
  162.93        2975.00           2498         109.00       463.83
  162.96        2975.25           2502         118.00       503.06
  162.99        2975.50           2505         120.00       511.78
  163.02        2975.75           2509         106.00       450.75
  163.06        2976.00           2512          94.00       398.44
  163.09        2976.25           2516          95.00       402.80
  163.12        2976.50           2520          97.00       411.51
  163.15        2976.75           2523          94.00       398.44
  163.18        2977.00           2527          93.00       394.08
  163.21        2977.25           2530          87.00       367.92
  163.24        2977.50           2534          97.00       411.51
  163.27        2977.75           2537          88.00       372.28
  163.30        2978.00           2541          81.00       341.77
  163.33        2978.25           2544          86.00       363.56
  163.36        2978.50           2548          88.00       372.28
  163.39        2978.75           2552          87.00       367.92
  163.42        2979.00           2555         104.00       442.03
  163.45        2979.25           2559          84.00       354.84
  163.48        2979.50           2562          86.00       363.56
  163.51        2979.75           2566          80.00       337.41
  163.54        2980.00           2569          82.00       346.12
  163.58        2980.25           2573          77.00       324.33
  163.61        2980.50           2577          84.00       354.84
  163.64        2980.75           2580          80.00       337.41
  163.67        2981.00           2584          77.00       324.33
  163.70        2981.25           2587          80.00       337.41
  163.73        2981.50           2591          78.00       328.69
  163.76        2981.75           2594          81.00       341.77
  163.79        2982.00           2598          76.00       319.97
  163.82        2982.25           2601          80.00       337.41
  163.85        2982.50           2605          74.00       311.25
  163.88        2982.75           2609          74.00       311.25
  163.91        2983.00           2612          69.00       289.45
  163.94        2983.25           2616          69.00       289.45
  163.97        2983.50           2619          74.00       311.25
  164.00        2983.75           2623          77.00       324.33
  164.03        2984.00           2626          76.00       319.97
HS scan finished at 02:44:15
end
************************************************************
  HS Scan of (1) Internal mercury lamp
************************************************************
Integration time is 0.2294 seconds per sample
dh270618Reading 51.44 .94 4.03pr1000
************************************************************
Dead Time -------------------------  3.4E-08 
Number of Cycles Used -------------  4 
Starting Wavelength (Angstroms) ---  2950 
Final Wavelength (Angstoms) -------  2984 
Wavelength Increment (Angstroms) --  .25 
Filter Wheel #1 Position ---------- (1) Ground quartz diffuser (ND=2.32)
Filter Wheel #2 Position ---------- (1) Neutral Density 0.494



************************************************************
HS scan start time = 21:07:25
Dark Count =  11.4 


Time (GMT)  Wavelength (Ang)  Step Number  Raw Counts  Counts/Second

 1268.32        2950.00           2144          60.00       211.86
 1268.51        2950.25           2147          58.00       203.14
 1268.54        2950.50           2151          60.00       211.86
 1268.57        2950.75           2155          57.00       198.78
 1268.60        2951.00           2158          59.00       207.50
 1268.63        2951.25           2162          60.00       211.86
 1268.66        2951.50           2165          57.00       198.78
 1268.70        2951.75           2169          61.00       216.22
 1268.73        2952.00           2172          59.00       207.50
 1268.76        2952.25           2176          54.00       185.70
 1268.79        2952.50           2179          63.00       224.94
 1268.82        2952.75           2183          60.00       211.86
 1268.85        2953.00           2186          62.00       220.58
 1268.88        2953.25           2190          63.00       224.94
 1268.91        2953.50           2193          63.00       224.94
 1268.94        2953.75           2197          70.00       255.45
 1268.97        2954.00           2200          57.00       198.78
 1269.00        2954.25           2204          65.00       233.65
 1269.03        2954.50           2208          55.00       190.06
 1269.06        2954.75           2211          61.00       216.22
 1269.09        2955.00           2215          61.00       216.22
 1269.12        2955.25           2218          62.00       220.58
 1269.15        2955.50           2222          67.00       242.37
 1269.18        2955.75           2225          66.00       238.01
 1269.22        2956.00           2229          64.00       229.30
 1269.25        2956.25           2232          69.00       251.09
 1269.28        2956.50           2236          64.00       229.30
 1269.31        2956.75           2239          65.00       233.65
 1269.34        2957.00           2243          73.00       268.53
 1269.37        2957.25           2246          74.00       272.89
 1269.40        2957.50           2250          68.00       246.73
 1269.43        2957.75           2254          70.00       255.45
 1269.46        2958.00           2257          68.00       246.73
 1269.49        2958.25           2261          64.00       229.30
 1269.52        2958.50           2264          79.00       294.68
 1269.55        2958.75           2268          73.00       268.53
 1269.58        2959.00           2271          79.00       294.68
 1269.61        2959.25           2275          86.00       325.20
 1269.64        2959.50           2278          74.00       272.89
 1269.67        2959.75           2282          74.00       272.89
 1269.70        2960.00           2285          75.00       277.25
 1269.74        2960.25           2289          81.00       303.40
 1269.77        2960.50           2293          96.00       368.79
 1269.80        2960.75           2296         102.00       394.95
 1269.83        2961.00           2300         149.00       599.84
 1269.86        2961.25           2303         382.00      1615.61
 1269.89        2961.50           2307        1134.00      4894.45
 1269.92        2961.75           2310        1978.00      8575.30
 1269.95        2962.00           2314        3199.00     13901.95
 1269.98        2962.25           2317        4207.00     18300.83
 1270.01        2962.50           2321        5686.00     24757.54
 1270.04        2962.75           2324        6593.00     28718.53
 1270.07        2963.00           2328        7957.00     34677.31
 1270.10        2963.25           2331        8800.00     38361.25
 1270.13        2963.50           2335       10259.00     44739.32
 1270.16        2963.75           2339       11660.00     50866.45
 1270.19        2964.00           2342       12581.00     54895.74
 1270.22        2964.25           2346       14192.00     61946.38
 1270.26        2964.50           2349       15208.00     66394.70
 1270.29        2964.75           2353       16460.00     71878.15
 1270.32        2965.00           2356       17325.00     75667.83
 1270.35        2965.25           2360       18588.00     81202.96
 1270.38        2965.50           2363       19215.00     83951.58
 1270.41        2965.75           2367       20719.00     90546.85
 1270.44        2966.00           2370       22018.00     96245.56
 1270.47        2966.25           2374       22925.00    100225.90
 1270.50        2966.50           2378       23576.00    103083.40
 1270.53        2966.75           2381       23485.00    102683.90
 1270.56        2967.00           2385       22906.00    100142.50
 1270.59        2967.25           2388       22810.00     99721.14
 1270.62        2967.50           2392       22932.00    100256.60
 1270.65        2967.75           2395       22775.00     99567.53
 1270.68        2968.00           2399       21881.00     95644.43
 1270.71        2968.25           2402       21062.00     92051.38
 1270.74        2968.50           2406       19800.00     86516.54
 1270.78        2968.75           2409       18878.00     82474.19
 1270.81        2969.00           2413       17631.00     77008.69
 1270.84        2969.25           2417       16433.00     71759.88
 1270.87        2969.50           2420       15446.00     67436.93
 1270.90        2969.75           2424       13980.00     61018.35
 1270.93        2970.00           2427       13070.00     57035.52
 1270.96        2970.25           2431       11557.00     50415.90
 1270.99        2970.50           2434       10722.00     46763.92
 1271.02        2970.75           2438        9329.00     40673.47
 1271.05        2971.00           2441        8189.00     35691.06
 1271.08        2971.25           2445        6731.00     29321.29
 1271.11        2971.50           2449        5485.00     23879.89
 1271.14        2971.75           2452        4406.00     19169.42
 1271.17        2972.00           2456        3127.00     13587.79
 1271.20        2972.25           2459        2302.00      9988.57
 1271.23        2972.50           2463        1084.00      4676.42
 1271.26        2972.75           2466         509.00      2169.30
 1271.30        2973.00           2470         154.00       621.63
 1271.33        2973.25           2473         123.00       486.49
 1271.36        2973.50           2477          96.00       368.79
 1271.39        2973.75           2481          95.00       364.43
 1271.42        2974.00           2484          93.00       355.71
 1271.45        2974.25           2488          86.00       325.20
 1271.48        2974.50           2491          87.00       329.56
 1271.51        2974.75           2495          87.00       329.56
 1271.54        2975.00           2498          89.00       338.28
 1271.57        2975.25           2502          83.00       312.12
 1271.60        2975.50           2505          73.00       268.53
 1271.63        2975.75           2509          75.00       277.25
 1271.66        2976.00           2512          76.00       281.61
 1271.69        2976.25           2516          72.00       264.17
 1271.72        2976.50           2520          81.00       303.40
 1271.75        2976.75           2523          73.00       268.53
 1271.78        2977.00           2527          74.00       272.89
 1271.82        2977.25           2530          74.00       272.89
 1271.85        2977.50           2534          75.00       277.25
 1271.88        2977.75           2537          67.00       242.37
 1271.91        2978.00           2541          70.00       255.45
 1271.94        2978.25           2544          71.00       259.81
 1271.97        2978.50           2548          67.00       242.37
 1272.00        2978.75           2552          59.00       207.50
 1272.03        2979.00           2555          64.00       229.30
 1272.06        2979.25           2559          64.00       229.30
 1272.09        2979.50           2562          72.00       264.17
 1272.12        2979.75           2566          65.00       233.65
 1272.15        2980.00           2569          63.00       224.94
 1272.18        2980.25           2573          61.00       216.22
 1272.21        2980.50           2577          62.00       220.58
 1272.24        2980.75           2580          66.00       238.01
 1272.27        2981.00           2584          71.00       259.81
 1272.30        2981.25           2587          63.00       224.94
 1272.33        2981.50           2591          68.00       246.73
 1272.37        2981.75           2594          59.00       207.50
 1272.40        2982.00           2598          67.00       242.37
 1272.43        2982.25           2601          64.00       229.30
 1272.46        2982.50           2605          64.00       229.30
 1272.49        2982.75           2609          60.00       211.86
 1272.52        2983.00           2612          62.00       220.58
 1272.55        2983.25           2616          60.00       211.86
 1272.58        2983.50           2619          60.00       211.86
 1272.61        2983.75           2623          56.00       194.42
 1272.64        2984.00           2626          60.00       211.86
HS scan finished at 21:12:52
end
