************************************************************
  HS Scan of (1) Internal mercury lamp
************************************************************
Integration time is 0.2294 seconds per sample
dh240618Reading 51.44 .94 3.43pr1000
************************************************************
Dead Time -------------------------  3.4E-08 
Number of Cycles Used -------------  4 
Starting Wavelength (Angstroms) ---  2950 
Final Wavelength (Angstoms) -------  2984 
Wavelength Increment (Angstroms) --  .25 
Filter Wheel #1 Position ---------- (1) Ground quartz diffuser (ND=2.32)
Filter Wheel #2 Position ---------- (1) Neutral Density 0.494



************************************************************
HS scan start time = 01:15:00
Dark Count =  2.3 


Time (GMT)  Wavelength (Ang)  Step Number  Raw Counts  Counts/Second

   75.91        2950.00           2144          72.00       303.84
   76.10        2950.25           2147          63.00       264.61
   76.13        2950.50           2151          66.00       277.68
   76.16        2950.75           2155          67.00       282.04
   76.19        2951.00           2158          61.00       255.89
   76.22        2951.25           2162          62.00       260.25
   76.25        2951.50           2165          71.00       299.48
   76.28        2951.75           2169          71.00       299.48
   76.31        2952.00           2172          71.00       299.48
   76.34        2952.25           2176          72.00       303.84
   76.37        2952.50           2179          63.00       264.61
   76.40        2952.75           2183          72.00       303.84
   76.43        2953.00           2186          62.00       260.25
   76.47        2953.25           2190          76.00       321.28
   76.50        2953.50           2193          69.00       290.76
   76.53        2953.75           2197          66.00       277.68
   76.56        2954.00           2200          78.00       329.99
   76.59        2954.25           2204          68.00       286.40
   76.62        2954.50           2208          76.00       321.28
   76.65        2954.75           2211          74.00       312.56
   76.68        2955.00           2215          72.00       303.84
   76.71        2955.25           2218          78.00       329.99
   76.74        2955.50           2222          78.00       329.99
   76.77        2955.75           2225          81.00       343.07
   76.80        2956.00           2229          79.00       334.35
   76.83        2956.25           2232          75.00       316.92
   76.86        2956.50           2236          78.00       329.99
   76.89        2956.75           2239          80.00       338.71
   76.92        2957.00           2243          75.00       316.92
   76.96        2957.25           2246          76.00       321.28
   76.99        2957.50           2250          80.00       338.71
   77.02        2957.75           2254          76.00       321.28
   77.05        2958.00           2257          86.00       364.87
   77.08        2958.25           2261          82.00       347.43
   77.11        2958.50           2264          79.00       334.35
   77.14        2958.75           2268          95.00       404.10
   77.17        2959.00           2271          79.00       334.35
   77.20        2959.25           2275          86.00       364.87
   77.23        2959.50           2278          91.00       386.67
   77.26        2959.75           2282          98.00       417.18
   77.29        2960.00           2285         113.00       482.57
   77.32        2960.25           2289          96.00       408.46
   77.35        2960.50           2293          95.00       404.10
   77.38        2960.75           2296         119.00       508.73
   77.41        2961.00           2300         114.00       486.93
   77.44        2961.25           2303         188.00       809.53
   77.47        2961.50           2307         692.00      3006.85
   77.51        2961.75           2310        1376.00      5989.45
   77.54        2962.00           2314        2572.00     11206.10
   77.57        2962.25           2317        3814.00     16625.35
   77.60        2962.50           2321        5345.00     23308.35
   77.63        2962.75           2324        6385.00     27849.81
   77.66        2963.00           2328        7865.00     34315.08
   77.69        2963.25           2331        8930.00     38969.21
   77.72        2963.50           2335       10367.00     45251.35
   77.75        2963.75           2339       11998.00     52384.85
   77.78        2964.00           2342       13393.00     58488.91
   77.81        2964.25           2346       15037.00     65685.77
   77.84        2964.50           2349       16189.00     70730.93
   77.87        2964.75           2353       18337.00     80142.66
   77.90        2965.00           2356       19639.00     85850.48
   77.93        2965.25           2360       21012.00     91871.97
   77.96        2965.50           2363       21975.00     96096.81
   77.99        2965.75           2367       23528.00    102912.60
   78.03        2966.00           2370       24620.00    107707.10
   78.06        2966.25           2374       26206.00    114673.40
   78.09        2966.50           2378       27095.00    118579.60
   78.12        2966.75           2381       27055.00    118403.80
   78.15        2967.00           2385       27058.00    118417.00
   78.18        2967.25           2388       27140.00    118777.30
   78.21        2967.50           2392       26913.00    117779.80
   78.24        2967.75           2395       26842.00    117467.80
   78.27        2968.00           2399       25734.00    112599.80
   78.30        2968.25           2402       24719.00    108141.90
   78.33        2968.50           2406       23139.00    101205.10
   78.36        2968.75           2409       22190.00     97040.22
   78.39        2969.00           2413       20759.00     90762.22
   78.42        2969.25           2417       19836.00     86714.31
   78.45        2969.50           2420       18379.00     80326.76
   78.48        2969.75           2424       16748.00     73179.68
   78.51        2970.00           2427       15419.00     67358.54
   78.55        2970.25           2431       13562.00     59228.57
   78.58        2970.50           2434       12451.00     54366.75
   78.61        2970.75           2438       10888.00     47529.67
   78.64        2971.00           2441        9821.00     42864.08
   78.67        2971.25           2445        8212.00     35831.33
   78.70        2971.50           2449        6651.00     29011.60
   78.73        2971.75           2452        5470.00     23854.13
   78.76        2972.00           2456        3910.00     17044.31
   78.79        2972.25           2459        2982.00     12994.84
   78.82        2972.50           2463        1650.00      7184.41
   78.85        2972.75           2466         832.00      3617.27
   78.88        2973.00           2470         233.00      1005.70
   78.91        2973.25           2473         125.00       534.88
   78.94        2973.50           2477         155.00       665.66
   78.98        2973.75           2481         105.00       447.70
   79.01        2974.00           2484         128.00       547.96
   79.04        2974.25           2488         125.00       534.88
   79.07        2974.50           2491          99.00       421.54
   79.10        2974.75           2495          86.00       364.87
   79.13        2975.00           2498          89.00       377.95
   79.16        2975.25           2502          92.00       391.03
   79.19        2975.50           2505          80.00       338.71
   79.22        2975.75           2509          96.00       408.46
   79.26        2976.00           2512          94.00       399.74
   79.29        2976.25           2516          82.00       347.43
   79.32        2976.50           2520          90.00       382.31
   79.35        2976.75           2523          86.00       364.87
   79.38        2977.00           2527          86.00       364.87
   79.41        2977.25           2530          87.00       369.23
   79.44        2977.50           2534          81.00       343.07
   79.47        2977.75           2537          84.00       356.15
   79.50        2978.00           2541          82.00       347.43
   79.53        2978.25           2544          83.00       351.79
   79.56        2978.50           2548          87.00       369.23
   79.59        2978.75           2552          78.00       329.99
   79.62        2979.00           2555          73.00       308.20
   79.65        2979.25           2559          83.00       351.79
   79.68        2979.50           2562          81.00       343.07
   79.71        2979.75           2566          79.00       334.35
   79.74        2980.00           2569          71.00       299.48
   79.78        2980.25           2573          67.00       282.04
   79.81        2980.50           2577          74.00       312.56
   79.84        2980.75           2580          72.00       303.84
   79.87        2981.00           2584          70.00       295.12
   79.90        2981.25           2587          77.00       325.64
   79.93        2981.50           2591          79.00       334.35
   79.96        2981.75           2594          70.00       295.12
   79.99        2982.00           2598          64.00       268.96
   80.02        2982.25           2601          72.00       303.84
   80.05        2982.50           2605          68.00       286.40
   80.08        2982.75           2609          72.00       303.84
   80.11        2983.00           2612          66.00       277.68
   80.14        2983.25           2616          70.00       295.12
   80.17        2983.50           2619          65.00       273.32
   80.20        2983.75           2623          74.00       312.56
   80.23        2984.00           2626          65.00       273.32
HS scan finished at 01:20:27
end
************************************************************
  HS Scan of (1) Internal mercury lamp
************************************************************
Integration time is 0.2294 seconds per sample
dh240618Reading 51.44 .94 3.94pr1000
************************************************************
Dead Time -------------------------  3.4E-08 
Number of Cycles Used -------------  4 
Starting Wavelength (Angstroms) ---  2950 
Final Wavelength (Angstoms) -------  2984 
Wavelength Increment (Angstroms) --  .25 
Filter Wheel #1 Position ---------- (1) Ground quartz diffuser (ND=2.32)
Filter Wheel #2 Position ---------- (1) Neutral Density 0.494



************************************************************
HS scan start time = 21:07:25
Dark Count =  8.8 


Time (GMT)  Wavelength (Ang)  Step Number  Raw Counts  Counts/Second

 1268.32        2950.00           2144          46.00       162.16
 1268.51        2950.25           2147          49.00       175.24
 1268.54        2950.50           2151          47.00       166.52
 1268.57        2950.75           2155          53.00       192.68
 1268.60        2951.00           2158          50.00       179.60
 1268.64        2951.25           2162          44.00       153.44
 1268.67        2951.50           2165          46.00       162.16
 1268.70        2951.75           2169          46.00       162.16
 1268.73        2952.00           2172          55.00       201.40
 1268.76        2952.25           2176          52.00       188.32
 1268.79        2952.50           2179          47.00       166.52
 1268.82        2952.75           2183          52.00       188.32
 1268.85        2953.00           2186          48.00       170.88
 1268.88        2953.25           2190          48.00       170.88
 1268.91        2953.50           2193          55.00       201.40
 1268.94        2953.75           2197          47.00       166.52
 1268.97        2954.00           2200          54.00       197.04
 1269.00        2954.25           2204          50.00       179.60
 1269.03        2954.50           2208          53.00       192.68
 1269.06        2954.75           2211          50.00       179.60
 1269.09        2955.00           2215          57.00       210.11
 1269.12        2955.25           2218          53.00       192.68
 1269.16        2955.50           2222          50.00       179.60
 1269.19        2955.75           2225          53.00       192.68
 1269.22        2956.00           2229          54.00       197.04
 1269.25        2956.25           2232          52.00       188.32
 1269.28        2956.50           2236          50.00       179.60
 1269.31        2956.75           2239          55.00       201.40
 1269.34        2957.00           2243          55.00       201.40
 1269.37        2957.25           2246          61.00       227.55
 1269.40        2957.50           2250          52.00       188.32
 1269.43        2957.75           2254          57.00       210.11
 1269.46        2958.00           2257          54.00       197.04
 1269.49        2958.25           2261          57.00       210.11
 1269.52        2958.50           2264          66.00       249.35
 1269.55        2958.75           2268          63.00       236.27
 1269.58        2959.00           2271          55.00       201.40
 1269.61        2959.25           2275          54.00       197.04
 1269.64        2959.50           2278          62.00       231.91
 1269.68        2959.75           2282          59.00       218.83
 1269.71        2960.00           2285          68.00       258.07
 1269.74        2960.25           2289          63.00       236.27
 1269.77        2960.50           2293          67.00       253.71
 1269.80        2960.75           2296          66.00       249.35
 1269.83        2961.00           2300          82.00       319.10
 1269.86        2961.25           2303         153.00       628.61
 1269.89        2961.50           2307         513.00      2198.07
 1269.92        2961.75           2310        1134.00      4905.79
 1269.95        2962.00           2314        2074.00      9005.37
 1269.98        2962.25           2317        2687.00     11679.44
 1270.01        2962.50           2321        3511.00     15274.72
 1270.04        2962.75           2324        4299.00     18713.74
 1270.07        2963.00           2328        5329.00     23210.11
 1270.10        2963.25           2331        6112.00     26629.16
 1270.13        2963.50           2335        7270.00     31687.13
 1270.16        2963.75           2339        8300.00     36187.48
 1270.20        2964.00           2342        9030.00     39377.89
 1270.23        2964.25           2346       10129.00     44182.28
 1270.26        2964.50           2349       10877.00     47453.14
 1270.29        2964.75           2353       11795.00     51468.37
 1270.32        2965.00           2356       12580.00     54902.75
 1270.35        2965.25           2360       13468.00     58788.71
 1270.38        2965.50           2363       14437.00     63030.32
 1270.41        2965.75           2367       15581.00     68039.52
 1270.44        2966.00           2370       16214.00     70811.96
 1270.47        2966.25           2374       16961.00     74084.36
 1270.50        2966.50           2378       17256.00     75376.88
 1270.53        2966.75           2381       17254.00     75368.13
 1270.56        2967.00           2385       17142.00     74877.40
 1270.59        2967.25           2388       17330.00     75701.13
 1270.62        2967.50           2392       17193.00     75100.85
 1270.65        2967.75           2395       17188.00     75078.94
 1270.68        2968.00           2399       16485.00     71999.05
 1270.71        2968.25           2402       15867.00     69292.09
 1270.75        2968.50           2406       14934.00     65206.31
 1270.78        2968.75           2409       14083.00     61480.61
 1270.81        2969.00           2413       13112.00     57230.70
 1270.84        2969.25           2417       12221.00     53332.02
 1270.87        2969.50           2420       11485.00     50112.34
 1270.90        2969.75           2424       10586.00     46180.57
 1270.93        2970.00           2427        9847.00     42949.34
 1270.96        2970.25           2431        8930.00     38940.80
 1270.99        2970.50           2434        8126.00     35427.13
 1271.02        2970.75           2438        7020.00     30595.02
 1271.05        2971.00           2441        6138.00     26742.70
 1271.08        2971.25           2445        5076.00     22105.54
 1271.11        2971.50           2449        4096.00     17827.72
 1271.14        2971.75           2452        3363.00     14628.90
 1271.17        2972.00           2456        2318.00     10069.71
 1271.20        2972.25           2459        1676.00      7269.45
 1271.23        2972.50           2463         870.00      3754.62
 1271.27        2972.75           2466         439.00      1875.45
 1271.30        2973.00           2470         143.00       585.02
 1271.33        2973.25           2473          90.00       353.97
 1271.36        2973.50           2477          72.00       275.50
 1271.39        2973.75           2481          73.00       279.86
 1271.42        2974.00           2484          65.00       244.99
 1271.45        2974.25           2488          80.00       310.38
 1271.48        2974.50           2491          66.00       249.35
 1271.51        2974.75           2495          66.00       249.35
 1271.54        2975.00           2498          65.00       244.99
 1271.57        2975.25           2502          65.00       244.99
 1271.60        2975.50           2505          58.00       214.47
 1271.63        2975.75           2509          71.00       271.14
 1271.66        2976.00           2512          68.00       258.07
 1271.69        2976.25           2516          63.00       236.27
 1271.72        2976.50           2520          69.00       262.43
 1271.75        2976.75           2523          57.00       210.11
 1271.79        2977.00           2527          64.00       240.63
 1271.82        2977.25           2530          60.00       223.19
 1271.85        2977.50           2534          59.00       218.83
 1271.88        2977.75           2537          55.00       201.40
 1271.91        2978.00           2541          50.00       179.60
 1271.94        2978.25           2544          57.00       210.11
 1271.97        2978.50           2548          57.00       210.11
 1272.00        2978.75           2552          54.00       197.04
 1272.03        2979.00           2555          55.00       201.40
 1272.06        2979.25           2559          56.00       205.76
 1272.09        2979.50           2562          48.00       170.88
 1272.12        2979.75           2566          58.00       214.47
 1272.15        2980.00           2569          55.00       201.40
 1272.18        2980.25           2573          52.00       188.32
 1272.21        2980.50           2577          51.00       183.96
 1272.24        2980.75           2580          53.00       192.68
 1272.27        2981.00           2584          45.00       157.80
 1272.31        2981.25           2587          54.00       197.04
 1272.34        2981.50           2591          50.00       179.60
 1272.37        2981.75           2594          48.00       170.88
 1272.40        2982.00           2598          50.00       179.60
 1272.43        2982.25           2601          52.00       188.32
 1272.46        2982.50           2605          53.00       192.68
 1272.49        2982.75           2609          42.00       144.73
 1272.52        2983.00           2612          50.00       179.60
 1272.55        2983.25           2616          45.00       157.80
 1272.58        2983.50           2619          46.00       162.16
 1272.61        2983.75           2623          45.00       157.80
 1272.64        2984.00           2626          49.00       175.24
HS scan finished at 21:12:52
end
