************************************************************
  HS Scan of (1) Internal mercury lamp
************************************************************
Integration time is 0.2294 seconds per sample
dh270617Reading 51.44 .94 3.58pr1000
************************************************************
Dead Time -------------------------  3.4E-08 
Number of Cycles Used -------------  4 
Starting Wavelength (Angstroms) ---  2950 
Final Wavelength (Angstoms) -------  2984 
Wavelength Increment (Angstroms) --  .25 
Filter Wheel #1 Position ---------- (1) Ground quartz diffuser (ND=2.32)
Filter Wheel #2 Position ---------- (1) Neutral Density 0.494



************************************************************
HS scan start time = 02:39:55
Dark Count =  3.3 


Time (GMT)  Wavelength (Ang)  Step Number  Raw Counts  Counts/Second

  160.81        2950.00           2144         257.00      1105.97
  161.00        2950.25           2147         296.00      1275.99
  161.03        2950.50           2151         292.00      1258.55
  161.06        2950.75           2155         256.00      1101.61
  161.09        2951.00           2158         269.00      1158.28
  161.12        2951.25           2162         263.00      1132.13
  161.16        2951.50           2165         292.00      1258.55
  161.19        2951.75           2169         285.00      1228.04
  161.22        2952.00           2172         284.00      1223.68
  161.25        2952.25           2176         296.00      1275.99
  161.28        2952.50           2179         286.00      1232.40
  161.31        2952.75           2183         281.00      1210.60
  161.34        2953.00           2186         281.00      1210.60
  161.37        2953.25           2190         290.00      1249.84
  161.40        2953.50           2193         283.00      1219.32
  161.43        2953.75           2197         287.00      1236.76
  161.46        2954.00           2200         300.00      1293.43
  161.49        2954.25           2204         305.00      1315.23
  161.52        2954.50           2208         283.00      1219.32
  161.55        2954.75           2211         297.00      1280.35
  161.58        2955.00           2215         295.00      1271.63
  161.61        2955.25           2218         308.00      1328.31
  161.64        2955.50           2222         312.00      1345.75
  161.68        2955.75           2225         316.00      1363.18
  161.71        2956.00           2229         310.00      1337.03
  161.74        2956.25           2232         294.00      1267.27
  161.77        2956.50           2236         316.00      1363.18
  161.80        2956.75           2239         309.00      1332.67
  161.83        2957.00           2243         328.00      1415.50
  161.86        2957.25           2246         323.00      1393.70
  161.89        2957.50           2250         325.00      1402.42
  161.92        2957.75           2254         328.00      1415.50
  161.95        2958.00           2257         350.00      1511.41
  161.98        2958.25           2261         355.00      1533.21
  162.01        2958.50           2264         350.00      1511.41
  162.04        2958.75           2268         359.00      1550.65
  162.07        2959.00           2271         329.00      1419.86
  162.10        2959.25           2275         357.00      1541.93
  162.13        2959.50           2278         366.00      1581.17
  162.16        2959.75           2282         367.00      1585.53
  162.19        2960.00           2285         407.00      1759.91
  162.23        2960.25           2289         391.00      1690.16
  162.26        2960.50           2293         407.00      1759.91
  162.29        2960.75           2296         440.00      1903.79
  162.32        2961.00           2300         575.00      2492.36
  162.35        2961.25           2303        1276.00      5549.00
  162.38        2961.50           2307        4358.00     18995.26
  162.41        2961.75           2310        8012.00     34953.02
  162.44        2962.00           2314       13561.00     59219.82
  162.47        2962.25           2317       18186.00     79476.46
  162.50        2962.50           2321       24390.00    106692.80
  162.53        2962.75           2324       29551.00    129372.10
  162.56        2963.00           2328       36679.00    160752.90
  162.59        2963.25           2331       41908.00    183816.10
  162.62        2963.50           2335       48658.00    213641.70
  162.65        2963.75           2339       54516.00    239575.20
  162.68        2964.00           2342       59394.00    261205.30
  162.72        2964.25           2346       66044.00    290744.50
  162.75        2964.50           2349       71461.00    314850.80
  162.78        2964.75           2353       77353.00    341116.10
  162.81        2965.00           2356       81705.00    360546.70
  162.84        2965.25           2360       87295.00    385542.70
  162.87        2965.50           2363       91559.00    404638.20
  162.90        2965.75           2367       97857.00    432888.30
  162.93        2966.00           2370      102573.00    454078.20
  162.96        2966.25           2374      108383.00    480225.90
  162.99        2966.50           2378      110734.00    490819.90
  163.02        2966.75           2381      111732.00    495319.30
  163.05        2967.00           2385      111719.00    495260.70
  163.08        2967.25           2388      112027.00    496649.60
  163.11        2967.50           2392      111650.00    494949.60
  163.15        2967.75           2395      111435.00    493980.20
  163.18        2968.00           2399      108196.00    479383.60
  163.21        2968.25           2402      104508.00    462781.40
  163.24        2968.50           2406       98236.00    434590.20
  163.27        2968.75           2409       93617.00    413863.50
  163.30        2969.00           2413       87699.00    387350.90
  163.33        2969.25           2417       82360.00    363473.40
  163.36        2969.50           2420       77079.00    339893.60
  163.39        2969.75           2424       70164.00    309075.40
  163.42        2970.00           2427       64630.00    284458.50
  163.45        2970.25           2431       57743.00    253880.80
  163.48        2970.50           2434       52897.00    232403.30
  163.51        2970.75           2438       45871.00    201319.70
  163.54        2971.00           2441       40718.00    178564.30
  163.57        2971.25           2445       33731.00    147766.30
  163.60        2971.50           2449       26998.00    118148.90
  163.63        2971.75           2452       22139.00     96812.05
  163.67        2972.00           2456       15662.00     68418.35
  163.70        2972.25           2459       10743.00     46891.18
  163.73        2972.50           2463        5723.00     24954.47
  163.76        2972.75           2466        2892.00     12597.81
  163.79        2973.00           2470         947.00      4114.35
  163.82        2973.25           2473         524.00      2270.01
  163.85        2973.50           2477         452.00      1956.10
  163.88        2973.75           2481         429.00      1855.83
  163.91        2974.00           2484         433.00      1873.27
  163.94        2974.25           2488         434.00      1877.63
  163.97        2974.50           2491         386.00      1668.36
  164.00        2974.75           2495         385.00      1664.00
  164.03        2975.00           2498         434.00      1877.63
  164.06        2975.25           2502         371.00      1602.96
  164.09        2975.50           2505         370.00      1598.60
  164.12        2975.75           2509         366.00      1581.17
  164.15        2976.00           2512         397.00      1716.32
  164.19        2976.25           2516         370.00      1598.60
  164.22        2976.50           2520         341.00      1472.17
  164.25        2976.75           2523         362.00      1563.73
  164.28        2977.00           2527         338.00      1459.10
  164.31        2977.25           2530         324.00      1398.06
  164.34        2977.50           2534         347.00      1498.33
  164.37        2977.75           2537         367.00      1585.53
  164.40        2978.00           2541         309.00      1332.67
  164.43        2978.25           2544         330.00      1424.22
  164.46        2978.50           2548         321.00      1384.98
  164.49        2978.75           2552         318.00      1371.90
  164.52        2979.00           2555         320.00      1380.62
  164.55        2979.25           2559         324.00      1398.06
  164.58        2979.50           2562         296.00      1275.99
  164.61        2979.75           2566         306.00      1319.59
  164.64        2980.00           2569         293.00      1262.91
  164.67        2980.25           2573         289.00      1245.48
  164.71        2980.50           2577         296.00      1275.99
  164.74        2980.75           2580         293.00      1262.91
  164.77        2981.00           2584         286.00      1232.40
  164.80        2981.25           2587         290.00      1249.84
  164.83        2981.50           2591         305.00      1315.23
  164.86        2981.75           2594         286.00      1232.40
  164.89        2982.00           2598         284.00      1223.68
  164.92        2982.25           2601         284.00      1223.68
  164.95        2982.50           2605         283.00      1219.32
  164.98        2982.75           2609         268.00      1153.93
  165.01        2983.00           2612         270.00      1162.64
  165.04        2983.25           2616         291.00      1254.19
  165.07        2983.50           2619         286.00      1232.40
  165.10        2983.75           2623         273.00      1175.72
  165.13        2984.00           2626         265.00      1140.85
HS scan finished at 02:45:21
end
************************************************************
  HS Scan of (1) Internal mercury lamp
************************************************************
Integration time is 0.2294 seconds per sample
dh270617Reading 51.44 .94 3.49pr1000
************************************************************
Dead Time -------------------------  3.4E-08 
Number of Cycles Used -------------  4 
Starting Wavelength (Angstroms) ---  2950 
Final Wavelength (Angstoms) -------  2984 
Wavelength Increment (Angstroms) --  .25 
Filter Wheel #1 Position ---------- (1) Ground quartz diffuser (ND=2.32)
Filter Wheel #2 Position ---------- (1) Neutral Density 0.494



************************************************************
HS scan start time = 21:07:22
Dark Count =  2.4 


Time (GMT)  Wavelength (Ang)  Step Number  Raw Counts  Counts/Second

 1268.26        2950.00           2144         407.00      1763.84
 1268.45        2950.25           2147         405.00      1755.12
 1268.48        2950.50           2151         406.00      1759.48
 1268.51        2950.75           2155         388.00      1681.00
 1268.55        2951.00           2158         397.00      1720.24
 1268.58        2951.25           2162         401.00      1737.68
 1268.61        2951.50           2165         418.00      1811.79
 1268.64        2951.75           2169         411.00      1781.28
 1268.67        2952.00           2172         398.00      1724.60
 1268.70        2952.25           2176         421.00      1824.87
 1268.73        2952.50           2179         434.00      1881.55
 1268.76        2952.75           2183         418.00      1811.79
 1268.79        2953.00           2186         421.00      1824.87
 1268.82        2953.25           2190         408.00      1768.20
 1268.85        2953.50           2193         427.00      1851.03
 1268.88        2953.75           2197         412.00      1785.64
 1268.91        2954.00           2200         414.00      1794.36
 1268.94        2954.25           2204         412.00      1785.64
 1268.97        2954.50           2208         417.00      1807.43
 1269.00        2954.75           2211         418.00      1811.79
 1269.03        2955.00           2215         430.00      1864.11
 1269.07        2955.25           2218         442.00      1916.43
 1269.10        2955.50           2222         436.00      1890.27
 1269.13        2955.75           2225         445.00      1929.51
 1269.16        2956.00           2229         468.00      2029.78
 1269.19        2956.25           2232         470.00      2038.50
 1269.22        2956.50           2236         466.00      2021.06
 1269.25        2956.75           2239         474.00      2055.94
 1269.28        2957.00           2243         473.00      2051.58
 1269.31        2957.25           2246         467.00      2025.42
 1269.34        2957.50           2250         487.00      2112.62
 1269.37        2957.75           2254         489.00      2121.34
 1269.40        2958.00           2257         479.00      2077.74
 1269.43        2958.25           2261         515.00      2234.69
 1269.46        2958.50           2264         493.00      2138.78
 1269.49        2958.75           2268         521.00      2260.85
 1269.52        2959.00           2271         501.00      2173.66
 1269.55        2959.25           2275         515.00      2234.69
 1269.59        2959.50           2278         542.00      2352.41
 1269.62        2959.75           2282         529.00      2295.73
 1269.65        2960.00           2285         549.00      2382.93
 1269.68        2960.25           2289         573.00      2487.57
 1269.71        2960.50           2293         563.00      2443.97
 1269.74        2960.75           2296         562.00      2439.61
 1269.77        2961.00           2300         634.00      2753.53
 1269.80        2961.25           2303         848.00      3686.60
 1269.83        2961.50           2307        2433.00     10599.29
 1269.86        2961.75           2310        5617.00     24495.55
 1269.89        2962.00           2314       12835.00     56046.54
 1269.92        2962.25           2317       19607.00     85709.74
 1269.95        2962.50           2321       28425.00    124425.00
 1269.98        2962.75           2324       34627.00    151716.10
 1270.01        2963.00           2328       42939.00    188371.80
 1270.04        2963.25           2331       49662.00    218087.20
 1270.07        2963.50           2335       58648.00    257899.30
 1270.11        2963.75           2339       66740.00    293843.50
 1270.14        2964.00           2342       73031.00    321848.90
 1270.17        2964.25           2346       82198.00    362753.50
 1270.20        2964.50           2349       89490.00    395373.50
 1270.23        2964.75           2353       99583.00    440644.00
 1270.26        2965.00           2356      106220.00    470490.00
 1270.29        2965.25           2360      113997.00    505540.20
 1270.32        2965.50           2363      119930.00    532336.50
 1270.35        2965.75           2367      129250.00    574529.80
 1270.38        2966.00           2370      135372.00    602312.00
 1270.41        2966.25           2374      144274.00    642804.80
 1270.44        2966.50           2378      149352.00    665953.80
 1270.47        2966.75           2381      150979.00    673378.70
 1270.50        2967.00           2385      150946.00    673228.00
 1270.53        2967.25           2388      151012.00    673529.30
 1270.56        2967.50           2392      151218.00    674469.60
 1270.59        2967.75           2395      150922.00    673118.50
 1270.63        2968.00           2399      147474.00    657388.30
 1270.66        2968.25           2402      142140.00    633087.50
 1270.69        2968.50           2406      134348.00    597661.30
 1270.72        2968.75           2409      128319.00    570309.60
 1270.75        2969.00           2413      120208.00    533593.30
 1270.78        2969.25           2417      112639.00    499413.70
 1270.81        2969.50           2420      106739.00    472826.40
 1270.84        2969.75           2424       97673.00    432066.30
 1270.87        2970.00           2427       90192.00    398517.70
 1270.90        2970.25           2431       80668.00    355918.50
 1270.93        2970.50           2434       73764.00    325115.50
 1270.96        2970.75           2438       64679.00    284680.30
 1270.99        2971.00           2441       58380.00    256710.40
 1271.02        2971.25           2445       49224.00    216149.40
 1271.05        2971.50           2449       40068.00    175700.40
 1271.08        2971.75           2452       33391.00    146273.20
 1271.11        2972.00           2456       24854.00    108734.30
 1271.15        2972.25           2459       18962.00     82881.88
 1271.18        2972.50           2463       10811.00     47192.49
 1271.21        2972.75           2466        5993.00     26137.43
 1271.24        2973.00           2470        2027.00      8828.28
 1271.27        2973.25           2473         886.00      3852.29
 1271.30        2973.50           2477         673.00      2923.57
 1271.33        2973.75           2481         656.00      2849.45
 1271.36        2974.00           2484         570.00      2474.49
 1271.39        2974.25           2488         565.00      2452.69
 1271.42        2974.50           2491         580.00      2518.09
 1271.45        2974.75           2495         573.00      2487.57
 1271.48        2975.00           2498         530.00      2300.09
 1271.51        2975.25           2502         530.00      2300.09
 1271.54        2975.50           2505         531.00      2304.45
 1271.57        2975.75           2509         515.00      2234.69
 1271.60        2976.00           2512         487.00      2112.62
 1271.63        2976.25           2516         510.00      2212.90
 1271.67        2976.50           2520         483.00      2095.18
 1271.70        2976.75           2523         477.00      2069.02
 1271.73        2977.00           2527         471.00      2042.86
 1271.76        2977.25           2530         458.00      1986.18
 1271.79        2977.50           2534         454.00      1968.75
 1271.82        2977.75           2537         453.00      1964.39
 1271.85        2978.00           2541         456.00      1977.47
 1271.88        2978.25           2544         446.00      1933.87
 1271.91        2978.50           2548         447.00      1938.23
 1271.94        2978.75           2552         424.00      1837.95
 1271.97        2979.00           2555         457.00      1981.82
 1272.00        2979.25           2559         445.00      1929.51
 1272.03        2979.50           2562         421.00      1824.87
 1272.06        2979.75           2566         434.00      1881.55
 1272.09        2980.00           2569         426.00      1846.67
 1272.12        2980.25           2573         427.00      1851.03
 1272.15        2980.50           2577         428.00      1855.39
 1272.18        2980.75           2580         407.00      1763.84
 1272.22        2981.00           2584         417.00      1807.43
 1272.25        2981.25           2587         416.00      1803.07
 1272.28        2981.50           2591         410.00      1776.92
 1272.31        2981.75           2594         411.00      1781.28
 1272.34        2982.00           2598         407.00      1763.84
 1272.37        2982.25           2601         381.00      1650.49
 1272.40        2982.50           2605         401.00      1737.68
 1272.43        2982.75           2609         387.00      1676.64
 1272.46        2983.00           2612         388.00      1681.00
 1272.49        2983.25           2616         384.00      1663.56
 1272.52        2983.50           2619         392.00      1698.44
 1272.55        2983.75           2623         389.00      1685.36
 1272.58        2984.00           2626         388.00      1681.00
HS scan finished at 21:12:48
end
