************************************************************
  HS Scan of (1) Internal mercury lamp
************************************************************
Integration time is 0.2294 seconds per sample
dh190617Reading 51.44 .94 3.82pr1000
************************************************************
Dead Time -------------------------  3.4E-08 
Number of Cycles Used -------------  4 
Starting Wavelength (Angstroms) ---  2950 
Final Wavelength (Angstoms) -------  2984 
Wavelength Increment (Angstroms) --  .25 
Filter Wheel #1 Position ---------- (1) Ground quartz diffuser (ND=2.32)
Filter Wheel #2 Position ---------- (1) Neutral Density 0.494



************************************************************
HS scan start time = 01:18:36
Dark Count =  5.3 


Time (GMT)  Wavelength (Ang)  Step Number  Raw Counts  Counts/Second

   79.50        2950.00           2144         269.00      1149.57
   79.70        2950.25           2147         279.00      1193.16
   79.73        2950.50           2151         262.00      1119.05
   79.76        2950.75           2155         275.00      1175.72
   79.79        2951.00           2158         273.00      1167.00
   79.82        2951.25           2162         289.00      1236.76
   79.85        2951.50           2165         275.00      1175.72
   79.88        2951.75           2169         242.00      1031.86
   79.91        2952.00           2172         278.00      1188.80
   79.94        2952.25           2176         259.00      1105.97
   79.97        2952.50           2179         265.00      1132.13
   80.00        2952.75           2183         275.00      1175.72
   80.03        2953.00           2186         292.00      1249.84
   80.06        2953.25           2190         263.00      1123.41
   80.09        2953.50           2193         268.00      1145.21
   80.12        2953.75           2197         305.00      1306.51
   80.16        2954.00           2200         304.00      1302.15
   80.19        2954.25           2204         273.00      1167.00
   80.22        2954.50           2208         290.00      1241.12
   80.25        2954.75           2211         289.00      1236.76
   80.28        2955.00           2215         298.00      1275.99
   80.31        2955.25           2218         275.00      1175.72
   80.34        2955.50           2222         285.00      1219.32
   80.37        2955.75           2225         284.00      1214.96
   80.40        2956.00           2229         284.00      1214.96
   80.43        2956.25           2232         298.00      1275.99
   80.46        2956.50           2236         287.00      1228.04
   80.49        2956.75           2239         295.00      1262.91
   80.52        2957.00           2243         292.00      1249.84
   80.55        2957.25           2246         303.00      1297.79
   80.58        2957.50           2250         305.00      1306.51
   80.61        2957.75           2254         314.00      1345.75
   80.64        2958.00           2257         313.00      1341.39
   80.67        2958.25           2261         335.00      1437.30
   80.71        2958.50           2264         336.00      1441.66
   80.74        2958.75           2268         315.00      1350.11
   80.77        2959.00           2271         369.00      1585.53
   80.80        2959.25           2275         349.00      1498.33
   80.83        2959.50           2278         349.00      1498.33
   80.86        2959.75           2282         365.00      1568.09
   80.89        2960.00           2285         357.00      1533.21
   80.92        2960.25           2289         362.00      1555.01
   80.95        2960.50           2293         408.00      1755.55
   80.98        2960.75           2296         376.00      1616.04
   81.01        2961.00           2300         520.00      2243.85
   81.04        2961.25           2303        1063.00      4611.45
   81.07        2961.50           2307        4406.00     19196.05
   81.10        2961.75           2310        8110.00     35372.51
   81.13        2962.00           2314       13295.00     58046.89
   81.16        2962.25           2317       17393.00     75992.52
   81.19        2962.50           2321       23203.00    101472.90
   81.23        2962.75           2324       27329.00    119594.70
   81.26        2963.00           2328       32817.00    143733.40
   81.29        2963.25           2331       37004.00    162176.40
   81.32        2963.50           2335       43204.00    189529.10
   81.35        2963.75           2339       49551.00    217583.20
   81.38        2964.00           2342       54374.00    238937.20
   81.41        2964.25           2346       59734.00    262705.30
   81.44        2964.50           2349       63785.00    280694.50
   81.47        2964.75           2353       69394.00    305638.80
   81.50        2965.00           2356       74459.00    328200.40
   81.53        2965.25           2360       80419.00    354793.40
   81.56        2965.50           2363       84709.00    373965.00
   81.59        2965.75           2367       89869.00    397058.00
   81.62        2966.00           2370       93672.00    414101.20
   81.65        2966.25           2374       98827.00    437235.30
   81.68        2966.50           2378      101998.00    451483.90
   81.71        2966.75           2381      102649.00    454410.90
   81.75        2967.00           2385      102805.00    455112.40
   81.78        2967.25           2388      102718.00    454721.20
   81.81        2967.50           2392      102578.00    454091.70
   81.84        2967.75           2395      101940.00    451223.20
   81.87        2968.00           2399       98909.00    437603.50
   81.90        2968.25           2402       95160.00    420775.10
   81.93        2968.50           2406       89935.00    397353.50
   81.96        2968.75           2409       85879.00    379198.00
   81.99        2969.00           2413       79358.00    350055.80
   82.02        2969.25           2417       73493.00    323894.70
   82.05        2969.50           2420       69142.00    304517.20
   82.08        2969.75           2424       62896.00    276744.80
   82.11        2970.00           2427       58546.00    257434.00
   82.14        2970.25           2431       52476.00    230530.00
   82.17        2970.50           2434       47341.00    207808.80
   82.20        2970.75           2438       41098.00    180232.30
   82.23        2971.00           2441       36666.00    160686.70
   82.27        2971.25           2445       31064.00    136018.60
   82.30        2971.50           2449       24764.00    108326.30
   82.33        2971.75           2452       20224.00     88402.62
   82.36        2972.00           2456       15169.00     66250.63
   82.39        2972.25           2459       11221.00     48972.93
   82.42        2972.50           2463        5500.00     23972.02
   82.45        2972.75           2466        2390.00     10399.06
   82.48        2973.00           2470         761.00      3294.62
   82.51        2973.25           2473         492.00      2121.78
   82.54        2973.50           2477         424.00      1825.31
   82.57        2973.75           2481         424.00      1825.31
   82.60        2974.00           2484         388.00      1668.36
   82.63        2974.25           2488         376.00      1616.04
   82.66        2974.50           2491         362.00      1555.01
   82.69        2974.75           2495         371.00      1594.25
   82.72        2975.00           2498         344.00      1476.53
   82.75        2975.25           2502         358.00      1537.57
   82.79        2975.50           2505         340.00      1459.10
   82.82        2975.75           2509         358.00      1537.57
   82.85        2976.00           2512         332.00      1424.22
   82.88        2976.25           2516         319.00      1367.54
   82.91        2976.50           2520         329.00      1411.14
   82.94        2976.75           2523         322.00      1380.62
   82.97        2977.00           2527         308.00      1319.59
   83.00        2977.25           2530         297.00      1271.63
   83.03        2977.50           2534         314.00      1345.75
   83.06        2977.75           2537         285.00      1219.32
   83.09        2978.00           2541         299.00      1280.35
   83.12        2978.25           2544         305.00      1306.51
   83.15        2978.50           2548         290.00      1241.12
   83.18        2978.75           2552         300.00      1284.71
   83.21        2979.00           2555         283.00      1210.60
   83.24        2979.25           2559         299.00      1280.35
   83.27        2979.50           2562         311.00      1332.67
   83.31        2979.75           2566         283.00      1210.60
   83.34        2980.00           2569         287.00      1228.04
   83.37        2980.25           2573         280.00      1197.52
   83.40        2980.50           2577         282.00      1206.24
   83.43        2980.75           2580         268.00      1145.21
   83.46        2981.00           2584         280.00      1197.52
   83.49        2981.25           2587         278.00      1188.80
   83.52        2981.50           2591         264.00      1127.77
   83.55        2981.75           2594         271.00      1158.28
   83.58        2982.00           2598         271.00      1158.28
   83.61        2982.25           2601         272.00      1162.64
   83.64        2982.50           2605         278.00      1188.80
   83.67        2982.75           2609         278.00      1188.80
   83.70        2983.00           2612         269.00      1149.57
   83.73        2983.25           2616         264.00      1127.77
   83.76        2983.50           2619         292.00      1249.84
   83.79        2983.75           2623         246.00      1049.30
   83.83        2984.00           2626         267.00      1140.85
HS scan finished at 01:24:03
end
************************************************************
  HS Scan of (1) Internal mercury lamp
************************************************************
Integration time is 0.2294 seconds per sample
dh190617Reading 51.44 .94 4.23pr1000
************************************************************
Dead Time -------------------------  3.4E-08 
Number of Cycles Used -------------  4 
Starting Wavelength (Angstroms) ---  2950 
Final Wavelength (Angstoms) -------  2984 
Wavelength Increment (Angstroms) --  .25 
Filter Wheel #1 Position ---------- (1) Ground quartz diffuser (ND=2.32)
Filter Wheel #2 Position ---------- (1) Neutral Density 0.494



************************************************************
HS scan start time = 21:07:28
Dark Count =  17.8 


Time (GMT)  Wavelength (Ang)  Step Number  Raw Counts  Counts/Second

 1268.36        2950.00           2144         262.00      1064.55
 1268.55        2950.25           2147         306.00      1256.37
 1268.58        2950.50           2151         280.00      1143.03
 1268.61        2950.75           2155         275.00      1121.23
 1268.64        2951.00           2158         265.00      1077.63
 1268.68        2951.25           2162         281.00      1147.39
 1268.71        2951.50           2165         278.00      1134.31
 1268.74        2951.75           2169         279.00      1138.67
 1268.77        2952.00           2172         295.00      1208.42
 1268.80        2952.25           2176         284.00      1160.46
 1268.83        2952.50           2179         275.00      1121.23
 1268.86        2952.75           2183         296.00      1212.78
 1268.89        2953.00           2186         287.00      1173.54
 1268.92        2953.25           2190         294.00      1204.06
 1268.95        2953.50           2193         288.00      1177.90
 1268.98        2953.75           2197         296.00      1212.78
 1269.01        2954.00           2200         284.00      1160.46
 1269.04        2954.25           2204         311.00      1278.17
 1269.07        2954.50           2208         294.00      1204.06
 1269.10        2954.75           2211         298.00      1221.50
 1269.13        2955.00           2215         318.00      1308.69
 1269.16        2955.25           2218         297.00      1217.14
 1269.20        2955.50           2222         296.00      1212.78
 1269.23        2955.75           2225         311.00      1278.17
 1269.26        2956.00           2229         294.00      1204.06
 1269.29        2956.25           2232         284.00      1160.46
 1269.32        2956.50           2236         319.00      1313.05
 1269.35        2956.75           2239         315.00      1295.61
 1269.38        2957.00           2243         326.00      1343.57
 1269.41        2957.25           2246         315.00      1295.61
 1269.44        2957.50           2250         340.00      1404.60
 1269.47        2957.75           2254         343.00      1417.68
 1269.50        2958.00           2257         343.00      1417.68
 1269.53        2958.25           2261         337.00      1391.52
 1269.56        2958.50           2264         361.00      1496.15
 1269.59        2958.75           2268         352.00      1456.92
 1269.62        2959.00           2271         379.00      1574.63
 1269.65        2959.25           2275         355.00      1470.00
 1269.68        2959.50           2278         367.00      1522.31
 1269.72        2959.75           2282         385.00      1600.78
 1269.75        2960.00           2285         391.00      1626.94
 1269.78        2960.25           2289         416.00      1735.94
 1269.81        2960.50           2293         419.00      1749.01
 1269.84        2960.75           2296         423.00      1766.45
 1269.87        2961.00           2300         516.00      2171.91
 1269.90        2961.25           2303         775.00      3301.16
 1269.93        2961.50           2307        2992.00     12970.85
 1269.96        2961.75           2310        6721.00     29249.65
 1269.99        2962.00           2314       12837.00     55987.92
 1270.02        2962.25           2317       17645.00     77042.00
 1270.05        2962.50           2321       24320.00    106321.80
 1270.08        2962.75           2324       28993.00    126854.60
 1270.11        2963.00           2328       36386.00    159397.70
 1270.14        2963.25           2331       42247.00    185248.60
 1270.17        2963.50           2335       49500.00    217302.30
 1270.20        2963.75           2339       56278.00    247320.30
 1270.23        2964.00           2342       61393.00    270014.20
 1270.27        2964.25           2346       68400.00    301159.50
 1270.30        2964.50           2349       73704.00    324779.40
 1270.33        2964.75           2353       80294.00    354179.40
 1270.36        2965.00           2356       85906.00    379262.90
 1270.39        2965.25           2360       92396.00    408324.50
 1270.42        2965.50           2363       98095.00    433891.90
 1270.45        2965.75           2367      104023.00    460534.30
 1270.48        2966.00           2370      108827.00    482160.80
 1270.51        2966.25           2374      113873.00    504911.20
 1270.54        2966.50           2378      116737.00    517839.70
 1270.57        2966.75           2381      117146.00    519687.00
 1270.60        2967.00           2385      117591.00    521697.00
 1270.63        2967.25           2388      117669.00    522049.40
 1270.66        2967.50           2392      117785.00    522573.40
 1270.69        2967.75           2395      116660.00    517492.00
 1270.72        2968.00           2399      113528.00    503354.60
 1270.75        2968.25           2402      109488.00    485138.90
 1270.79        2968.50           2406      103508.00    458217.70
 1270.82        2968.75           2409       98430.00    435396.20
 1270.85        2969.00           2413       91388.00    403807.00
 1270.88        2969.25           2417       85337.00    376717.70
 1270.91        2969.50           2420       80701.00    355997.10
 1270.94        2969.75           2424       75022.00    330654.70
 1270.97        2970.00           2427       69768.00    307247.90
 1271.00        2970.25           2431       62093.00    273122.60
 1271.03        2970.50           2434       56476.00    248198.20
 1271.06        2970.75           2438       49109.00    215572.50
 1271.09        2971.00           2441       43756.00    191911.60
 1271.12        2971.25           2445       37292.00    163390.80
 1271.15        2971.50           2449       30715.00    134428.20
 1271.18        2971.75           2452       25910.00    113304.90
 1271.21        2972.00           2456       19191.00     83818.30
 1271.24        2972.25           2459       14317.00     62465.58
 1271.28        2972.50           2463        8127.00     35392.17
 1271.31        2972.75           2466        4136.00     17963.02
 1271.34        2973.00           2470        1325.00      5699.45
 1271.37        2973.25           2473         682.00      2895.66
 1271.40        2973.50           2477         499.00      2097.80
 1271.43        2973.75           2481         460.00      1927.76
 1271.46        2974.00           2484         440.00      1840.57
 1271.49        2974.25           2488         425.00      1775.17
 1271.52        2974.50           2491         420.00      1753.37
 1271.55        2974.75           2495         430.00      1796.97
 1271.58        2975.00           2498         379.00      1574.63
 1271.61        2975.25           2502         383.00      1592.07
 1271.64        2975.50           2505         349.00      1443.84
 1271.67        2975.75           2509         363.00      1504.87
 1271.70        2976.00           2512         359.00      1487.43
 1271.73        2976.25           2516         347.00      1435.12
 1271.76        2976.50           2520         343.00      1417.68
 1271.79        2976.75           2523         331.00      1365.36
 1271.83        2977.00           2527         325.00      1339.21
 1271.86        2977.25           2530         333.00      1374.08
 1271.89        2977.50           2534         331.00      1365.36
 1271.92        2977.75           2537         328.00      1352.29
 1271.95        2978.00           2541         322.00      1326.13
 1271.98        2978.25           2544         315.00      1295.61
 1272.01        2978.50           2548         329.00      1356.65
 1272.04        2978.75           2552         309.00      1269.45
 1272.07        2979.00           2555         308.00      1265.09
 1272.10        2979.25           2559         320.00      1317.41
 1272.13        2979.50           2562         308.00      1265.09
 1272.16        2979.75           2566         315.00      1295.61
 1272.19        2980.00           2569         306.00      1256.37
 1272.22        2980.25           2573         293.00      1199.70
 1272.25        2980.50           2577         305.00      1252.01
 1272.28        2980.75           2580         307.00      1260.73
 1272.31        2981.00           2584         301.00      1234.58
 1272.35        2981.25           2587         280.00      1143.03
 1272.38        2981.50           2591         294.00      1204.06
 1272.41        2981.75           2594         275.00      1121.23
 1272.44        2982.00           2598         274.00      1116.87
 1272.47        2982.25           2601         270.00      1099.43
 1272.50        2982.50           2605         283.00      1156.10
 1272.53        2982.75           2609         286.00      1169.18
 1272.56        2983.00           2612         297.00      1217.14
 1272.59        2983.25           2616         288.00      1177.90
 1272.62        2983.50           2619         262.00      1064.55
 1272.65        2983.75           2623         274.00      1116.87
 1272.68        2984.00           2626         273.00      1112.51
HS scan finished at 21:12:54
end
