************************************************************
  HS Scan of (1) Internal mercury lamp
************************************************************
Integration time is 0.2294 seconds per sample
dh200618Reading 51.44 .94 3.72pr1000
************************************************************
Dead Time -------------------------  3.4E-08 
Number of Cycles Used -------------  4 
Starting Wavelength (Angstroms) ---  2950 
Final Wavelength (Angstoms) -------  2984 
Wavelength Increment (Angstroms) --  .25 
Filter Wheel #1 Position ---------- (1) Ground quartz diffuser (ND=2.32)
Filter Wheel #2 Position ---------- (1) Neutral Density 0.494



************************************************************
HS scan start time = 02:37:11
Dark Count =  4 


Time (GMT)  Wavelength (Ang)  Step Number  Raw Counts  Counts/Second

  158.08        2950.00           2144          57.00       231.04
  158.28        2950.25           2147          62.00       252.84
  158.31        2950.50           2151          64.00       261.55
  158.34        2950.75           2155          60.00       244.12
  158.37        2951.00           2158          62.00       252.84
  158.40        2951.25           2162          64.00       261.55
  158.43        2951.50           2165          63.00       257.19
  158.46        2951.75           2169          64.00       261.55
  158.49        2952.00           2172          64.00       261.55
  158.52        2952.25           2176          64.00       261.55
  158.55        2952.50           2179          60.00       244.12
  158.58        2952.75           2183          61.00       248.48
  158.61        2953.00           2186          60.00       244.12
  158.64        2953.25           2190          64.00       261.55
  158.69        2953.50           2193          64.00       261.55
  158.72        2953.75           2197          65.00       265.91
  158.75        2954.00           2200          70.00       287.71
  158.78        2954.25           2204          62.00       252.84
  158.81        2954.50           2208          62.00       252.84
  158.84        2954.75           2211          63.00       257.19
  158.87        2955.00           2215          62.00       252.84
  158.90        2955.25           2218          75.00       309.51
  158.94        2955.50           2222          61.00       248.48
  158.97        2955.75           2225          68.00       278.99
  159.00        2956.00           2229          61.00       248.48
  159.03        2956.25           2232          70.00       287.71
  159.06        2956.50           2236          76.00       313.87
  159.09        2956.75           2239          75.00       309.51
  159.12        2957.00           2243          68.00       278.99
  159.15        2957.25           2246          69.00       283.35
  159.18        2957.50           2250          73.00       300.79
  159.21        2957.75           2254          71.00       292.07
  159.25        2958.00           2257          77.00       318.22
  159.29        2958.25           2261          78.00       322.58
  159.32        2958.50           2264          84.00       348.74
  159.35        2958.75           2268          79.00       326.94
  159.38        2959.00           2271          83.00       344.38
  159.41        2959.25           2275          86.00       357.46
  159.44        2959.50           2278          78.00       322.58
  159.47        2959.75           2282          85.00       353.10
  159.50        2960.00           2285          86.00       357.46
  159.53        2960.25           2289          90.00       374.90
  159.56        2960.50           2293          95.00       396.69
  159.59        2960.75           2296          95.00       396.69
  159.62        2961.00           2300         123.00       518.75
  159.65        2961.25           2303         232.00       993.93
  159.69        2961.50           2307         726.00      3147.68
  159.72        2961.75           2310        1560.00      6784.48
  159.75        2962.00           2314        2800.00     12193.37
  159.78        2962.25           2317        3790.00     16513.19
  159.81        2962.50           2321        5095.00     22209.44
  159.84        2962.75           2324        6058.00     26414.30
  159.87        2963.00           2328        7444.00     32468.26
  159.90        2963.25           2331        8461.00     36912.03
  159.93        2963.50           2335        9733.00     42471.92
  159.96        2963.75           2339       11228.00     49009.24
  159.99        2964.00           2342       12139.00     52994.27
  160.02        2964.25           2346       13661.00     59654.44
  160.05        2964.50           2349       14758.00     64456.71
  160.08        2964.75           2353       16077.00     70232.90
  160.11        2965.00           2356       17072.00     74591.73
  160.14        2965.25           2360       18498.00     80840.91
  160.17        2965.50           2363       19475.00     85123.96
  160.21        2965.75           2367       20898.00     91364.46
  160.24        2966.00           2370       21856.00     95567.21
  160.27        2966.25           2374       23074.00    100912.30
  160.30        2966.50           2378       23759.00    103919.30
  160.33        2966.75           2381       23732.00    103800.70
  160.36        2967.00           2385       23922.00    104634.90
  160.39        2967.25           2388       23777.00    103998.30
  160.42        2967.50           2392       23695.00    103638.30
  160.45        2967.75           2395       23434.00    102492.60
  160.48        2968.00           2399       22873.00    100030.10
  160.51        2968.25           2402       21684.00     94812.56
  160.54        2968.50           2406       20483.00     89544.22
  160.57        2968.75           2409       19546.00     85435.26
  160.60        2969.00           2413       18272.00     79850.32
  160.63        2969.25           2417       16945.00     74035.30
  160.66        2969.50           2420       16438.00     71814.20
  160.69        2969.75           2424       15025.00     65625.78
  160.73        2970.00           2427       13739.00     59995.85
  160.76        2970.25           2431       12369.00     54000.54
  160.79        2970.50           2434       11352.00     49551.60
  160.82        2970.75           2438       10131.00     44212.01
  160.85        2971.00           2441        9037.00     39429.46
  160.88        2971.25           2445        7409.00     32315.35
  160.91        2971.50           2449        5957.00     25973.23
  160.94        2971.75           2452        4878.00     21262.10
  160.97        2972.00           2456        3556.00     15492.03
  161.00        2972.25           2459        2617.00     11395.00
  161.03        2972.50           2463        1456.00      6330.92
  161.06        2972.75           2466         737.00      3195.64
  161.09        2973.00           2470         204.00       871.87
  161.12        2973.25           2473         141.00       597.22
  161.15        2973.50           2477         122.00       514.39
  161.18        2973.75           2481          96.00       401.05
  161.21        2974.00           2484         100.00       418.49
  161.25        2974.25           2488         111.00       466.44
  161.28        2974.50           2491         106.00       444.64
  161.31        2974.75           2495          95.00       396.69
  161.34        2975.00           2498          90.00       374.90
  161.37        2975.25           2502          82.00       340.02
  161.40        2975.50           2505          93.00       387.97
  161.43        2975.75           2509          80.00       331.30
  161.46        2976.00           2512          78.00       322.58
  161.49        2976.25           2516          83.00       344.38
  161.52        2976.50           2520          75.00       309.51
  161.55        2976.75           2523          80.00       331.30
  161.58        2977.00           2527          76.00       313.87
  161.61        2977.25           2530          70.00       287.71
  161.64        2977.50           2534          73.00       300.79
  161.67        2977.75           2537          73.00       300.79
  161.70        2978.00           2541          76.00       313.87
  161.73        2978.25           2544          76.00       313.87
  161.76        2978.50           2548          73.00       300.79
  161.80        2978.75           2552          66.00       270.27
  161.83        2979.00           2555          74.00       305.15
  161.86        2979.25           2559          76.00       313.87
  161.89        2979.50           2562          71.00       292.07
  161.92        2979.75           2566          71.00       292.07
  161.95        2980.00           2569          65.00       265.91
  161.98        2980.25           2573          63.00       257.19
  162.01        2980.50           2577          71.00       292.07
  162.04        2980.75           2580          65.00       265.91
  162.07        2981.00           2584          68.00       278.99
  162.10        2981.25           2587          71.00       292.07
  162.13        2981.50           2591          64.00       261.55
  162.16        2981.75           2594          70.00       287.71
  162.19        2982.00           2598          65.00       265.91
  162.22        2982.25           2601          68.00       278.99
  162.25        2982.50           2605          68.00       278.99
  162.28        2982.75           2609          70.00       287.71
  162.32        2983.00           2612          72.00       296.43
  162.35        2983.25           2616          63.00       257.19
  162.38        2983.50           2619          66.00       270.27
  162.41        2983.75           2623          67.00       274.63
  162.44        2984.00           2626          62.00       252.84
HS scan finished at 02:42:40
end
************************************************************
  HS Scan of (1) Internal mercury lamp
************************************************************
Integration time is 0.2294 seconds per sample
dh200618Reading 51.44 .94 3.64pr1000
************************************************************
Dead Time -------------------------  3.4E-08 
Number of Cycles Used -------------  4 
Starting Wavelength (Angstroms) ---  2950 
Final Wavelength (Angstoms) -------  2984 
Wavelength Increment (Angstroms) --  .25 
Filter Wheel #1 Position ---------- (1) Ground quartz diffuser (ND=2.32)
Filter Wheel #2 Position ---------- (1) Neutral Density 0.494



************************************************************
HS scan start time = 21:07:25
Dark Count =  3.8 


Time (GMT)  Wavelength (Ang)  Step Number  Raw Counts  Counts/Second

 1268.31        2950.00           2144          53.00       214.47
 1268.50        2950.25           2147          42.00       166.52
 1268.53        2950.50           2151          45.00       179.60
 1268.56        2950.75           2155          44.00       175.24
 1268.59        2951.00           2158          50.00       201.40
 1268.62        2951.25           2162          49.00       197.04
 1268.66        2951.50           2165          55.00       223.19
 1268.69        2951.75           2169          50.00       201.40
 1268.72        2952.00           2172          58.00       236.27
 1268.75        2952.25           2176          50.00       201.40
 1268.78        2952.50           2179          49.00       197.04
 1268.81        2952.75           2183          52.00       210.11
 1268.84        2953.00           2186          55.00       223.19
 1268.87        2953.25           2190          58.00       236.27
 1268.90        2953.50           2193          60.00       244.99
 1268.93        2953.75           2197          52.00       210.11
 1268.96        2954.00           2200          50.00       201.40
 1268.99        2954.25           2204          55.00       223.19
 1269.02        2954.50           2208          62.00       253.71
 1269.05        2954.75           2211          58.00       236.27
 1269.08        2955.00           2215          57.00       231.91
 1269.11        2955.25           2218          55.00       223.19
 1269.15        2955.50           2222          62.00       253.71
 1269.18        2955.75           2225          56.00       227.55
 1269.21        2956.00           2229          51.00       205.76
 1269.24        2956.25           2232          66.00       271.14
 1269.27        2956.50           2236          58.00       236.27
 1269.30        2956.75           2239          55.00       223.19
 1269.33        2957.00           2243          60.00       244.99
 1269.36        2957.25           2246          55.00       223.19
 1269.39        2957.50           2250          60.00       244.99
 1269.42        2957.75           2254          58.00       236.27
 1269.45        2958.00           2257          62.00       253.71
 1269.48        2958.25           2261          62.00       253.71
 1269.51        2958.50           2264          66.00       271.14
 1269.54        2958.75           2268          73.00       301.66
 1269.57        2959.00           2271          71.00       292.94
 1269.60        2959.25           2275          61.00       249.35
 1269.63        2959.50           2278          63.00       258.07
 1269.66        2959.75           2282          72.00       297.30
 1269.70        2960.00           2285          75.00       310.38
 1269.73        2960.25           2289          68.00       279.86
 1269.76        2960.50           2293          75.00       310.38
 1269.79        2960.75           2296          73.00       301.66
 1269.82        2961.00           2300          98.00       410.64
 1269.85        2961.25           2303         241.00      1034.04
 1269.88        2961.50           2307         771.00      3344.76
 1269.91        2961.75           2310        1415.00      6152.99
 1269.94        2962.00           2314        2323.00     10113.33
 1269.97        2962.25           2317        2947.00     12835.59
 1270.00        2962.50           2321        3978.00     17334.54
 1270.03        2962.75           2324        4835.00     21075.26
 1270.06        2963.00           2328        5858.00     25541.79
 1270.09        2963.25           2331        6777.00     29555.41
 1270.12        2963.50           2335        7971.00     34771.68
 1270.15        2963.75           2339        8841.00     38573.67
 1270.18        2964.00           2342        9731.00     42464.06
 1270.22        2964.25           2346       10956.00     47820.50
 1270.25        2964.50           2349       11640.00     50812.21
 1270.28        2964.75           2353       12682.00     55370.93
 1270.31        2965.00           2356       13605.00     59410.21
 1270.34        2965.25           2360       14461.00     63157.28
 1270.37        2965.50           2363       15021.00     65609.15
 1270.40        2965.75           2367       16037.00     70058.58
 1270.43        2966.00           2370       16645.00     72721.87
 1270.46        2966.25           2374       17844.00     77975.41
 1270.49        2966.50           2378       18366.00     80263.20
 1270.52        2966.75           2381       18264.00     79816.13
 1270.55        2967.00           2385       18350.00     80193.07
 1270.58        2967.25           2388       18344.00     80166.78
 1270.61        2967.50           2392       18202.00     79544.40
 1270.64        2967.75           2395       18420.00     80499.88
 1270.67        2968.00           2399       17739.00     77515.26
 1270.70        2968.25           2402       17083.00     74640.80
 1270.74        2968.50           2406       16037.00     70058.58
 1270.77        2968.75           2409       15106.00     65981.35
 1270.80        2969.00           2413       14192.00     61979.65
 1270.83        2969.25           2417       13220.00     57725.22
 1270.86        2969.50           2420       12490.00     54530.83
 1270.89        2969.75           2424       11352.00     49552.47
 1270.92        2970.00           2427       10385.00     45323.50
 1270.95        2970.25           2431        9326.00     40693.58
 1270.98        2970.50           2434        8529.00     37210.08
 1271.01        2970.75           2438        7495.00     32691.94
 1271.04        2971.00           2441        6773.00     29537.93
 1271.07        2971.25           2445        5592.00     24380.27
 1271.10        2971.50           2449        4461.00     19442.67
 1271.13        2971.75           2452        3575.00     15575.82
 1271.16        2972.00           2456        2633.00     11465.67
 1271.19        2972.25           2459        1897.00      8255.15
 1271.22        2972.50           2463         973.00      4225.54
 1271.26        2972.75           2466         418.00      1805.69
 1271.29        2973.00           2470         147.00       624.25
 1271.32        2973.25           2473          96.00       401.92
 1271.35        2973.50           2477          79.00       327.82
 1271.38        2973.75           2481          76.00       314.74
 1271.41        2974.00           2484          73.00       301.66
 1271.44        2974.25           2488          66.00       271.14
 1271.47        2974.50           2491          67.00       275.50
 1271.50        2974.75           2495          67.00       275.50
 1271.53        2975.00           2498          70.00       288.58
 1271.56        2975.25           2502          69.00       284.22
 1271.59        2975.50           2505          64.00       262.43
 1271.62        2975.75           2509          68.00       279.86
 1271.65        2976.00           2512          65.00       266.79
 1271.68        2976.25           2516          58.00       236.27
 1271.71        2976.50           2520          65.00       266.79
 1271.74        2976.75           2523          59.00       240.63
 1271.78        2977.00           2527          61.00       249.35
 1271.81        2977.25           2530          62.00       253.71
 1271.84        2977.50           2534          60.00       244.99
 1271.87        2977.75           2537          57.00       231.91
 1271.90        2978.00           2541          64.00       262.43
 1271.94        2978.25           2544          58.00       236.27
 1271.97        2978.50           2548          55.00       223.19
 1272.00        2978.75           2552          51.00       205.76
 1272.03        2979.00           2555          53.00       214.47
 1272.07        2979.25           2559          50.00       201.40
 1272.10        2979.50           2562          62.00       253.71
 1272.13        2979.75           2566          55.00       223.19
 1272.16        2980.00           2569          58.00       236.27
 1272.19        2980.25           2573          62.00       253.71
 1272.22        2980.50           2577          57.00       231.91
 1272.25        2980.75           2580          55.00       223.19
 1272.28        2981.00           2584          54.00       218.83
 1272.31        2981.25           2587          53.00       214.47
 1272.34        2981.50           2591          50.00       201.40
 1272.37        2981.75           2594          52.00       210.11
 1272.40        2982.00           2598          49.00       197.04
 1272.43        2982.25           2601          51.00       205.76
 1272.46        2982.50           2605          48.00       192.68
 1272.49        2982.75           2609          57.00       231.91
 1272.52        2983.00           2612          50.00       201.40
 1272.55        2983.25           2616          50.00       201.40
 1272.59        2983.50           2619          47.00       188.32
 1272.62        2983.75           2623          52.00       210.11
 1272.65        2984.00           2626          53.00       214.47
HS scan finished at 21:12:52
end
