************************************************************
  HS Scan of (1) Internal mercury lamp
************************************************************
Integration time is 0.2294 seconds per sample
dh250618Reading 51.44 .94 3.45pr1000
************************************************************
Dead Time -------------------------  3.4E-08 
Number of Cycles Used -------------  4 
Starting Wavelength (Angstroms) ---  2950 
Final Wavelength (Angstoms) -------  2984 
Wavelength Increment (Angstroms) --  .25 
Filter Wheel #1 Position ---------- (1) Ground quartz diffuser (ND=2.32)
Filter Wheel #2 Position ---------- (1) Neutral Density 0.494



************************************************************
HS scan start time = 01:18:38
Dark Count =  1.5 


Time (GMT)  Wavelength (Ang)  Step Number  Raw Counts  Counts/Second

   79.53        2950.00           2144          69.00       294.25
   79.72        2950.25           2147          73.00       311.69
   79.75        2950.50           2151          68.00       289.89
   79.78        2950.75           2155          75.00       320.40
   79.81        2951.00           2158          71.00       302.97
   79.84        2951.25           2162          68.00       289.89
   79.87        2951.50           2165          71.00       302.97
   79.90        2951.75           2169          71.00       302.97
   79.93        2952.00           2172          72.00       307.33
   79.96        2952.25           2176          71.00       302.97
   79.99        2952.50           2179          76.00       324.76
   80.02        2952.75           2183          68.00       289.89
   80.06        2953.00           2186          66.00       281.17
   80.09        2953.25           2190          70.00       298.61
   80.12        2953.50           2193          75.00       320.40
   80.15        2953.75           2197          68.00       289.89
   80.18        2954.00           2200          76.00       324.76
   80.21        2954.25           2204          74.00       316.05
   80.24        2954.50           2208          68.00       289.89
   80.27        2954.75           2211          75.00       320.40
   80.30        2955.00           2215          74.00       316.05
   80.33        2955.25           2218          75.00       320.40
   80.36        2955.50           2222          78.00       333.48
   80.39        2955.75           2225          80.00       342.20
   80.42        2956.00           2229          73.00       311.69
   80.45        2956.25           2232          84.00       359.64
   80.48        2956.50           2236          86.00       368.36
   80.51        2956.75           2239          74.00       316.05
   80.54        2957.00           2243          84.00       359.64
   80.58        2957.25           2246          77.00       329.12
   80.61        2957.50           2250          86.00       368.36
   80.64        2957.75           2254          84.00       359.64
   80.67        2958.00           2257          91.00       390.15
   80.70        2958.25           2261          86.00       368.36
   80.73        2958.50           2264          87.00       372.72
   80.76        2958.75           2268          86.00       368.36
   80.79        2959.00           2271          90.00       385.79
   80.82        2959.25           2275          97.00       416.31
   80.85        2959.50           2278          82.00       350.92
   80.88        2959.75           2282          90.00       385.79
   80.91        2960.00           2285         105.00       451.18
   80.94        2960.25           2289          91.00       390.15
   80.97        2960.50           2293         100.00       429.39
   81.00        2960.75           2296         106.00       455.54
   81.03        2961.00           2300         165.00       712.75
   81.06        2961.25           2303         338.00      1466.94
   81.09        2961.50           2307        1166.00      5077.16
   81.13        2961.75           2310        2143.00      9338.19
   81.16        2962.00           2314        3528.00     15380.75
   81.19        2962.25           2317        4631.00     20194.77
   81.22        2962.50           2321        6116.00     26678.51
   81.25        2962.75           2324        7535.00     32876.75
   81.28        2963.00           2328        9159.00     39973.65
   81.31        2963.25           2331       10237.00     44686.42
   81.34        2963.50           2335       11735.00     51237.83
   81.37        2963.75           2339       13649.00     59612.87
   81.40        2964.00           2342       15164.00     66245.38
   81.43        2964.25           2346       17032.00     74427.43
   81.46        2964.50           2349       18115.00     79173.18
   81.49        2964.75           2353       19438.00     84972.69
   81.52        2965.00           2356       20606.00     90094.66
   81.55        2965.25           2360       22244.00     97280.69
   81.58        2965.50           2363       23462.00    102626.40
   81.61        2965.75           2367       25438.00    111303.20
   81.65        2966.00           2370       26536.00    116126.70
   81.68        2966.25           2374       27810.00    121725.50
   81.71        2966.50           2378       28209.00    123479.40
   81.74        2966.75           2381       28529.00    124886.20
   81.77        2967.00           2385       28524.00    124864.20
   81.80        2967.25           2388       28384.00    124248.70
   81.83        2967.50           2392       28374.00    124204.80
   81.86        2967.75           2395       28024.00    122666.20
   81.89        2968.00           2399       26781.00    117203.30
   81.92        2968.25           2402       25589.00    111966.40
   81.95        2968.50           2406       24180.00    105778.60
   81.98        2968.75           2409       23031.00    100734.60
   82.01        2969.00           2413       21422.00     93674.08
   82.04        2969.25           2417       19886.00     86937.07
   82.07        2969.50           2420       18497.00     80847.47
   82.10        2969.75           2424       16812.00     73463.56
   82.14        2970.00           2427       15517.00     67791.21
   82.17        2970.25           2431       13824.00     60378.84
   82.20        2970.50           2434       12668.00     55319.74
   82.23        2970.75           2438       10988.00     47970.51
   82.26        2971.00           2441        9841.00     42955.02
   82.29        2971.25           2445        8328.00     36341.74
   82.32        2971.50           2449        6790.00     29622.24
   82.35        2971.75           2452        5417.00     23626.21
   82.38        2972.00           2456        3721.00     16222.98
   82.41        2972.25           2459        2412.00     10511.60
   82.44        2972.50           2463        1293.00      5630.98
   82.47        2972.75           2466         659.00      2866.45
   82.50        2973.00           2470         231.00      1000.47
   82.53        2973.25           2473         146.00       629.92
   82.56        2973.50           2477         117.00       503.50
   82.59        2973.75           2481         119.00       512.21
   82.62        2974.00           2484         102.00       438.11
   82.66        2974.25           2488         163.00       704.03
   82.69        2974.50           2491         103.00       442.47
   82.72        2974.75           2495          95.00       407.59
   82.75        2975.00           2498          88.00       377.08
   82.78        2975.25           2502         100.00       429.39
   82.81        2975.50           2505         112.00       481.70
   82.84        2975.75           2509          89.00       381.43
   82.87        2976.00           2512          95.00       407.59
   82.90        2976.25           2516          90.00       385.79
   82.93        2976.50           2520          88.00       377.08
   82.96        2976.75           2523          83.00       355.28
   82.99        2977.00           2527          85.00       364.00
   83.02        2977.25           2530          88.00       377.08
   83.05        2977.50           2534          87.00       372.72
   83.08        2977.75           2537          81.00       346.56
   83.11        2978.00           2541          82.00       350.92
   83.14        2978.25           2544          80.00       342.20
   83.18        2978.50           2548          82.00       350.92
   83.21        2978.75           2552          83.00       355.28
   83.24        2979.00           2555          77.00       329.12
   83.27        2979.25           2559          83.00       355.28
   83.30        2979.50           2562          72.00       307.33
   83.33        2979.75           2566          70.00       298.61
   83.36        2980.00           2569          75.00       320.40
   83.39        2980.25           2573          70.00       298.61
   83.42        2980.50           2577          69.00       294.25
   83.45        2980.75           2580          74.00       316.05
   83.48        2981.00           2584          72.00       307.33
   83.51        2981.25           2587          74.00       316.05
   83.54        2981.50           2591          72.00       307.33
   83.57        2981.75           2594          73.00       311.69
   83.60        2982.00           2598          68.00       289.89
   83.63        2982.25           2601          75.00       320.40
   83.66        2982.50           2605          70.00       298.61
   83.69        2982.75           2609          72.00       307.33
   83.73        2983.00           2612          71.00       302.97
   83.76        2983.25           2616          68.00       289.89
   83.79        2983.50           2619          64.00       272.45
   83.82        2983.75           2623          72.00       307.33
   83.85        2984.00           2626          67.00       285.53
HS scan finished at 01:24:04
end
************************************************************
  HS Scan of (1) Internal mercury lamp
************************************************************
Integration time is 0.2294 seconds per sample
dh250618Reading 51.44 .94 4.15pr1000
************************************************************
Dead Time -------------------------  3.4E-08 
Number of Cycles Used -------------  4 
Starting Wavelength (Angstroms) ---  2950 
Final Wavelength (Angstoms) -------  2984 
Wavelength Increment (Angstroms) --  .25 
Filter Wheel #1 Position ---------- (1) Ground quartz diffuser (ND=2.32)
Filter Wheel #2 Position ---------- (1) Neutral Density 0.494



************************************************************
HS scan start time = 21:07:23
Dark Count =  14 


Time (GMT)  Wavelength (Ang)  Step Number  Raw Counts  Counts/Second

 1268.28        2950.00           2144          50.00       156.93
 1268.48        2950.25           2147          57.00       187.45
 1268.51        2950.50           2151          55.00       178.73
 1268.54        2950.75           2155          52.00       165.65
 1268.57        2951.00           2158          50.00       156.93
 1268.60        2951.25           2162          58.00       191.81
 1268.63        2951.50           2165          52.00       165.65
 1268.66        2951.75           2169          48.00       148.21
 1268.69        2952.00           2172          63.00       213.60
 1268.72        2952.25           2176          52.00       165.65
 1268.75        2952.50           2179          63.00       213.60
 1268.78        2952.75           2183          46.00       139.50
 1268.81        2953.00           2186          52.00       165.65
 1268.85        2953.25           2190          59.00       196.17
 1268.88        2953.50           2193          55.00       178.73
 1268.91        2953.75           2197          52.00       165.65
 1268.94        2954.00           2200          66.00       226.68
 1268.97        2954.25           2204          57.00       187.45
 1269.00        2954.50           2208          56.00       183.09
 1269.03        2954.75           2211          59.00       196.17
 1269.06        2955.00           2215          54.00       174.37
 1269.09        2955.25           2218          53.00       170.01
 1269.12        2955.50           2222          56.00       183.09
 1269.15        2955.75           2225          64.00       217.96
 1269.18        2956.00           2229          62.00       209.24
 1269.21        2956.25           2232          66.00       226.68
 1269.24        2956.50           2236          65.00       222.32
 1269.27        2956.75           2239          62.00       209.24
 1269.30        2957.00           2243          58.00       191.81
 1269.33        2957.25           2246          61.00       204.88
 1269.36        2957.50           2250          69.00       239.76
 1269.40        2957.75           2254          63.00       213.60
 1269.43        2958.00           2257          67.00       231.04
 1269.46        2958.25           2261          62.00       209.24
 1269.49        2958.50           2264          65.00       222.32
 1269.52        2958.75           2268          66.00       226.68
 1269.55        2959.00           2271          64.00       217.96
 1269.58        2959.25           2275          69.00       239.76
 1269.61        2959.50           2278          72.00       252.84
 1269.64        2959.75           2282          66.00       226.68
 1269.67        2960.00           2285          83.00       300.79
 1269.70        2960.25           2289          77.00       274.63
 1269.73        2960.50           2293          73.00       257.19
 1269.76        2960.75           2296          73.00       257.19
 1269.79        2961.00           2300          92.00       340.02
 1269.82        2961.25           2303         140.00       549.27
 1269.85        2961.50           2307         526.00      2232.08
 1269.88        2961.75           2310        1095.00      4713.05
 1269.92        2962.00           2314        1943.00      8411.30
 1269.95        2962.25           2317        2646.00     11477.89
 1269.98        2962.50           2321        3596.00     15622.94
 1270.01        2962.75           2324        4261.00     18525.18
 1270.04        2963.00           2328        5263.00     22899.25
 1270.07        2963.25           2331        6226.00     27104.31
 1270.10        2963.50           2335        7210.00     31402.30
 1270.13        2963.75           2339        8229.00     35854.49
 1270.16        2964.00           2342        8973.00     39106.02
 1270.19        2964.25           2346       10024.00     43700.46
 1270.22        2964.50           2349       10928.00     47653.44
 1270.25        2964.75           2353       11843.00     51655.60
 1270.28        2965.00           2356       12550.00     54748.73
 1270.31        2965.25           2360       13970.00     60963.21
 1270.34        2965.50           2363       14566.00     63572.31
 1270.37        2965.75           2367       15340.00     66961.35
 1270.40        2966.00           2370       16443.00     71792.29
 1270.44        2966.25           2374       17031.00     74368.28
 1270.47        2966.50           2378       17527.00     76541.56
 1270.50        2966.75           2381       17584.00     76791.34
 1270.53        2967.00           2385       17451.00     76208.55
 1270.56        2967.25           2388       17549.00     76637.98
 1270.59        2967.50           2392       17222.00     75205.13
 1270.62        2967.75           2395       16997.00     74219.31
 1270.65        2968.00           2399       16557.00     72291.68
 1270.68        2968.25           2402       16025.00     69961.34
 1270.71        2968.50           2406       14977.00     65371.82
 1270.74        2968.75           2409       14272.00     62285.21
 1270.77        2969.00           2413       13340.00     58205.74
 1270.80        2969.25           2417       12252.00     53444.90
 1270.83        2969.50           2420       11603.00     50605.74
 1270.86        2969.75           2424       10624.00     46324.00
 1270.89        2970.00           2427        9772.00     42598.71
 1270.92        2970.25           2431        8689.00     37864.76
 1270.96        2970.50           2434        7852.00     34207.16
 1270.99        2970.75           2438        6785.00     29545.80
 1271.02        2971.00           2441        5955.00     25920.83
 1271.05        2971.25           2445        4691.00     20402.12
 1271.08        2971.50           2449        3967.00     17242.02
 1271.11        2971.75           2452        3321.00     14422.94
 1271.14        2972.00           2456        2315.00     10033.94
 1271.17        2972.25           2459        1673.00      7233.69
 1271.20        2972.50           2463         815.00      3492.13
 1271.23        2972.75           2466         424.00      1787.38
 1271.26        2973.00           2470         159.00       632.10
 1271.29        2973.25           2473          98.00       366.18
 1271.32        2973.50           2477          92.00       340.02
 1271.35        2973.75           2481          82.00       296.43
 1271.38        2974.00           2484          78.00       278.99
 1271.41        2974.25           2488          77.00       274.63
 1271.44        2974.50           2491          78.00       278.99
 1271.48        2974.75           2495          71.00       248.48
 1271.51        2975.00           2498          65.00       222.32
 1271.54        2975.25           2502          68.00       235.40
 1271.57        2975.50           2505          65.00       222.32
 1271.60        2975.75           2509          64.00       217.96
 1271.63        2976.00           2512          60.00       200.52
 1271.66        2976.25           2516          65.00       222.32
 1271.69        2976.50           2520          60.00       200.52
 1271.72        2976.75           2523          65.00       222.32
 1271.75        2977.00           2527          62.00       209.24
 1271.78        2977.25           2530          62.00       209.24
 1271.81        2977.50           2534          67.00       231.04
 1271.84        2977.75           2537          60.00       200.52
 1271.87        2978.00           2541          66.00       226.68
 1271.90        2978.25           2544          60.00       200.52
 1271.93        2978.50           2548          56.00       183.09
 1271.96        2978.75           2552          58.00       191.81
 1272.00        2979.00           2555          54.00       174.37
 1272.03        2979.25           2559          63.00       213.60
 1272.06        2979.50           2562          56.00       183.09
 1272.09        2979.75           2566          49.00       152.57
 1272.12        2980.00           2569          57.00       187.45
 1272.15        2980.25           2573          58.00       191.81
 1272.18        2980.50           2577          60.00       200.52
 1272.21        2980.75           2580          53.00       170.01
 1272.24        2981.00           2584          58.00       191.81
 1272.27        2981.25           2587          58.00       191.81
 1272.30        2981.50           2591          56.00       183.09
 1272.33        2981.75           2594          52.00       165.65
 1272.36        2982.00           2598          51.00       161.29
 1272.39        2982.25           2601          49.00       152.57
 1272.42        2982.50           2605          49.00       152.57
 1272.47        2982.75           2609          56.00       183.09
 1272.50        2983.00           2612          49.00       152.57
 1272.53        2983.25           2616          57.00       187.45
 1272.56        2983.50           2619          54.00       174.37
 1272.59        2983.75           2623          54.00       174.37
 1272.62        2984.00           2626          50.00       156.93
HS scan finished at 21:12:51
end
