************************************************************
  HS Scan of (1) Internal mercury lamp
************************************************************
Integration time is 0.2294 seconds per sample
dh260619El Arenosillo 37.1 6.73 3.66pr1000
************************************************************
Dead Time -------------------------  3.2E-08 
Number of Cycles Used -------------  4 
Starting Wavelength (Angstroms) ---  2950 
Final Wavelength (Angstoms) -------  2984 
Wavelength Increment (Angstroms) --  .25 
Filter Wheel #1 Position ---------- (1) Ground quartz diffuser (ND=2.32)
Filter Wheel #2 Position ---------- (1) Neutral Density 0.494



************************************************************
HS scan start time = 01:54:03
Dark Count =  3.3 


Time (GMT)  Wavelength (Ang)  Step Number  Raw Counts  Counts/Second

  114.94        2950.00           2144        1382.00      6011.18
  115.13        2950.25           2147        1363.00      5928.33
  115.16        2950.50           2151        1334.00      5801.86
  115.20        2950.75           2155        1361.00      5919.60
  115.23        2951.00           2158        1317.00      5727.73
  115.26        2951.25           2162        1356.00      5897.80
  115.29        2951.50           2165        1416.00      6159.45
  115.32        2951.75           2169        1392.00      6054.79
  115.35        2952.00           2172        1403.00      6102.76
  115.38        2952.25           2176        1412.00      6142.01
  115.41        2952.50           2179        1416.00      6159.45
  115.44        2952.75           2183        1399.00      6085.32
  115.47        2953.00           2186        1396.00      6072.23
  115.50        2953.25           2190        1446.00      6290.28
  115.53        2953.50           2193        1420.00      6176.90
  115.56        2953.75           2197        1402.00      6098.40
  115.59        2954.00           2200        1448.00      6299.00
  115.62        2954.25           2204        1426.00      6203.06
  115.65        2954.50           2208        1471.00      6399.30
  115.68        2954.75           2211        1459.00      6346.97
  115.72        2955.00           2215        1468.00      6386.22
  115.75        2955.25           2218        1438.00      6255.39
  115.78        2955.50           2222        1476.00      6421.11
  115.81        2955.75           2225        1511.00      6573.75
  115.84        2956.00           2229        1519.00      6608.63
  115.87        2956.25           2232        1549.00      6739.47
  115.90        2956.50           2236        1573.00      6844.13
  115.93        2956.75           2239        1524.00      6630.44
  115.96        2957.00           2243        1564.00      6804.88
  115.99        2957.25           2246        1556.00      6769.99
  116.02        2957.50           2250        1597.00      6948.80
  116.05        2957.75           2254        1622.00      7057.83
  116.08        2958.00           2257        1658.00      7214.83
  116.11        2958.25           2261        1709.00      7437.25
  116.14        2958.50           2264        1672.00      7275.89
  116.17        2958.75           2268        1727.00      7515.76
  116.20        2959.00           2271        1729.00      7524.48
  116.23        2959.25           2275        1744.00      7589.90
  116.27        2959.50           2278        1787.00      7777.44
  116.30        2959.75           2282        1826.00      7947.53
  116.33        2960.00           2285        1861.00      8100.18
  116.36        2960.25           2289        1877.00      8169.96
  116.39        2960.50           2293        1959.00      8527.61
  116.42        2960.75           2296        1973.00      8588.67
  116.45        2961.00           2300        2297.00     10001.89
  116.48        2961.25           2303        4292.00     18706.49
  116.51        2961.50           2307       15629.00     68264.49
  116.54        2961.75           2310       30735.00    134543.60
  116.57        2962.00           2314       54578.00    239734.00
  116.60        2962.25           2317       74348.00    327497.50
  116.63        2962.50           2321      106601.00    471748.60
  116.66        2962.75           2324      128765.00    571660.10
  116.69        2963.00           2328      156747.00    698726.50
  116.72        2963.25           2331      177031.00    791493.80
  116.76        2963.50           2335      204156.00    916426.60
  116.79        2963.75           2339      232530.00   1048206.00
  116.82        2964.00           2342      254532.00   1151176.00
  116.85        2964.25           2346      283362.00   1287156.00
  116.88        2964.50           2349      305694.00   1393325.00
  116.91        2964.75           2353      334748.00   1532565.00
  116.94        2965.00           2356      358374.00   1646738.00
  116.97        2965.25           2360      388482.00   1793489.00
  117.00        2965.50           2363      409276.00   1895677.00
  117.03        2965.75           2367      433398.00   2015091.00
  117.06        2966.00           2370      449047.00   2093069.00
  117.09        2966.25           2374      467603.00   2186056.00
  117.12        2966.50           2378      475936.00   2228002.00
  117.15        2966.75           2381      477668.00   2236736.00
  117.18        2967.00           2385      477721.00   2237003.00
  117.21        2967.25           2388      477918.00   2237996.00
  117.24        2967.50           2392      477000.00   2233367.00
  117.27        2967.75           2395      473757.00   2217023.00
  117.31        2968.00           2399      458554.00   2140638.00
  117.34        2968.25           2402      441558.00   2055702.00
  117.37        2968.50           2406      414088.00   1919424.00
  117.40        2968.75           2409      394109.00   1821074.00
  117.43        2969.00           2413      366537.00   1686386.00
  117.46        2969.25           2417      340450.00   1560042.00
  117.49        2969.50           2420      322416.00   1473309.00
  117.52        2969.75           2424      298083.00   1357059.00
  117.55        2970.00           2427      277864.00   1261131.00
  117.58        2970.25           2431      247889.00   1120014.00
  117.61        2970.50           2434      225689.00   1016331.00
  117.64        2970.75           2438      195915.00    878362.90
  117.67        2971.00           2441      173871.00    777005.10
  117.70        2971.25           2445      145301.00    646623.90
  117.73        2971.50           2449      117073.00    518874.30
  117.76        2971.75           2452       93762.00    414165.60
  117.79        2972.00           2456       64718.00    284685.90
  117.83        2972.25           2459       43470.00    190639.40
  117.86        2972.50           2463       19647.00     85866.38
  117.89        2972.75           2466        8963.00     39106.01
  117.92        2973.00           2470        3323.00     14477.94
  117.95        2973.25           2473        2330.00     10145.84
  117.98        2973.50           2477        2034.00      8854.73
  118.01        2973.75           2481        1969.00      8571.23
  118.04        2974.00           2484        1955.00      8510.16
  118.07        2974.25           2488        1912.00      8322.62
  118.10        2974.50           2491        1834.00      7982.42
  118.13        2974.75           2495        1825.00      7943.17
  118.16        2975.00           2498        1797.00      7821.05
  118.19        2975.25           2502        1758.00      7650.96
  118.22        2975.50           2505        1718.00      7476.51
  118.25        2975.75           2509        1742.00      7581.18
  118.28        2976.00           2512        1707.00      7428.53
  118.31        2976.25           2516        1631.00      7097.08
  118.35        2976.50           2520        1654.00      7197.39
  118.38        2976.75           2523        1623.00      7062.19
  118.41        2977.00           2527        1587.00      6905.19
  118.44        2977.25           2530        1592.00      6926.99
  118.47        2977.50           2534        1568.00      6822.33
  118.50        2977.75           2537        1536.00      6682.77
  118.53        2978.00           2541        1542.00      6708.94
  118.56        2978.25           2544        1467.00      6381.86
  118.59        2978.50           2548        1501.00      6530.14
  118.62        2978.75           2552        1478.00      6429.83
  118.65        2979.00           2555        1495.00      6503.97
  118.68        2979.25           2559        1430.00      6220.51
  118.71        2979.50           2562        1417.00      6163.81
  118.74        2979.75           2566        1424.00      6194.34
  118.77        2980.00           2569        1411.00      6137.65
  118.80        2980.25           2573        1408.00      6124.57
  118.83        2980.50           2577        1362.00      5923.97
  118.87        2980.75           2580        1396.00      6072.23
  118.90        2981.00           2584        1372.00      5967.57
  118.93        2981.25           2587        1388.00      6037.35
  118.96        2981.50           2591        1411.00      6137.65
  118.99        2981.75           2594        1353.00      5884.72
  119.02        2982.00           2598        1411.00      6137.65
  119.05        2982.25           2601        1356.00      5897.80
  119.08        2982.50           2605        1367.00      5945.77
  119.11        2982.75           2609        1364.00      5932.69
  119.14        2983.00           2612        1340.00      5828.03
  119.17        2983.25           2616        1336.00      5810.58
  119.20        2983.50           2619        1319.00      5736.45
  119.23        2983.75           2623        1312.00      5705.92
  119.26        2984.00           2626        1312.00      5705.92
HS scan finished at 01:59:29
end
************************************************************
  HS Scan of (1) Internal mercury lamp
************************************************************
Integration time is 0.2294 seconds per sample
dh260619El Arenosillo 37.1 6.73 3.82pr1000
************************************************************
Dead Time -------------------------  3.2E-08 
Number of Cycles Used -------------  4 
Starting Wavelength (Angstroms) ---  2950 
Final Wavelength (Angstoms) -------  2984 
Wavelength Increment (Angstroms) --  .25 
Filter Wheel #1 Position ---------- (1) Ground quartz diffuser (ND=2.32)
Filter Wheel #2 Position ---------- (1) Neutral Density 0.494



************************************************************
HS scan start time = 20:36:24
Dark Count =  5.8 


Time (GMT)  Wavelength (Ang)  Step Number  Raw Counts  Counts/Second

 1237.29        2950.00           2144        1141.00      4949.35
 1237.48        2950.25           2147        1129.00      4897.02
 1237.51        2950.50           2151        1130.00      4901.38
 1237.54        2950.75           2155        1166.00      5058.36
 1237.57        2951.00           2158        1134.00      4918.82
 1237.60        2951.25           2162        1143.00      4958.07
 1237.63        2951.50           2165        1146.00      4971.15
 1237.66        2951.75           2169        1185.00      5141.21
 1237.69        2952.00           2172        1148.00      4979.87
 1237.72        2952.25           2176        1150.00      4988.59
 1237.76        2952.50           2179        1144.00      4962.43
 1237.79        2952.75           2183        1198.00      5197.90
 1237.82        2953.00           2186        1147.00      4975.51
 1237.85        2953.25           2190        1212.00      5258.95
 1237.88        2953.50           2193        1196.00      5189.18
 1237.91        2953.75           2197        1214.00      5267.67
 1237.94        2954.00           2200        1238.00      5372.33
 1237.97        2954.25           2204        1223.00      5306.92
 1238.00        2954.50           2208        1266.00      5494.43
 1238.03        2954.75           2211        1227.00      5324.36
 1238.06        2955.00           2215        1228.00      5328.72
 1238.09        2955.25           2218        1238.00      5372.33
 1238.12        2955.50           2222        1263.00      5481.34
 1238.15        2955.75           2225        1240.00      5381.05
 1238.18        2956.00           2229        1289.00      5594.72
 1238.21        2956.25           2232        1310.00      5686.30
 1238.24        2956.50           2236        1297.00      5629.61
 1238.28        2956.75           2239        1281.00      5559.84
 1238.31        2957.00           2243        1306.00      5668.86
 1238.34        2957.25           2246        1343.00      5830.21
 1238.37        2957.50           2250        1356.00      5886.90
 1238.40        2957.75           2254        1313.00      5699.38
 1238.43        2958.00           2257        1362.00      5913.06
 1238.46        2958.25           2261        1452.00      6305.54
 1238.49        2958.50           2264        1357.00      5891.26
 1238.52        2958.75           2268        1437.00      6240.13
 1238.55        2959.00           2271        1466.00      6366.60
 1238.58        2959.25           2275        1474.00      6401.49
 1238.61        2959.50           2278        1518.00      6593.37
 1238.64        2959.75           2282        1525.00      6623.90
 1238.67        2960.00           2285        1597.00      6937.90
 1238.70        2960.25           2289        1630.00      7081.81
 1238.73        2960.50           2293        1607.00      6981.51
 1238.76        2960.75           2296        1682.00      7308.60
 1238.80        2961.00           2300        2283.00      9929.92
 1238.83        2961.25           2303        5115.00     22287.91
 1238.86        2961.50           2307       17178.00     75036.98
 1238.89        2961.75           2310       31693.00    138745.40
 1238.92        2962.00           2314       54579.00    239727.40
 1238.95        2962.25           2317       72442.00    319003.60
 1238.98        2962.50           2321       95624.00    422492.30
 1239.01        2962.75           2324      113656.00    503470.20
 1239.04        2963.00           2328      136170.00    605173.50
 1239.07        2963.25           2331      155137.00    691375.70
 1239.10        2963.50           2335      180628.00    807991.40
 1239.13        2963.75           2339      203219.00    912082.40
 1239.16        2964.00           2342      218519.00    982981.10
 1239.19        2964.25           2346      239595.00   1081184.00
 1239.22        2964.50           2349      257367.00   1164483.00
 1239.25        2964.75           2353      284164.00   1290945.00
 1239.28        2965.00           2356      301746.00   1374490.00
 1239.32        2965.25           2360      325523.00   1488205.00
 1239.35        2965.50           2363      342526.00   1570046.00
 1239.38        2965.75           2367      364433.00   1676145.00
 1239.41        2966.00           2370      381812.00   1760843.00
 1239.44        2966.25           2374      398112.00   1840716.00
 1239.47        2966.50           2378      405810.00   1878584.00
 1239.50        2966.75           2381      407486.00   1886841.00
 1239.53        2967.00           2385      407521.00   1887014.00
 1239.56        2967.25           2388      407944.00   1889098.00
 1239.59        2967.50           2392      407429.00   1886560.00
 1239.62        2967.75           2395      405718.00   1878131.00
 1239.65        2968.00           2399      396297.00   1831801.00
 1239.68        2968.25           2402      382888.00   1766103.00
 1239.71        2968.50           2406      360048.00   1654848.00
 1239.74        2968.75           2409      343000.00   1572334.00
 1239.77        2969.00           2413      319523.00   1459430.00
 1239.80        2969.25           2417      297234.00   1353007.00
 1239.83        2969.50           2420      278719.00   1265163.00
 1239.87        2969.75           2424      255257.00   1154569.00
 1239.90        2970.00           2427      235996.00   1064370.00
 1239.93        2970.25           2431      208815.00    937975.90
 1239.96        2970.50           2434      191477.00    857891.90
 1239.99        2970.75           2438      167478.00    747723.00
 1240.02        2971.00           2441      150215.00    668959.70
 1240.05        2971.25           2445      127461.00    565752.80
 1240.08        2971.50           2449      101025.00    446702.70
 1240.11        2971.75           2452       81972.00    361463.80
 1240.14        2972.00           2456       54350.00    238713.70
 1240.17        2972.25           2459       36438.00    159628.50
 1240.20        2972.50           2463       16237.00     70915.77
 1240.23        2972.75           2466        7052.00     30746.02
 1240.26        2973.00           2470        2746.00     11949.64
 1240.29        2973.25           2473        1947.00      8464.37
 1240.32        2973.50           2477        1720.00      7474.32
 1240.36        2973.75           2481        1670.00      7256.26
 1240.39        2974.00           2484        1628.00      7073.09
 1240.42        2974.25           2488        1639.00      7121.06
 1240.45        2974.50           2491        1585.00      6885.56
 1240.48        2974.75           2495        1508.00      6549.76
 1240.51        2975.00           2498        1508.00      6549.76
 1240.54        2975.25           2502        1439.00      6248.85
 1240.57        2975.50           2505        1457.00      6327.35
 1240.60        2975.75           2509        1397.00      6065.69
 1240.63        2976.00           2512        1425.00      6187.80
 1240.66        2976.25           2516        1423.00      6179.08
 1240.69        2976.50           2520        1404.00      6096.22
 1240.72        2976.75           2523        1372.00      5956.67
 1240.75        2977.00           2527        1367.00      5934.87
 1240.78        2977.25           2530        1308.00      5677.58
 1240.81        2977.50           2534        1300.00      5642.69
 1240.84        2977.75           2537        1321.00      5734.27
 1240.88        2978.00           2541        1290.00      5599.09
 1240.91        2978.25           2544        1264.00      5485.71
 1240.94        2978.50           2548        1254.00      5442.10
 1240.97        2978.75           2552        1232.00      5346.16
 1241.00        2979.00           2555        1226.00      5320.00
 1241.03        2979.25           2559        1218.00      5285.11
 1241.06        2979.50           2562        1209.00      5245.87
 1241.09        2979.75           2566        1218.00      5285.11
 1241.12        2980.00           2569        1218.00      5285.11
 1241.15        2980.25           2573        1211.00      5254.59
 1241.18        2980.50           2577        1185.00      5141.21
 1241.21        2980.75           2580        1150.00      4988.59
 1241.24        2981.00           2584        1176.00      5101.97
 1241.27        2981.25           2587        1146.00      4971.15
 1241.30        2981.50           2591        1175.00      5097.61
 1241.33        2981.75           2594        1162.00      5040.92
 1241.36        2982.00           2598        1167.00      5062.72
 1241.40        2982.25           2601        1164.00      5049.64
 1241.43        2982.50           2605        1130.00      4901.38
 1241.46        2982.75           2609        1132.00      4910.10
 1241.49        2983.00           2612        1129.00      4897.02
 1241.52        2983.25           2616        1124.00      4875.22
 1241.55        2983.50           2619        1132.00      4910.10
 1241.58        2983.75           2623        1152.00      4997.31
 1241.61        2984.00           2626        1124.00      4875.22
HS scan finished at 20:41:49
end
