************************************************************
  HS Scan of (1) Internal mercury lamp
************************************************************
Integration time is 0.2294 seconds per sample
dh220618Reading 51.44 .94 3.17pr1000
************************************************************
Dead Time -------------------------  3.4E-08 
Number of Cycles Used -------------  4 
Starting Wavelength (Angstroms) ---  2950 
Final Wavelength (Angstoms) -------  2984 
Wavelength Increment (Angstroms) --  .25 
Filter Wheel #1 Position ---------- (1) Ground quartz diffuser (ND=2.32)
Filter Wheel #2 Position ---------- (1) Neutral Density 0.494



************************************************************
HS scan start time = 01:09:52
Dark Count =  .8 


Time (GMT)  Wavelength (Ang)  Step Number  Raw Counts  Counts/Second

   70.77        2950.00           2144          74.00       319.10
   70.96        2950.25           2147          69.00       297.30
   70.99        2950.50           2151          77.00       332.17
   71.02        2950.75           2155          80.00       345.25
   71.05        2951.00           2158          69.00       297.30
   71.08        2951.25           2162          77.00       332.17
   71.12        2951.50           2165          75.00       323.46
   71.15        2951.75           2169          74.00       319.10
   71.18        2952.00           2172          72.00       310.38
   71.21        2952.25           2176          73.00       314.74
   71.24        2952.50           2179          74.00       319.10
   71.27        2952.75           2183          75.00       323.46
   71.30        2953.00           2186          78.00       336.53
   71.33        2953.25           2190          89.00       384.49
   71.36        2953.50           2193          73.00       314.74
   71.39        2953.75           2197          83.00       358.33
   71.42        2954.00           2200          82.00       353.97
   71.45        2954.25           2204          85.00       367.05
   71.48        2954.50           2208          81.00       349.61
   71.52        2954.75           2211          83.00       358.33
   71.56        2955.00           2215          83.00       358.33
   71.59        2955.25           2218          83.00       358.33
   71.62        2955.50           2222          74.00       319.10
   71.65        2955.75           2225          81.00       349.61
   71.68        2956.00           2229          88.00       380.13
   71.71        2956.25           2232          83.00       358.33
   71.74        2956.50           2236          84.00       362.69
   71.77        2956.75           2239          79.00       340.89
   71.80        2957.00           2243          75.00       323.46
   71.83        2957.25           2246          87.00       375.77
   71.86        2957.50           2250          88.00       380.13
   71.90        2957.75           2254          89.00       384.49
   71.93        2958.00           2257          93.00       401.92
   71.96        2958.25           2261          89.00       384.49
   71.99        2958.50           2264          89.00       384.49
   72.02        2958.75           2268          83.00       358.33
   72.05        2959.00           2271          88.00       380.13
   72.08        2959.25           2275          89.00       384.49
   72.11        2959.50           2278         116.00       502.19
   72.14        2959.75           2282         106.00       458.59
   72.17        2960.00           2285          98.00       423.72
   72.20        2960.25           2289          96.00       415.00
   72.23        2960.50           2293          98.00       423.72
   72.26        2960.75           2296         105.00       454.24
   72.29        2961.00           2300         144.00       624.25
   72.32        2961.25           2303         266.00      1156.10
   72.35        2961.50           2307         999.00      4352.00
   72.38        2961.75           2310        1913.00      8338.02
   72.42        2962.00           2314        3422.00     14921.26
   72.45        2962.25           2317        4632.00     20202.19
   72.48        2962.50           2321        6120.00     26699.03
   72.51        2962.75           2324        7057.00     30791.60
   72.54        2963.00           2328        8700.00     37970.52
   72.57        2963.25           2331        9885.00     43150.45
   72.60        2963.50           2335       11596.00     50632.87
   72.63        2963.75           2339       13024.00     56880.61
   72.66        2964.00           2342       14318.00     62544.37
   72.69        2964.25           2346       15805.00     69055.59
   72.72        2964.50           2349       17185.00     75100.85
   72.75        2964.75           2353       18540.00     81039.02
   72.78        2965.00           2356       19892.00     86966.46
   72.81        2965.25           2360       21470.00     93887.72
   72.84        2965.50           2363       22541.00     98587.09
   72.87        2965.75           2367       23987.00    104934.30
   72.90        2966.00           2370       24983.00    109307.80
   72.94        2966.25           2374       26208.00    114688.70
   72.97        2966.50           2378       26813.00    117347.00
   73.00        2966.75           2381       26975.00    118058.80
   73.03        2967.00           2385       26976.00    118063.20
   73.06        2967.25           2388       26963.00    118006.10
   73.09        2967.50           2392       26965.00    118014.90
   73.12        2967.75           2395       26743.00    117039.40
   73.15        2968.00           2399       25716.00    112527.40
   73.18        2968.25           2402       24865.00    108789.60
   73.21        2968.50           2406       23419.00    102440.70
   73.24        2968.75           2409       22311.00     97577.78
   73.27        2969.00           2413       20885.00     91321.47
   73.30        2969.25           2417       19255.00     84173.42
   73.33        2969.50           2420       18192.00     79513.71
   73.36        2969.75           2424       16837.00     73576.16
   73.39        2970.00           2427       15716.00     68665.79
   73.42        2970.25           2431       14125.00     61699.48
   73.46        2970.50           2434       12661.00     55292.17
   73.49        2970.75           2438       11066.00     48314.70
   73.52        2971.00           2441        9756.00     42586.47
   73.55        2971.25           2445        8134.00     35497.04
   73.58        2971.50           2449        6726.00     29345.75
   73.61        2971.75           2452        5688.00     24812.56
   73.64        2972.00           2456        4275.00     18643.90
   73.67        2972.25           2459        3226.00     14066.01
   73.70        2972.50           2463        1713.00      7465.71
   73.73        2972.75           2466         859.00      3741.54
   73.76        2973.00           2470         278.00      1208.42
   73.79        2973.25           2473         136.00       589.38
   73.82        2973.50           2477         130.00       563.22
   73.85        2973.75           2481         106.00       458.59
   73.88        2974.00           2484         119.00       515.27
   73.91        2974.25           2488         124.00       537.06
   73.94        2974.50           2491          94.00       406.28
   73.97        2974.75           2495          99.00       428.08
   74.01        2975.00           2498          86.00       371.41
   74.04        2975.25           2502          98.00       423.72
   74.07        2975.50           2505          97.00       419.36
   74.10        2975.75           2509          89.00       384.49
   74.13        2976.00           2512          99.00       428.08
   74.16        2976.25           2516          89.00       384.49
   74.19        2976.50           2520          86.00       371.41
   74.22        2976.75           2523          93.00       401.92
   74.25        2977.00           2527          81.00       349.61
   74.28        2977.25           2530          90.00       388.85
   74.31        2977.50           2534          91.00       393.20
   74.34        2977.75           2537          90.00       388.85
   74.37        2978.00           2541          87.00       375.77
   74.40        2978.25           2544          86.00       371.41
   74.43        2978.50           2548          88.00       380.13
   74.46        2978.75           2552          89.00       384.49
   74.49        2979.00           2555          79.00       340.89
   74.53        2979.25           2559          86.00       371.41
   74.56        2979.50           2562          77.00       332.17
   74.59        2979.75           2566          80.00       345.25
   74.62        2980.00           2569          81.00       349.61
   74.65        2980.25           2573          79.00       340.89
   74.68        2980.50           2577          81.00       349.61
   74.71        2980.75           2580          77.00       332.17
   74.74        2981.00           2584          72.00       310.38
   74.77        2981.25           2587          73.00       314.74
   74.80        2981.50           2591          75.00       323.46
   74.83        2981.75           2594          80.00       345.25
   74.86        2982.00           2598          67.00       288.58
   74.89        2982.25           2601          75.00       323.46
   74.92        2982.50           2605          68.00       292.94
   74.95        2982.75           2609          72.00       310.38
   74.98        2983.00           2612          76.00       327.82
   75.01        2983.25           2616          80.00       345.25
   75.05        2983.50           2619          76.00       327.82
   75.08        2983.75           2623          74.00       319.10
   75.11        2984.00           2626          66.00       284.22
HS scan finished at 01:15:20
end
************************************************************
  HS Scan of (1) Internal mercury lamp
************************************************************
Integration time is 0.2294 seconds per sample
dh220618Reading 51.44 .94 3.76pr1000
************************************************************
Dead Time -------------------------  3.4E-08 
Number of Cycles Used -------------  4 
Starting Wavelength (Angstroms) ---  2950 
Final Wavelength (Angstoms) -------  2984 
Wavelength Increment (Angstroms) --  .25 
Filter Wheel #1 Position ---------- (1) Ground quartz diffuser (ND=2.32)
Filter Wheel #2 Position ---------- (1) Neutral Density 0.494



************************************************************
HS scan start time = 21:07:27
Dark Count =  5.5 


Time (GMT)  Wavelength (Ang)  Step Number  Raw Counts  Counts/Second

 1268.34        2950.00           2144          51.00       198.34
 1268.53        2950.25           2147          47.00       180.91
 1268.56        2950.50           2151          55.00       215.78
 1268.60        2950.75           2155          58.00       228.86
 1268.63        2951.00           2158          54.00       211.42
 1268.66        2951.25           2162          55.00       215.78
 1268.69        2951.50           2165          58.00       228.86
 1268.72        2951.75           2169          52.00       202.70
 1268.75        2952.00           2172          55.00       215.78
 1268.78        2952.25           2176          52.00       202.70
 1268.81        2952.50           2179          53.00       207.06
 1268.84        2952.75           2183          55.00       215.78
 1268.87        2953.00           2186          60.00       237.58
 1268.90        2953.25           2190          55.00       215.78
 1268.93        2953.50           2193          53.00       207.06
 1268.96        2953.75           2197          58.00       228.86
 1268.99        2954.00           2200          59.00       233.22
 1269.02        2954.25           2204          57.00       224.50
 1269.05        2954.50           2208          60.00       237.58
 1269.08        2954.75           2211          63.00       250.66
 1269.11        2955.00           2215          56.00       220.14
 1269.15        2955.25           2218          60.00       237.58
 1269.18        2955.50           2222          66.00       263.73
 1269.21        2955.75           2225          65.00       259.37
 1269.24        2956.00           2229          57.00       224.50
 1269.27        2956.25           2232          59.00       233.22
 1269.30        2956.50           2236          60.00       237.58
 1269.33        2956.75           2239          61.00       241.94
 1269.36        2957.00           2243          60.00       237.58
 1269.39        2957.25           2246          66.00       263.73
 1269.42        2957.50           2250          63.00       250.66
 1269.45        2957.75           2254          67.00       268.09
 1269.48        2958.00           2257          64.00       255.02
 1269.51        2958.25           2261          71.00       285.53
 1269.54        2958.50           2264          62.00       246.30
 1269.57        2958.75           2268          61.00       241.94
 1269.60        2959.00           2271          64.00       255.02
 1269.64        2959.25           2275          72.00       289.89
 1269.67        2959.50           2278          68.00       272.45
 1269.70        2959.75           2282          65.00       259.37
 1269.73        2960.00           2285          69.00       276.81
 1269.76        2960.25           2289          69.00       276.81
 1269.79        2960.50           2293          87.00       355.28
 1269.82        2960.75           2296          75.00       302.97
 1269.85        2961.00           2300         106.00       438.11
 1269.88        2961.25           2303         223.00       948.16
 1269.91        2961.50           2307         732.00      3167.30
 1269.94        2961.75           2310        1361.00      5910.08
 1269.97        2962.00           2314        2415.00     10507.24
 1270.00        2962.25           2317        3258.00     14185.13
 1270.03        2962.50           2321        4554.00     19841.19
 1270.06        2962.75           2324        5295.00     23076.08
 1270.09        2963.00           2328        6516.00     28407.98
 1270.12        2963.25           2331        7267.00     31688.44
 1270.16        2963.50           2335        8489.00     37027.85
 1270.19        2963.75           2339        9545.00     41643.49
 1270.22        2964.00           2342       10457.00     45630.90
 1270.25        2964.25           2346       11600.00     50629.81
 1270.28        2964.50           2349       12793.00     55849.20
 1270.31        2964.75           2353       14070.00     61438.15
 1270.34        2965.00           2356       14970.00     65378.39
 1270.37        2965.25           2360       16106.00     70353.35
 1270.40        2965.50           2363       16845.00     73590.62
 1270.43        2965.75           2367       18073.00     78971.57
 1270.46        2966.00           2370       19004.00     83052.41
 1270.49        2966.25           2374       20174.00     88182.47
 1270.52        2966.50           2378       20686.00     90428.00
 1270.55        2966.75           2381       20736.00     90647.30
 1270.58        2967.00           2385       20618.00     90129.74
 1270.61        2967.25           2388       20757.00     90739.41
 1270.64        2967.50           2392       20698.00     90480.62
 1270.67        2967.75           2395       20486.00     89550.80
 1270.71        2968.00           2399       19593.00     85634.77
 1270.74        2968.25           2402       18756.00     81965.25
 1270.77        2968.50           2406       17644.00     77091.51
 1270.80        2968.75           2409       16667.00     72810.81
 1270.83        2969.00           2413       15813.00     69070.04
 1270.86        2969.25           2417       14792.00     64599.01
 1270.89        2969.50           2420       13769.00     60120.59
 1270.92        2969.75           2424       12436.00     54287.12
 1270.95        2970.00           2427       11500.00     50192.39
 1270.98        2970.25           2431       10281.00     44861.32
 1271.01        2970.50           2434        9399.00     41005.25
 1271.04        2970.75           2438        8122.00     35424.07
 1271.07        2971.00           2441        7206.00     31421.96
 1271.10        2971.25           2445        6033.00     26298.57
 1271.13        2971.50           2449        4716.00     20548.35
 1271.16        2971.75           2452        3858.00     16803.41
 1271.19        2972.00           2456        2777.00     12086.48
 1271.23        2972.25           2459        1952.00      8487.63
 1271.26        2972.50           2463         953.00      4130.92
 1271.29        2972.75           2466         430.00      1850.60
 1271.32        2973.00           2470         147.00       616.84
 1271.35        2973.25           2473          93.00       381.43
 1271.38        2973.50           2477          87.00       355.28
 1271.41        2973.75           2481          81.00       329.12
 1271.44        2974.00           2484          74.00       298.61
 1271.47        2974.25           2488          77.00       311.69
 1271.50        2974.50           2491          70.00       281.17
 1271.53        2974.75           2495          72.00       289.89
 1271.56        2975.00           2498          65.00       259.37
 1271.59        2975.25           2502          73.00       294.25
 1271.62        2975.50           2505          75.00       302.97
 1271.65        2975.75           2509          75.00       302.97
 1271.68        2976.00           2512          76.00       307.33
 1271.71        2976.25           2516          74.00       298.61
 1271.75        2976.50           2520          67.00       268.09
 1271.78        2976.75           2523          69.00       276.81
 1271.81        2977.00           2527          60.00       237.58
 1271.84        2977.25           2530          67.00       268.09
 1271.87        2977.50           2534          62.00       246.30
 1271.90        2977.75           2537          61.00       241.94
 1271.93        2978.00           2541          65.00       259.37
 1271.96        2978.25           2544          56.00       220.14
 1271.99        2978.50           2548          62.00       246.30
 1272.02        2978.75           2552          60.00       237.58
 1272.05        2979.00           2555          63.00       250.66
 1272.08        2979.25           2559          67.00       268.09
 1272.11        2979.50           2562          55.00       215.78
 1272.14        2979.75           2566          60.00       237.58
 1272.17        2980.00           2569          56.00       220.14
 1272.20        2980.25           2573          55.00       215.78
 1272.23        2980.50           2577          61.00       241.94
 1272.27        2980.75           2580          56.00       220.14
 1272.30        2981.00           2584          60.00       237.58
 1272.33        2981.25           2587          55.00       215.78
 1272.36        2981.50           2591          63.00       250.66
 1272.39        2981.75           2594          59.00       233.22
 1272.42        2982.00           2598          55.00       215.78
 1272.45        2982.25           2601          58.00       228.86
 1272.48        2982.50           2605          55.00       215.78
 1272.51        2982.75           2609          45.00       172.19
 1272.54        2983.00           2612          58.00       228.86
 1272.57        2983.25           2616          56.00       220.14
 1272.60        2983.50           2619          56.00       220.14
 1272.63        2983.75           2623          52.00       202.70
 1272.66        2984.00           2626          52.00       202.70
HS scan finished at 21:12:53
end
