************************************************************
  HS Scan of (1) Internal mercury lamp
************************************************************
Integration time is 0.2294 seconds per sample
dh280618Reading 51.44 .94 3.54pr1000
************************************************************
Dead Time -------------------------  3.4E-08 
Number of Cycles Used -------------  4 
Starting Wavelength (Angstroms) ---  2950 
Final Wavelength (Angstoms) -------  2984 
Wavelength Increment (Angstroms) --  .25 
Filter Wheel #1 Position ---------- (1) Ground quartz diffuser (ND=2.32)
Filter Wheel #2 Position ---------- (1) Neutral Density 0.494



************************************************************
HS scan start time = 01:33:08
Dark Count =  2.8 


Time (GMT)  Wavelength (Ang)  Step Number  Raw Counts  Counts/Second

   94.03        2950.00           2144          75.00       314.74
   94.23        2950.25           2147          75.00       314.74
   94.26        2950.50           2151          79.00       332.17
   94.29        2950.75           2155          76.00       319.10
   94.32        2951.00           2158          72.00       301.66
   94.35        2951.25           2162          72.00       301.66
   94.38        2951.50           2165          76.00       319.10
   94.41        2951.75           2169          83.00       349.61
   94.44        2952.00           2172          76.00       319.10
   94.47        2952.25           2176          74.00       310.38
   94.50        2952.50           2179          76.00       319.10
   94.53        2952.75           2183          82.00       345.25
   94.56        2953.00           2186          71.00       297.30
   94.59        2953.25           2190          89.00       375.77
   94.62        2953.50           2193          85.00       358.33
   94.66        2953.75           2197          85.00       358.33
   94.69        2954.00           2200          85.00       358.33
   94.72        2954.25           2204          87.00       367.05
   94.75        2954.50           2208          71.00       297.30
   94.78        2954.75           2211          74.00       310.38
   94.81        2955.00           2215          85.00       358.33
   94.84        2955.25           2218          83.00       349.61
   94.87        2955.50           2222          83.00       349.61
   94.90        2955.75           2225          85.00       358.33
   94.93        2956.00           2229          84.00       353.97
   94.96        2956.25           2232          89.00       375.77
   94.99        2956.50           2236          87.00       367.05
   95.02        2956.75           2239          92.00       388.85
   95.05        2957.00           2243          85.00       358.33
   95.08        2957.25           2246         108.00       458.59
   95.11        2957.50           2250          92.00       388.85
   95.14        2957.75           2254          93.00       393.20
   95.18        2958.00           2257          91.00       384.49
   95.21        2958.25           2261          90.00       380.13
   95.24        2958.50           2264         114.00       484.75
   95.27        2958.75           2268          94.00       397.56
   95.30        2959.00           2271         103.00       436.80
   95.33        2959.25           2275         104.00       441.16
   95.36        2959.50           2278         105.00       445.52
   95.39        2959.75           2282         120.00       510.91
   95.42        2960.00           2285          96.00       406.28
   95.45        2960.25           2289         106.00       449.88
   95.48        2960.50           2293         113.00       480.39
   95.51        2960.75           2296         141.00       602.45
   95.54        2961.00           2300         208.00       894.53
   95.57        2961.25           2303         561.00      2433.51
   95.60        2961.50           2307        1621.00      7055.75
   95.63        2961.75           2310        2761.00     12028.46
   95.66        2962.00           2314        4454.00     19416.48
   95.70        2962.25           2317        5822.00     25388.95
   95.73        2962.50           2321        7701.00     33596.34
   95.76        2962.75           2324        8941.00     39015.10
   95.79        2963.00           2328       10758.00     46958.96
   95.82        2963.25           2331       12350.00     53922.67
   95.85        2963.50           2335       14419.00     62977.78
   95.88        2963.75           2339       16298.00     71206.20
   95.91        2964.00           2342       17685.00     77283.02
   95.94        2964.25           2346       19562.00     85510.68
   95.97        2964.50           2349       21067.00     92111.03
   96.00        2964.75           2353       22890.00    100110.00
   96.03        2965.00           2356       24280.00    106212.00
   96.06        2965.25           2360       25959.00    113586.00
   96.09        2965.50           2363       27246.00    119241.00
   96.12        2965.75           2367       28971.00    126823.80
   96.15        2966.00           2370       30473.00    133429.60
   96.18        2966.25           2374       32144.00    140782.10
   96.22        2966.50           2378       32788.00    143616.70
   96.25        2966.75           2381       32554.00    142586.70
   96.28        2967.00           2385       32649.00    143004.90
   96.31        2967.25           2388       32943.00    144299.10
   96.34        2967.50           2392       32666.00    143079.70
   96.37        2967.75           2395       32471.00    142221.40
   96.40        2968.00           2399       31511.00    137996.40
   96.43        2968.25           2402       30147.00    131995.60
   96.46        2968.50           2406       28281.00    123790.20
   96.49        2968.75           2409       26867.00    117575.50
   96.52        2969.00           2413       24923.00    109035.60
   96.55        2969.25           2417       23287.00    101852.50
   96.58        2969.50           2420       21867.00     95620.75
   96.61        2969.75           2424       19643.00     85865.83
   96.64        2970.00           2427       17953.00     78457.49
   96.67        2970.25           2431       15976.00     69795.78
   96.70        2970.50           2434       14562.00     63603.83
   96.74        2970.75           2438       12499.00     54574.58
   96.77        2971.00           2441       11204.00     48909.52
   96.80        2971.25           2445        9599.00     41891.36
   96.83        2971.50           2449        7526.00     32831.75
   96.86        2971.75           2452        6039.00     26336.57
   96.89        2972.00           2456        4146.00     18072.13
   96.92        2972.25           2459        2803.00     12211.70
   96.95        2972.50           2463        1319.00      5738.70
   96.98        2972.75           2466         591.00      2564.30
   97.02        2973.00           2470         216.00       929.41
   97.05        2973.25           2473         140.00       598.09
   97.08        2973.50           2477         149.00       637.33
   97.11        2973.75           2481         129.00       550.14
   97.14        2974.00           2484         114.00       484.75
   97.17        2974.25           2488         113.00       480.39
   97.20        2974.50           2491         122.00       519.63
   97.23        2974.75           2495         119.00       506.55
   97.26        2975.00           2498         102.00       432.44
   97.29        2975.25           2502         161.00       689.64
   97.32        2975.50           2505          99.00       419.36
   97.35        2975.75           2509         104.00       441.16
   97.38        2976.00           2512          97.00       410.64
   97.41        2976.25           2516         102.00       432.44
   97.45        2976.50           2520          93.00       393.20
   97.48        2976.75           2523          94.00       397.56
   97.51        2977.00           2527          91.00       384.49
   97.54        2977.25           2530         112.00       476.03
   97.57        2977.50           2534          94.00       397.56
   97.60        2977.75           2537         102.00       432.44
   97.63        2978.00           2541          90.00       380.13
   97.66        2978.25           2544          88.00       371.41
   97.69        2978.50           2548          94.00       397.56
   97.72        2978.75           2552          80.00       336.53
   97.75        2979.00           2555          83.00       349.61
   97.78        2979.25           2559          92.00       388.85
   97.81        2979.50           2562          79.00       332.17
   97.84        2979.75           2566         115.00       489.11
   97.87        2980.00           2569          86.00       362.69
   97.90        2980.25           2573          81.00       340.89
   97.93        2980.50           2577          86.00       362.69
   97.97        2980.75           2580          74.00       310.38
   98.00        2981.00           2584          80.00       336.53
   98.03        2981.25           2587          79.00       332.17
   98.06        2981.50           2591          72.00       301.66
   98.09        2981.75           2594          81.00       340.89
   98.12        2982.00           2598          76.00       319.10
   98.15        2982.25           2601          83.00       349.61
   98.18        2982.50           2605          87.00       367.05
   98.21        2982.75           2609          78.00       327.82
   98.24        2983.00           2612          78.00       327.82
   98.27        2983.25           2616          76.00       319.10
   98.30        2983.50           2619          77.00       323.46
   98.33        2983.75           2623          81.00       340.89
   98.36        2984.00           2626          77.00       323.46
HS scan finished at 01:38:35
end
************************************************************
  HS Scan of (1) Internal mercury lamp
************************************************************
Integration time is 0.2294 seconds per sample
dh280618Reading 51.44 .94 3.9pr1000
************************************************************
Dead Time -------------------------  3.4E-08 
Number of Cycles Used -------------  4 
Starting Wavelength (Angstroms) ---  2950 
Final Wavelength (Angstoms) -------  2984 
Wavelength Increment (Angstroms) --  .25 
Filter Wheel #1 Position ---------- (1) Ground quartz diffuser (ND=2.32)
Filter Wheel #2 Position ---------- (1) Neutral Density 0.494



************************************************************
HS scan start time = 21:07:23
Dark Count =  7 


Time (GMT)  Wavelength (Ang)  Step Number  Raw Counts  Counts/Second

 1268.28        2950.00           2144          51.00       191.81
 1268.47        2950.25           2147          56.00       213.60
 1268.50        2950.50           2151          51.00       191.81
 1268.53        2950.75           2155          51.00       191.81
 1268.57        2951.00           2158          51.00       191.81
 1268.60        2951.25           2162          54.00       204.88
 1268.63        2951.50           2165          54.00       204.88
 1268.66        2951.75           2169          56.00       213.60
 1268.69        2952.00           2172          55.00       209.24
 1268.72        2952.25           2176          48.00       178.73
 1268.75        2952.50           2179          48.00       178.73
 1268.78        2952.75           2183          56.00       213.60
 1268.81        2953.00           2186          54.00       204.88
 1268.84        2953.25           2190          58.00       222.32
 1268.87        2953.50           2193          56.00       213.60
 1268.90        2953.75           2197          60.00       231.04
 1268.93        2954.00           2200          56.00       213.60
 1268.96        2954.25           2204          60.00       231.04
 1268.99        2954.50           2208          49.00       183.09
 1269.02        2954.75           2211          57.00       217.96
 1269.05        2955.00           2215          64.00       248.48
 1269.09        2955.25           2218          54.00       204.88
 1269.12        2955.50           2222          56.00       213.60
 1269.15        2955.75           2225          60.00       231.04
 1269.18        2956.00           2229          60.00       231.04
 1269.21        2956.25           2232          64.00       248.48
 1269.24        2956.50           2236          63.00       244.12
 1269.27        2956.75           2239          64.00       248.48
 1269.30        2957.00           2243          59.00       226.68
 1269.33        2957.25           2246          50.00       187.45
 1269.36        2957.50           2250          66.00       257.19
 1269.39        2957.75           2254          54.00       204.88
 1269.42        2958.00           2257          66.00       257.19
 1269.45        2958.25           2261          69.00       270.27
 1269.48        2958.50           2264          66.00       257.19
 1269.51        2958.75           2268          75.00       296.43
 1269.54        2959.00           2271          73.00       287.71
 1269.57        2959.25           2275          72.00       283.35
 1269.61        2959.50           2278          67.00       261.55
 1269.64        2959.75           2282          77.00       305.15
 1269.67        2960.00           2285          81.00       322.58
 1269.70        2960.25           2289          71.00       278.99
 1269.73        2960.50           2293          79.00       313.87
 1269.76        2960.75           2296          86.00       344.38
 1269.79        2961.00           2300         120.00       492.60
 1269.82        2961.25           2303         277.00      1177.03
 1269.85        2961.50           2307         979.00      4237.75
 1269.88        2961.75           2310        1723.00      7482.29
 1269.91        2962.00           2314        2774.00     12066.85
 1269.94        2962.25           2317        3619.00     15753.86
 1269.97        2962.50           2321        4987.00     21724.85
 1270.00        2962.75           2324        5801.00     25278.91
 1270.03        2963.00           2328        7004.00     30532.99
 1270.08        2963.25           2331        7896.00     34430.00
 1270.11        2963.50           2335        9153.00     39923.38
 1270.14        2963.75           2339       10411.00     45423.19
 1270.17        2964.00           2342       11418.00     49827.15
 1270.20        2964.25           2346       12567.00     54853.74
 1270.23        2964.50           2349       13476.00     58831.60
 1270.26        2964.75           2353       14671.00     64062.67
 1270.29        2965.00           2356       15716.00     68638.63
 1270.32        2965.25           2360       16893.00     73794.34
 1270.35        2965.50           2363       17704.00     77347.88
 1270.38        2965.75           2367       18776.00     82046.35
 1270.42        2966.00           2370       19640.00     85834.27
 1270.45        2966.25           2374       20569.00     89908.24
 1270.48        2966.50           2378       21158.00     92491.80
 1270.51        2966.75           2381       21226.00     92790.10
 1270.54        2967.00           2385       21321.00     93206.85
 1270.57        2967.25           2388       21335.00     93268.28
 1270.60        2967.50           2392       21285.00     93048.93
 1270.63        2967.75           2395       20951.00     91583.78
 1270.66        2968.00           2399       20290.00     88684.62
 1270.69        2968.25           2402       19386.00     84720.58
 1270.72        2968.50           2406       18379.00     80306.16
 1270.75        2968.75           2409       17493.00     76423.26
 1270.78        2969.00           2413       16238.00     70924.97
 1270.81        2969.25           2417       14949.00     65279.87
 1270.84        2969.50           2420       14022.00     61221.46
 1270.87        2969.75           2424       12864.00     56153.32
 1270.91        2970.00           2427       11982.00     52294.29
 1270.94        2970.25           2431       10736.00     46844.39
 1270.97        2970.50           2434        9607.00     41907.97
 1271.00        2970.75           2438        8324.00     36300.23
 1271.03        2971.00           2441        7361.00     32092.54
 1271.06        2971.25           2445        6206.00     27047.53
 1271.09        2971.50           2449        4989.00     21733.58
 1271.12        2971.75           2452        4036.00     17573.71
 1271.15        2972.00           2456        2836.00     12337.35
 1271.18        2972.25           2459        1970.00      8559.60
 1271.21        2972.50           2463         927.00      4011.01
 1271.24        2972.75           2466         398.00      1704.55
 1271.27        2973.00           2470         131.00       540.55
 1271.30        2973.25           2473          99.00       401.05
 1271.33        2973.50           2477          90.00       361.82
 1271.36        2973.75           2481          80.00       318.22
 1271.39        2974.00           2484          83.00       331.30
 1271.43        2974.25           2488          76.00       300.79
 1271.46        2974.50           2491          75.00       296.43
 1271.49        2974.75           2495          75.00       296.43
 1271.52        2975.00           2498          71.00       278.99
 1271.55        2975.25           2502          72.00       283.35
 1271.58        2975.50           2505          71.00       278.99
 1271.61        2975.75           2509          69.00       270.27
 1271.64        2976.00           2512          69.00       270.27
 1271.67        2976.25           2516          71.00       278.99
 1271.70        2976.50           2520          71.00       278.99
 1271.73        2976.75           2523          61.00       235.40
 1271.76        2977.00           2527          61.00       235.40
 1271.79        2977.25           2530          69.00       270.27
 1271.82        2977.50           2534          67.00       261.55
 1271.85        2977.75           2537          64.00       248.48
 1271.88        2978.00           2541          61.00       235.40
 1271.91        2978.25           2544          62.00       239.76
 1271.94        2978.50           2548          57.00       217.96
 1271.98        2978.75           2552          55.00       209.24
 1272.01        2979.00           2555          56.00       213.60
 1272.04        2979.25           2559          60.00       231.04
 1272.07        2979.50           2562          59.00       226.68
 1272.10        2979.75           2566          54.00       204.88
 1272.13        2980.00           2569          53.00       200.52
 1272.16        2980.25           2573          49.00       183.09
 1272.19        2980.50           2577          55.00       209.24
 1272.22        2980.75           2580          58.00       222.32
 1272.25        2981.00           2584          66.00       257.19
 1272.28        2981.25           2587          56.00       213.60
 1272.31        2981.50           2591          52.00       196.17
 1272.34        2981.75           2594          56.00       213.60
 1272.37        2982.00           2598          54.00       204.88
 1272.40        2982.25           2601          55.00       209.24
 1272.43        2982.50           2605          57.00       217.96
 1272.46        2982.75           2609          57.00       217.96
 1272.50        2983.00           2612          55.00       209.24
 1272.53        2983.25           2616          56.00       213.60
 1272.56        2983.50           2619          55.00       209.24
 1272.59        2983.75           2623          50.00       187.45
 1272.62        2984.00           2626          49.00       183.09
HS scan finished at 21:12:50
end
