************************************************************
  HS Scan of (1) Internal mercury lamp
************************************************************
Integration time is 0.2294 seconds per sample
dh210618Reading 51.44 .94 3.37pr1000
************************************************************
Dead Time -------------------------  3.4E-08 
Number of Cycles Used -------------  4 
Starting Wavelength (Angstroms) ---  2950 
Final Wavelength (Angstoms) -------  2984 
Wavelength Increment (Angstroms) --  .25 
Filter Wheel #1 Position ---------- (1) Ground quartz diffuser (ND=2.32)
Filter Wheel #2 Position ---------- (1) Neutral Density 0.494



************************************************************
HS scan start time = 01:31:45
Dark Count =  2 


Time (GMT)  Wavelength (Ang)  Step Number  Raw Counts  Counts/Second

   92.65        2950.00           2144          99.00       422.85
   92.85        2950.25           2147         103.00       440.29
   92.88        2950.50           2151          97.00       414.13
   92.91        2950.75           2155         140.00       601.58
   92.94        2951.00           2158          99.00       422.85
   92.97        2951.25           2162         123.00       527.47
   93.00        2951.50           2165         114.00       488.24
   93.03        2951.75           2169         111.00       475.16
   93.06        2952.00           2172         102.00       435.93
   93.09        2952.25           2176         123.00       527.47
   93.12        2952.50           2179         111.00       475.16
   93.15        2952.75           2183         110.00       470.80
   93.18        2953.00           2186         123.00       527.47
   93.21        2953.25           2190         162.00       697.49
   93.24        2953.50           2193         135.00       579.78
   93.27        2953.75           2197         129.00       553.63
   93.30        2954.00           2200         111.00       475.16
   93.33        2954.25           2204         134.00       575.43
   93.37        2954.50           2208         118.00       505.68
   93.40        2954.75           2211         115.00       492.60
   93.43        2955.00           2215         153.00       658.25
   93.46        2955.25           2218         114.00       488.24
   93.49        2955.50           2222         163.00       701.85
   93.52        2955.75           2225         111.00       475.16
   93.55        2956.00           2229         148.00       636.46
   93.58        2956.25           2232         123.00       527.47
   93.61        2956.50           2236         129.00       553.63
   93.64        2956.75           2239         137.00       588.50
   93.67        2957.00           2243         143.00       614.66
   93.70        2957.25           2246         116.00       496.96
   93.73        2957.50           2250         154.00       662.61
   93.76        2957.75           2254         154.00       662.61
   93.79        2958.00           2257         130.00       557.99
   93.82        2958.25           2261         160.00       688.77
   93.85        2958.50           2264         151.00       649.53
   93.88        2958.75           2268         142.00       610.30
   93.92        2959.00           2271         152.00       653.89
   93.95        2959.25           2275         149.00       640.82
   93.98        2959.50           2278         160.00       688.77
   94.01        2959.75           2282         160.00       688.77
   94.04        2960.00           2285         168.00       723.64
   94.07        2960.25           2289         158.00       680.05
   94.10        2960.50           2293         164.00       706.21
   94.13        2960.75           2296         170.00       732.36
   94.16        2961.00           2300         237.00      1024.45
   94.19        2961.25           2303         664.00      2886.07
   94.22        2961.50           2307        2141.00      9327.28
   94.25        2961.75           2310        3821.00     16657.21
   94.28        2962.00           2314        6413.00     27973.41
   94.31        2962.25           2317        8209.00     35819.53
   94.34        2962.50           2321       11148.00     48668.09
   94.37        2962.75           2324       13350.00     58302.03
   94.40        2963.00           2328       16293.00     71187.79
   94.44        2963.25           2331       18424.00     80525.31
   94.47        2963.50           2335       21312.00     93189.31
   94.50        2963.75           2339       24207.00    105895.00
   94.53        2964.00           2342       26488.00    115913.60
   94.56        2964.25           2346       29635.00    129747.20
   94.59        2964.50           2349       31712.00    138884.40
   94.62        2964.75           2353       34051.00    149181.10
   94.65        2965.00           2356       36040.00    157942.70
   94.68        2965.25           2360       39097.00    171419.00
   94.71        2965.50           2363       41260.00    180961.80
   94.74        2965.75           2367       43946.00    192820.60
   94.77        2966.00           2370       45934.00    201603.90
   94.80        2966.25           2374       47938.00    210463.20
   94.83        2966.50           2378       49000.00    215160.20
   94.86        2966.75           2381       49297.00    216474.10
   94.89        2967.00           2385       49277.00    216385.60
   94.93        2967.25           2388       49363.00    216766.10
   94.96        2967.50           2392       49191.00    216005.20
   94.99        2967.75           2395       48835.00    214430.40
   95.02        2968.00           2399       47134.00    206908.20
   95.05        2968.25           2402       45205.00    198382.40
   95.08        2968.50           2406       42767.00    187614.10
   95.11        2968.75           2409       40720.00    178578.80
   95.14        2969.00           2413       38107.00    167053.40
   95.17        2969.25           2417       35025.00    153470.90
   95.20        2969.50           2420       32842.00    143858.00
   95.23        2969.75           2424       29948.00    131123.80
   95.26        2970.00           2427       27775.00    121569.50
   95.29        2970.25           2431       24774.00    108384.70
   95.32        2970.50           2434       22611.00     98889.04
   95.36        2970.75           2438       19759.00     86377.98
   95.39        2971.00           2441       17364.00     75879.91
   95.42        2971.25           2445       14360.00     62722.98
   95.45        2971.50           2449       11309.00     49372.26
   95.48        2971.75           2452        9066.00     39564.96
   95.51        2972.00           2456        6218.00     27121.77
   95.54        2972.25           2459        4290.00     18704.13
   95.57        2972.50           2463        2271.00      9894.35
   95.60        2972.75           2466        1078.00      4691.25
   95.63        2973.00           2470         355.00      1538.88
   95.66        2973.25           2473         199.00       858.79
   95.69        2973.50           2477         159.00       684.41
   95.72        2973.75           2481         157.00       675.69
   95.75        2974.00           2484         165.00       710.57
   95.78        2974.25           2488         152.00       653.89
   95.81        2974.50           2491         156.00       671.33
   95.84        2974.75           2495         151.00       649.53
   95.88        2975.00           2498         172.00       741.08
   95.91        2975.25           2502         143.00       614.66
   95.94        2975.50           2505         130.00       557.99
   95.97        2975.75           2509         159.00       684.41
   96.00        2976.00           2512         155.00       666.97
   96.03        2976.25           2516         130.00       557.99
   96.06        2976.50           2520         126.00       540.55
   96.09        2976.75           2523         139.00       597.22
   96.12        2977.00           2527         132.00       566.71
   96.15        2977.25           2530         138.00       592.86
   96.18        2977.50           2534         127.00       544.91
   96.21        2977.75           2537         117.00       501.32
   96.24        2978.00           2541         156.00       671.33
   96.27        2978.25           2544         105.00       449.00
   96.30        2978.50           2548         103.00       440.29
   96.33        2978.75           2552         103.00       440.29
   96.36        2979.00           2555          93.00       396.69
   96.40        2979.25           2559         101.00       431.57
   96.43        2979.50           2562         144.00       619.02
   96.46        2979.75           2566         122.00       523.11
   96.49        2980.00           2569         100.00       427.21
   96.52        2980.25           2573         115.00       492.60
   96.55        2980.50           2577          95.00       405.41
   96.58        2980.75           2580          87.00       370.54
   96.61        2981.00           2584          93.00       396.69
   96.64        2981.25           2587          88.00       374.90
   96.67        2981.50           2591          99.00       422.85
   96.70        2981.75           2594          96.00       409.77
   96.73        2982.00           2598         102.00       435.93
   96.76        2982.25           2601          88.00       374.90
   96.79        2982.50           2605          93.00       396.69
   96.82        2982.75           2609          77.00       326.94
   96.85        2983.00           2612          79.00       335.66
   96.88        2983.25           2616          91.00       387.97
   96.92        2983.50           2619          88.00       374.90
   96.95        2983.75           2623          74.00       313.87
   96.98        2984.00           2626          83.00       353.10
HS scan finished at 01:37:12
end
************************************************************
  HS Scan of (1) Internal mercury lamp
************************************************************
Integration time is 0.2294 seconds per sample
dh210618Reading 51.44 .94 3.49pr1000
************************************************************
Dead Time -------------------------  3.4E-08 
Number of Cycles Used -------------  4 
Starting Wavelength (Angstroms) ---  2950 
Final Wavelength (Angstoms) -------  2984 
Wavelength Increment (Angstroms) --  .25 
Filter Wheel #1 Position ---------- (1) Ground quartz diffuser (ND=2.32)
Filter Wheel #2 Position ---------- (1) Neutral Density 0.494



************************************************************
HS scan start time = 21:07:24
Dark Count =  2.4 


Time (GMT)  Wavelength (Ang)  Step Number  Raw Counts  Counts/Second

 1268.30        2950.00           2144          61.00       255.45
 1268.50        2950.25           2147          63.00       264.17
 1268.53        2950.50           2151          59.00       246.73
 1268.56        2950.75           2155          65.00       272.89
 1268.59        2951.00           2158          71.00       299.04
 1268.62        2951.25           2162          72.00       303.40
 1268.65        2951.50           2165          67.00       281.61
 1268.68        2951.75           2169          65.00       272.89
 1268.71        2952.00           2172          66.00       277.25
 1268.74        2952.25           2176          76.00       320.84
 1268.77        2952.50           2179          66.00       277.25
 1268.80        2952.75           2183          65.00       272.89
 1268.83        2953.00           2186          65.00       272.89
 1268.86        2953.25           2190          62.00       259.81
 1268.90        2953.50           2193          65.00       272.89
 1268.93        2953.75           2197          65.00       272.89
 1268.96        2954.00           2200          72.00       303.40
 1268.99        2954.25           2204          70.00       294.68
 1269.02        2954.50           2208          73.00       307.76
 1269.05        2954.75           2211          75.00       316.48
 1269.08        2955.00           2215          76.00       320.84
 1269.11        2955.25           2218          71.00       299.04
 1269.14        2955.50           2222          81.00       342.64
 1269.17        2955.75           2225          75.00       316.48
 1269.20        2956.00           2229          71.00       299.04
 1269.23        2956.25           2232          73.00       307.76
 1269.26        2956.50           2236          69.00       290.33
 1269.29        2956.75           2239          74.00       312.12
 1269.32        2957.00           2243          76.00       320.84
 1269.35        2957.25           2246          70.00       294.68
 1269.38        2957.50           2250          83.00       351.36
 1269.42        2957.75           2254          77.00       325.20
 1269.45        2958.00           2257          78.00       329.56
 1269.48        2958.25           2261          87.00       368.79
 1269.51        2958.50           2264          82.00       347.00
 1269.54        2958.75           2268          88.00       373.15
 1269.57        2959.00           2271          85.00       360.07
 1269.60        2959.25           2275          92.00       390.59
 1269.63        2959.50           2278          77.00       325.20
 1269.66        2959.75           2282          82.00       347.00
 1269.69        2960.00           2285          78.00       329.56
 1269.72        2960.25           2289          88.00       373.15
 1269.75        2960.50           2293          87.00       368.79
 1269.78        2960.75           2296         126.00       538.81
 1269.81        2961.00           2300         143.00       612.92
 1269.84        2961.25           2303         327.00      1415.06
 1269.87        2961.50           2307        1176.00      5116.84
 1269.90        2961.75           2310        2074.00      9033.29
 1269.94        2962.00           2314        3555.00     15494.65
 1269.97        2962.25           2317        4577.00     19955.12
 1270.00        2962.50           2321        5855.00     25534.80
 1270.03        2962.75           2324        6877.00     29998.32
 1270.06        2963.00           2328        8361.00     36482.02
 1270.09        2963.25           2331        9586.00     41836.28
 1270.12        2963.50           2335       11254.00     49129.95
 1270.15        2963.75           2339       12713.00     55512.70
 1270.18        2964.00           2342       13660.00     59657.06
 1270.21        2964.25           2346       15165.00     66245.81
 1270.24        2964.50           2349       16336.00     71374.40
 1270.27        2964.75           2353       17873.00     78108.65
 1270.30        2965.00           2356       19111.00     83535.09
 1270.33        2965.25           2360       20604.00     90081.94
 1270.36        2965.50           2363       21534.00     94161.49
 1270.39        2965.75           2367       22913.00    100212.70
 1270.42        2966.00           2370       23732.00    103807.80
 1270.46        2966.25           2374       24644.00    107812.10
 1270.49        2966.50           2378       24848.00    108707.90
 1270.52        2966.75           2381       25089.00    109766.40
 1270.55        2967.00           2385       25088.00    109762.00
 1270.58        2967.25           2388       25115.00    109880.50
 1270.61        2967.50           2392       24814.00    108558.60
 1270.64        2967.75           2395       24640.00    107794.50
 1270.67        2968.00           2399       23786.00    104044.80
 1270.70        2968.25           2402       23094.00    101007.10
 1270.73        2968.50           2406       21805.00     95350.47
 1270.76        2968.75           2409       20410.00     89231.06
 1270.79        2969.00           2413       19026.00     83162.46
 1270.82        2969.25           2417       17896.00     78209.44
 1270.85        2969.50           2420       16949.00     74059.83
 1270.88        2969.75           2424       15483.00     67638.38
 1270.91        2970.00           2427       14403.00     62909.49
 1270.94        2970.25           2431       12648.00     55228.28
 1270.97        2970.50           2434       11485.00     50140.33
 1271.01        2970.75           2438        9927.00     43327.08
 1271.04        2971.00           2441        8839.00     38571.04
 1271.07        2971.25           2445        7412.00     32335.45
 1271.10        2971.50           2449        5993.00     26137.43
 1271.13        2971.75           2452        5081.00     22155.31
 1271.16        2972.00           2456        3672.00     16005.22
 1271.19        2972.25           2459        2659.00     11585.21
 1271.22        2972.50           2463        1277.00      5557.28
 1271.25        2972.75           2466         500.00      2169.30
 1271.28        2973.00           2470         177.00       761.14
 1271.31        2973.25           2473         155.00       665.23
 1271.34        2973.50           2477         106.00       451.62
 1271.37        2973.75           2481          99.00       421.10
 1271.40        2974.00           2484         117.00       499.57
 1271.43        2974.25           2488          84.00       355.71
 1271.46        2974.50           2491          95.00       403.67
 1271.50        2974.75           2495         107.00       455.98
 1271.53        2975.00           2498         128.00       547.53
 1271.56        2975.25           2502          82.00       347.00
 1271.59        2975.50           2505          84.00       355.71
 1271.62        2975.75           2509          84.00       355.71
 1271.65        2976.00           2512          78.00       329.56
 1271.68        2976.25           2516          80.00       338.28
 1271.71        2976.50           2520          78.00       329.56
 1271.74        2976.75           2523          76.00       320.84
 1271.77        2977.00           2527          75.00       316.48
 1271.80        2977.25           2530          81.00       342.64
 1271.83        2977.50           2534          84.00       355.71
 1271.86        2977.75           2537          82.00       347.00
 1271.89        2978.00           2541          71.00       299.04
 1271.92        2978.25           2544          75.00       316.48
 1271.95        2978.50           2548          73.00       307.76
 1271.98        2978.75           2552          73.00       307.76
 1272.02        2979.00           2555          71.00       299.04
 1272.05        2979.25           2559          70.00       294.68
 1272.08        2979.50           2562          75.00       316.48
 1272.11        2979.75           2566          68.00       285.97
 1272.14        2980.00           2569          73.00       307.76
 1272.17        2980.25           2573          65.00       272.89
 1272.20        2980.50           2577          65.00       272.89
 1272.23        2980.75           2580          64.00       268.53
 1272.26        2981.00           2584          71.00       299.04
 1272.29        2981.25           2587          71.00       299.04
 1272.32        2981.50           2591          66.00       277.25
 1272.35        2981.75           2594          67.00       281.61
 1272.38        2982.00           2598          69.00       290.33
 1272.41        2982.25           2601          64.00       268.53
 1272.44        2982.50           2605          68.00       285.97
 1272.47        2982.75           2609          69.00       290.33
 1272.50        2983.00           2612          66.00       277.25
 1272.53        2983.25           2616          63.00       264.17
 1272.57        2983.50           2619          69.00       290.33
 1272.60        2983.75           2623          64.00       268.53
 1272.63        2984.00           2626          58.00       242.37
HS scan finished at 21:12:51
end
