************************************************************
  HS Scan of (1) Internal mercury lamp
************************************************************
Integration time is 0.2294 seconds per sample
dh260617Reading 51.44 .94 3.49pr1000
************************************************************
Dead Time -------------------------  3.4E-08 
Number of Cycles Used -------------  4 
Starting Wavelength (Angstroms) ---  2950 
Final Wavelength (Angstoms) -------  2984 
Wavelength Increment (Angstroms) --  .25 
Filter Wheel #1 Position ---------- (1) Ground quartz diffuser (ND=2.32)
Filter Wheel #2 Position ---------- (1) Neutral Density 0.494



************************************************************
HS scan start time = 01:18:52
Dark Count =  2.5 


Time (GMT)  Wavelength (Ang)  Step Number  Raw Counts  Counts/Second

   79.77        2950.00           2144         292.00      1262.04
   79.97        2950.25           2147         299.00      1292.56
   80.00        2950.50           2151         300.00      1296.92
   80.03        2950.75           2155         288.00      1244.60
   80.06        2951.00           2158         303.00      1310.00
   80.09        2951.25           2162         310.00      1340.51
   80.12        2951.50           2165         306.00      1323.08
   80.15        2951.75           2169         330.00      1427.71
   80.18        2952.00           2172         309.00      1336.15
   80.21        2952.25           2176         301.00      1301.28
   80.24        2952.50           2179         306.00      1323.08
   80.27        2952.75           2183         324.00      1401.55
   80.30        2953.00           2186         297.00      1283.84
   80.33        2953.25           2190         325.00      1405.91
   80.36        2953.50           2193         313.00      1353.59
   80.39        2953.75           2197         317.00      1371.03
   80.42        2954.00           2200         331.00      1432.07
   80.45        2954.25           2204         375.00      1623.89
   80.49        2954.50           2208         318.00      1375.39
   80.52        2954.75           2211         324.00      1401.55
   80.55        2955.00           2215         347.00      1501.82
   80.58        2955.25           2218         324.00      1401.55
   80.61        2955.50           2222         332.00      1436.43
   80.64        2955.75           2225         330.00      1427.71
   80.67        2956.00           2229         339.00      1466.94
   80.71        2956.25           2232         348.00      1506.18
   80.74        2956.50           2236         350.00      1514.90
   80.77        2956.75           2239         356.00      1541.06
   80.80        2957.00           2243         350.00      1514.90
   80.83        2957.25           2246         345.00      1493.10
   80.87        2957.50           2250         383.00      1658.77
   80.90        2957.75           2254         399.00      1728.52
   80.93        2958.00           2257         376.00      1628.25
   80.96        2958.25           2261         360.00      1558.50
   80.99        2958.50           2264         398.00      1724.16
   81.02        2958.75           2268         418.00      1811.36
   81.05        2959.00           2271         421.00      1824.44
   81.08        2959.25           2275         413.00      1789.56
   81.11        2959.50           2278         403.00      1745.96
   81.14        2959.75           2282         421.00      1824.44
   81.17        2960.00           2285         419.00      1815.72
   81.20        2960.25           2289         435.00      1885.47
   81.23        2960.50           2293         455.00      1972.67
   81.26        2960.75           2296         454.00      1968.31
   81.29        2961.00           2300         541.00      2347.62
   81.32        2961.25           2303         967.00      4205.05
   81.35        2961.50           2307        3926.00     17113.27
   81.38        2961.75           2310        7831.00     34165.65
   81.42        2962.00           2314       13807.00     60300.05
   81.45        2962.25           2317       18815.00     82237.03
   81.48        2962.50           2321       25416.00    111202.10
   81.51        2962.75           2324       30240.00    132406.00
   81.54        2963.00           2328       37745.00    165455.20
   81.57        2963.25           2331       43233.00    189669.50
   81.60        2963.50           2335       50893.00    223534.20
   81.63        2963.75           2339       58559.00    257504.00
   81.66        2964.00           2342       64230.00    282684.40
   81.69        2964.25           2346       70972.00    312676.60
   81.72        2964.50           2349       75993.00    335052.90
   81.75        2964.75           2353       83595.00    368996.70
   81.78        2965.00           2356       88922.00    392829.60
   81.81        2965.25           2360       95389.00    421815.10
   81.84        2965.50           2363      100759.00    445927.50
   81.87        2965.75           2367      107543.00    476446.20
   81.90        2966.00           2370      112490.00    498741.20
   81.94        2966.25           2374      118373.00    525299.10
   81.97        2966.50           2378      123087.00    546614.60
   82.00        2966.75           2381      124272.00    551977.90
   82.03        2967.00           2385      124636.00    553625.80
   82.06        2967.25           2388      124978.00    555174.10
   82.09        2967.50           2392      124758.00    554178.00
   82.12        2967.75           2395      124086.00    551136.00
   82.15        2968.00           2399      122117.00    542226.00
   82.18        2968.25           2402      118871.00    527549.50
   82.21        2968.50           2406      112149.00    497203.40
   82.24        2968.75           2409      106456.00    471551.90
   82.27        2969.00           2413       99148.00    438689.60
   82.30        2969.25           2417       91509.00    404417.80
   82.33        2969.50           2420       86199.00    380642.10
   82.36        2969.75           2424       79359.00    350072.70
   82.39        2970.00           2427       73545.00    324139.00
   82.42        2970.25           2431       65708.00    289254.10
   82.46        2970.50           2434       59735.00    262722.10
   82.49        2970.75           2438       51998.00    228425.90
   82.52        2971.00           2441       46714.00    205049.20
   82.55        2971.25           2445       39739.00    174248.50
   82.58        2971.50           2449       32840.00    143847.00
   82.61        2971.75           2452       27127.00    118719.30
   82.64        2972.00           2456       19899.00     86989.68
   82.67        2972.25           2459       14726.00     64323.17
   82.70        2972.50           2463        8000.00     34904.09
   82.73        2972.75           2466        4044.00     17628.26
   82.76        2973.00           2470        1262.00      5491.43
   82.79        2973.25           2473         684.00      2971.09
   82.82        2973.50           2477         535.00      2321.46
   82.85        2973.75           2481         488.00      2116.54
   82.88        2974.00           2484         466.00      2020.63
   82.91        2974.25           2488         471.00      2042.43
   82.94        2974.50           2491         444.00      1924.71
   82.98        2974.75           2495         437.00      1894.19
   83.01        2975.00           2498         441.00      1911.63
   83.04        2975.25           2502         426.00      1846.24
   83.07        2975.50           2505         427.00      1850.60
   83.10        2975.75           2509         391.00      1693.65
   83.13        2976.00           2512         411.00      1780.84
   83.16        2976.25           2516         415.00      1798.28
   83.19        2976.50           2520         399.00      1728.52
   83.22        2976.75           2523         421.00      1824.44
   83.25        2977.00           2527         376.00      1628.25
   83.28        2977.25           2530         383.00      1658.77
   83.31        2977.50           2534         394.00      1706.73
   83.34        2977.75           2537         368.00      1593.37
   83.38        2978.00           2541         400.00      1732.88
   83.41        2978.25           2544         360.00      1558.50
   83.44        2978.50           2548         371.00      1606.45
   83.47        2978.75           2552         353.00      1527.98
   83.50        2979.00           2555         389.00      1684.93
   83.53        2979.25           2559         349.00      1510.54
   83.56        2979.50           2562         336.00      1453.86
   83.59        2979.75           2566         340.00      1471.30
   83.62        2980.00           2569         351.00      1519.26
   83.65        2980.25           2573         330.00      1427.71
   83.69        2980.50           2577         320.00      1384.11
   83.72        2980.75           2580         368.00      1593.37
   83.75        2981.00           2584         319.00      1379.75
   83.78        2981.25           2587         330.00      1427.71
   83.81        2981.50           2591         332.00      1436.43
   83.84        2981.75           2594         348.00      1506.18
   83.87        2982.00           2598         322.00      1392.83
   83.90        2982.25           2601         321.00      1388.47
   83.93        2982.50           2605         318.00      1375.39
   83.96        2982.75           2609         331.00      1432.07
   83.99        2983.00           2612         336.00      1453.86
   84.02        2983.25           2616         305.00      1318.72
   84.05        2983.50           2619         320.00      1384.11
   84.08        2983.75           2623         303.00      1310.00
   84.11        2984.00           2626         311.00      1344.87
HS scan finished at 01:24:20
end
************************************************************
  HS Scan of (1) Internal mercury lamp
************************************************************
Integration time is 0.2294 seconds per sample
dh260617Reading 51.44 .94 3.8pr1000
************************************************************
Dead Time -------------------------  3.4E-08 
Number of Cycles Used -------------  4 
Starting Wavelength (Angstroms) ---  2950 
Final Wavelength (Angstoms) -------  2984 
Wavelength Increment (Angstroms) --  .25 
Filter Wheel #1 Position ---------- (1) Ground quartz diffuser (ND=2.32)
Filter Wheel #2 Position ---------- (1) Neutral Density 0.494



************************************************************
HS scan start time = 21:07:25
Dark Count =  6.8 


Time (GMT)  Wavelength (Ang)  Step Number  Raw Counts  Counts/Second

 1268.31        2950.00           2144         180.00       755.03
 1268.51        2950.25           2147         176.00       737.59
 1268.54        2950.50           2151         188.00       789.91
 1268.57        2950.75           2155         187.00       785.55
 1268.60        2951.00           2158         191.00       802.99
 1268.63        2951.25           2162         183.00       768.11
 1268.66        2951.50           2165         186.00       781.19
 1268.69        2951.75           2169         178.00       746.31
 1268.72        2952.00           2172         196.00       824.78
 1268.75        2952.25           2176         195.00       820.42
 1268.78        2952.50           2179         195.00       820.42
 1268.81        2952.75           2183         194.00       816.06
 1268.84        2953.00           2186         199.00       837.86
 1268.87        2953.25           2190         190.00       798.63
 1268.91        2953.50           2193         189.00       794.27
 1268.94        2953.75           2197         197.00       829.14
 1268.97        2954.00           2200         203.00       855.30
 1269.00        2954.25           2204         206.00       868.38
 1269.03        2954.50           2208         204.00       859.66
 1269.06        2954.75           2211         203.00       855.30
 1269.09        2955.00           2215         199.00       837.86
 1269.12        2955.25           2218         208.00       877.10
 1269.15        2955.50           2222         208.00       877.10
 1269.18        2955.75           2225         227.00       959.93
 1269.21        2956.00           2229         211.00       890.18
 1269.24        2956.25           2232         204.00       859.66
 1269.27        2956.50           2236         210.00       885.82
 1269.30        2956.75           2239         230.00       973.01
 1269.33        2957.00           2243         242.00      1025.32
 1269.36        2957.25           2246         236.00       999.16
 1269.40        2957.50           2250         244.00      1034.04
 1269.43        2957.75           2254         248.00      1051.48
 1269.46        2958.00           2257         275.00      1169.18
 1269.49        2958.25           2261         263.00      1116.87
 1269.52        2958.50           2264         246.00      1042.76
 1269.55        2958.75           2268         232.00       981.72
 1269.58        2959.00           2271         246.00      1042.76
 1269.61        2959.25           2275         247.00      1047.12
 1269.64        2959.50           2278         284.00      1208.42
 1269.67        2959.75           2282         262.00      1112.51
 1269.70        2960.00           2285         270.00      1147.39
 1269.73        2960.25           2289         295.00      1256.37
 1269.76        2960.50           2293         293.00      1247.66
 1269.79        2960.75           2296         294.00      1252.01
 1269.82        2961.00           2300         335.00      1430.76
 1269.85        2961.25           2303         588.00      2533.78
 1269.88        2961.50           2307        2200.00      9563.70
 1269.91        2961.75           2310        4346.00     18927.61
 1269.95        2962.00           2314        8171.00     35632.51
 1269.98        2962.25           2317       11235.00     49027.61
 1270.01        2962.50           2321       15754.00     68805.94
 1270.04        2962.75           2324       19388.00     84730.22
 1270.07        2963.00           2328       23779.00    103994.80
 1270.10        2963.25           2331       26965.00    117988.50
 1270.13        2963.50           2335       31315.00    137116.40
 1270.16        2963.75           2339       35850.00    157084.30
 1270.19        2964.00           2342       39654.00    173854.60
 1270.22        2964.25           2346       44387.00    194747.30
 1270.25        2964.50           2349       47809.00    209871.50
 1270.28        2964.75           2353       52081.00    228774.30
 1270.31        2965.00           2356       54747.00    240583.30
 1270.34        2965.25           2360       59370.00    261083.30
 1270.37        2965.50           2363       62689.00    275818.60
 1270.40        2965.75           2367       67018.00    295060.40
 1270.43        2966.00           2370       70007.00    308360.80
 1270.47        2966.25           2374       74263.00    327320.00
 1270.50        2966.50           2378       76367.00    336701.80
 1270.53        2966.75           2381       76843.00    338825.10
 1270.56        2967.00           2385       77213.00    340475.80
 1270.59        2967.25           2388       77495.00    341734.00
 1270.62        2967.50           2392       77022.00    339623.70
 1270.65        2967.75           2395       77136.00    340132.30
 1270.68        2968.00           2399       75461.00    332661.20
 1270.71        2968.25           2402       72908.00    321281.20
 1270.74        2968.50           2406       68743.00    302734.80
 1270.77        2968.75           2409       65981.00    290448.80
 1270.80        2969.00           2413       62060.00    273024.90
 1270.83        2969.25           2417       57667.00    253528.20
 1270.86        2969.50           2420       54483.00    239413.50
 1270.89        2969.75           2424       49940.00    219297.70
 1270.92        2970.00           2427       46393.00    203611.30
 1270.95        2970.25           2431       41784.00    183253.30
 1270.99        2970.50           2434       38582.00    169126.70
 1271.02        2970.75           2438       34125.00    149485.80
 1271.05        2971.00           2441       30764.00    134692.10
 1271.08        2971.25           2445       25830.00    113001.80
 1271.11        2971.50           2449       20961.00     91628.51
 1271.14        2971.75           2452       17464.00     76297.06
 1271.17        2972.00           2456       12783.00     55799.75
 1271.20        2972.25           2459        9622.00     41974.42
 1271.23        2972.50           2463        5635.00     24554.93
 1271.26        2972.75           2466        3048.00     13263.17
 1271.29        2973.00           2470         863.00      3732.82
 1271.32        2973.25           2473         402.00      1722.86
 1271.35        2973.50           2477         326.00      1391.52
 1271.38        2973.75           2481         293.00      1247.66
 1271.41        2974.00           2484         293.00      1247.66
 1271.44        2974.25           2488         297.00      1265.09
 1271.47        2974.50           2491         302.00      1286.89
 1271.51        2974.75           2495         288.00      1225.86
 1271.54        2975.00           2498         301.00      1282.53
 1271.57        2975.25           2502         285.00      1212.78
 1271.60        2975.50           2505         247.00      1047.12
 1271.63        2975.75           2509         263.00      1116.87
 1271.66        2976.00           2512         263.00      1116.87
 1271.69        2976.25           2516         243.00      1029.68
 1271.72        2976.50           2520         248.00      1051.48
 1271.75        2976.75           2523         250.00      1060.20
 1271.78        2977.00           2527         239.00      1012.24
 1271.81        2977.25           2530         238.00      1007.88
 1271.84        2977.50           2534         242.00      1025.32
 1271.87        2977.75           2537         233.00       986.08
 1271.90        2978.00           2541         232.00       981.72
 1271.93        2978.25           2544         216.00       911.97
 1271.96        2978.50           2548         222.00       938.13
 1271.99        2978.75           2552         219.00       925.05
 1272.03        2979.00           2555         236.00       999.16
 1272.06        2979.25           2559         210.00       885.82
 1272.09        2979.50           2562         216.00       911.97
 1272.12        2979.75           2566         209.00       881.46
 1272.15        2980.00           2569         204.00       859.66
 1272.18        2980.25           2573         204.00       859.66
 1272.21        2980.50           2577         205.00       864.02
 1272.24        2980.75           2580         195.00       820.42
 1272.27        2981.00           2584         212.00       894.53
 1272.30        2981.25           2587         209.00       881.46
 1272.33        2981.50           2591         201.00       846.58
 1272.36        2981.75           2594         214.00       903.25
 1272.39        2982.00           2598         200.00       842.22
 1272.42        2982.25           2601         200.00       842.22
 1272.45        2982.50           2605         206.00       868.38
 1272.48        2982.75           2609         183.00       768.11
 1272.51        2983.00           2612         189.00       794.27
 1272.55        2983.25           2616         184.00       772.47
 1272.58        2983.50           2619         187.00       785.55
 1272.61        2983.75           2623         204.00       859.66
 1272.64        2984.00           2626         190.00       798.63
HS scan finished at 21:12:52
end
