************************************************************
  HS Scan of (1) Internal mercury lamp
************************************************************
Integration time is 0.2294 seconds per sample
dh220617Reading 51.44 .94 3.66pr1000
************************************************************
Dead Time -------------------------  3.4E-08 
Number of Cycles Used -------------  4 
Starting Wavelength (Angstroms) ---  2950 
Final Wavelength (Angstoms) -------  2984 
Wavelength Increment (Angstroms) --  .25 
Filter Wheel #1 Position ---------- (1) Ground quartz diffuser (ND=2.32)
Filter Wheel #2 Position ---------- (1) Neutral Density 0.494



************************************************************
HS scan start time = 21:07:24
Dark Count =  4.3 


Time (GMT)  Wavelength (Ang)  Step Number  Raw Counts  Counts/Second

 1268.29        2950.00           2144         268.00      1149.57
 1268.48        2950.25           2147         259.00      1110.33
 1268.51        2950.50           2151         288.00      1236.76
 1268.54        2950.75           2155         277.00      1188.80
 1268.57        2951.00           2158         276.00      1184.44
 1268.60        2951.25           2162         295.00      1267.27
 1268.64        2951.50           2165         272.00      1167.00
 1268.67        2951.75           2169         271.00      1162.64
 1268.70        2952.00           2172         284.00      1219.32
 1268.73        2952.25           2176         267.00      1145.21
 1268.76        2952.50           2179         287.00      1232.40
 1268.79        2952.75           2183         302.00      1297.79
 1268.82        2953.00           2186         278.00      1193.16
 1268.85        2953.25           2190         290.00      1245.48
 1268.88        2953.50           2193         288.00      1236.76
 1268.91        2953.75           2197         288.00      1236.76
 1268.94        2954.00           2200         305.00      1310.87
 1268.97        2954.25           2204         290.00      1245.48
 1269.00        2954.50           2208         290.00      1245.48
 1269.03        2954.75           2211         298.00      1280.35
 1269.06        2955.00           2215         302.00      1297.79
 1269.09        2955.25           2218         293.00      1258.55
 1269.12        2955.50           2222         295.00      1267.27
 1269.16        2955.75           2225         310.00      1332.67
 1269.19        2956.00           2229         318.00      1367.54
 1269.22        2956.25           2232         309.00      1328.31
 1269.25        2956.50           2236         314.00      1350.11
 1269.28        2956.75           2239         324.00      1393.70
 1269.31        2957.00           2243         317.00      1363.18
 1269.34        2957.25           2246         303.00      1302.15
 1269.37        2957.50           2250         320.00      1376.26
 1269.40        2957.75           2254         339.00      1459.10
 1269.43        2958.00           2257         347.00      1493.97
 1269.46        2958.25           2261         363.00      1563.73
 1269.49        2958.50           2264         346.00      1489.61
 1269.52        2958.75           2268         342.00      1472.17
 1269.55        2959.00           2271         354.00      1524.49
 1269.58        2959.25           2275         357.00      1537.57
 1269.61        2959.50           2278         339.00      1459.10
 1269.64        2959.75           2282         386.00      1664.00
 1269.68        2960.00           2285         389.00      1677.08
 1269.71        2960.25           2289         386.00      1664.00
 1269.74        2960.50           2293         405.00      1746.83
 1269.77        2960.75           2296         435.00      1877.63
 1269.80        2961.00           2300         436.00      1881.99
 1269.83        2961.25           2303         743.00      3220.49
 1269.86        2961.50           2307        2837.00     12353.49
 1269.89        2961.75           2310        6426.00     28020.15
 1269.92        2962.00           2314       12190.00     53216.08
 1269.95        2962.25           2317       16509.00     72123.90
 1269.98        2962.50           2321       22070.00     96504.88
 1270.01        2962.75           2324       26898.00    117705.10
 1270.04        2963.00           2328       33537.00    146907.60
 1270.07        2963.25           2331       38986.00    170919.30
 1270.10        2963.50           2335       45240.00    198526.90
 1270.13        2963.75           2339       51724.00    227204.80
 1270.16        2964.00           2342       56648.00    249020.60
 1270.20        2964.25           2346       63216.00    278170.80
 1270.23        2964.50           2349       68131.00    300022.70
 1270.26        2964.75           2353       75443.00    332592.10
 1270.29        2965.00           2356       80445.00    354914.00
 1270.32        2965.25           2360       86286.00    381023.30
 1270.35        2965.50           2363       91106.00    402603.90
 1270.38        2965.75           2367       96735.00    427847.10
 1270.41        2966.00           2370      100944.00    446750.80
 1270.44        2966.25           2374      106081.00    469855.70
 1270.47        2966.50           2378      109714.00    486218.10
 1270.50        2966.75           2381      110270.00    488723.90
 1270.53        2967.00           2385      110353.00    489098.00
 1270.56        2967.25           2388      110472.00    489634.40
 1270.59        2967.50           2392      110389.00    489260.20
 1270.62        2967.75           2395      110008.00    487543.10
 1270.65        2968.00           2399      107218.00    474974.60
 1270.68        2968.25           2402      103347.00    457554.40
 1270.71        2968.50           2406       97330.00    430517.90
 1270.75        2968.75           2409       93246.00    412195.50
 1270.78        2969.00           2413       87499.00    386451.30
 1270.81        2969.25           2417       81354.00    358974.20
 1270.84        2969.50           2420       77256.00    340678.80
 1270.87        2969.75           2424       71302.00    314138.20
 1270.90        2970.00           2427       65818.00    289735.10
 1270.93        2970.25           2431       59065.00    259741.00
 1270.96        2970.50           2434       53662.00    235787.20
 1270.99        2970.75           2438       47022.00    206402.90
 1271.02        2971.00           2441       42401.00    185988.00
 1271.05        2971.25           2445       36457.00    159770.10
 1271.08        2971.50           2449       30307.00    132692.80
 1271.11        2971.75           2452       25688.00    112389.00
 1271.14        2972.00           2456       19372.00     84671.03
 1271.17        2972.25           2459       14652.00     63991.30
 1271.21        2972.50           2463        8514.00     37142.35
 1271.25        2972.75           2466        4501.00     19615.08
 1271.28        2973.00           2470        1390.00      6041.78
 1271.31        2973.25           2473         663.00      2871.68
 1271.34        2973.50           2477         473.00      2043.30
 1271.37        2973.75           2481         443.00      1912.50
 1271.40        2974.00           2484         396.00      1707.60
 1271.43        2974.25           2488         393.00      1694.52
 1271.46        2974.50           2491         431.00      1860.19
 1271.49        2974.75           2495         394.00      1698.88
 1271.52        2975.00           2498         404.00      1742.47
 1271.55        2975.25           2502         368.00      1585.53
 1271.58        2975.50           2505         362.00      1559.37
 1271.61        2975.75           2509         353.00      1520.13
 1271.64        2976.00           2512         369.00      1589.89
 1271.67        2976.25           2516         409.00      1764.27
 1271.70        2976.50           2520         346.00      1489.61
 1271.74        2976.75           2523         334.00      1437.30
 1271.77        2977.00           2527         353.00      1520.13
 1271.80        2977.25           2530         341.00      1467.82
 1271.83        2977.50           2534         339.00      1459.10
 1271.86        2977.75           2537         314.00      1350.11
 1271.89        2978.00           2541         318.00      1367.54
 1271.92        2978.25           2544         306.00      1315.23
 1271.95        2978.50           2548         306.00      1315.23
 1271.98        2978.75           2552         305.00      1310.87
 1272.01        2979.00           2555         316.00      1358.83
 1272.04        2979.25           2559         295.00      1267.27
 1272.07        2979.50           2562         292.00      1254.19
 1272.10        2979.75           2566         293.00      1258.55
 1272.13        2980.00           2569         293.00      1258.55
 1272.16        2980.25           2573         291.00      1249.84
 1272.19        2980.50           2577         290.00      1245.48
 1272.22        2980.75           2580         295.00      1267.27
 1272.26        2981.00           2584         285.00      1223.68
 1272.29        2981.25           2587         304.00      1306.51
 1272.32        2981.50           2591         280.00      1201.88
 1272.35        2981.75           2594         263.00      1127.77
 1272.38        2982.00           2598         267.00      1145.21
 1272.41        2982.25           2601         290.00      1245.48
 1272.44        2982.50           2605         278.00      1193.16
 1272.47        2982.75           2609         274.00      1175.72
 1272.50        2983.00           2612         288.00      1236.76
 1272.53        2983.25           2616         277.00      1188.80
 1272.56        2983.50           2619         278.00      1193.16
 1272.59        2983.75           2623         257.00      1101.61
 1272.62        2984.00           2626         266.00      1140.85
HS scan finished at 21:12:51
end
