************************************************************
  HS Scan of (1) Internal mercury lamp
************************************************************
Integration time is 0.2294 seconds per sample
dh230617Reading 51.44 .94 3.5pr1000
************************************************************
Dead Time -------------------------  3.4E-08 
Number of Cycles Used -------------  4 
Starting Wavelength (Angstroms) ---  2950 
Final Wavelength (Angstoms) -------  2984 
Wavelength Increment (Angstroms) --  .25 
Filter Wheel #1 Position ---------- (1) Ground quartz diffuser (ND=2.32)
Filter Wheel #2 Position ---------- (1) Neutral Density 0.494



************************************************************
HS scan start time = 01:10:11
Dark Count =  3.4 


Time (GMT)  Wavelength (Ang)  Step Number  Raw Counts  Counts/Second

   71.08        2950.00           2144         375.00      1619.97
   71.27        2950.25           2147         378.00      1633.05
   71.30        2950.50           2151         382.00      1650.49
   71.33        2950.75           2155         380.00      1641.77
   71.36        2951.00           2158         388.00      1676.64
   71.39        2951.25           2162         372.00      1606.89
   71.42        2951.50           2165         431.00      1864.11
   71.45        2951.75           2169         388.00      1676.64
   71.49        2952.00           2172         365.00      1576.37
   71.52        2952.25           2176         372.00      1606.89
   71.55        2952.50           2179         397.00      1715.88
   71.58        2952.75           2183         390.00      1685.36
   71.61        2953.00           2186         375.00      1619.97
   71.64        2953.25           2190         375.00      1619.97
   71.67        2953.50           2193         391.00      1689.72
   71.70        2953.75           2197         410.00      1772.56
   71.73        2954.00           2200         393.00      1698.44
   71.76        2954.25           2204         414.00      1790.00
   71.79        2954.50           2208         404.00      1746.40
   71.82        2954.75           2211         399.00      1724.60
   71.85        2955.00           2215         417.00      1803.07
   71.88        2955.25           2218         406.00      1755.12
   71.91        2955.50           2222         395.00      1707.16
   71.94        2955.75           2225         406.00      1755.12
   71.97        2956.00           2229         416.00      1798.72
   72.01        2956.25           2232         431.00      1864.11
   72.04        2956.50           2236         443.00      1916.43
   72.07        2956.75           2239         420.00      1816.15
   72.10        2957.00           2243         446.00      1929.51
   72.13        2957.25           2246         422.00      1824.87
   72.16        2957.50           2250         441.00      1907.71
   72.19        2957.75           2254         454.00      1964.39
   72.22        2958.00           2257         451.00      1951.31
   72.25        2958.25           2261         450.00      1946.95
   72.28        2958.50           2264         519.00      2247.77
   72.31        2958.75           2268         466.00      2016.70
   72.34        2959.00           2271         485.00      2099.54
   72.37        2959.25           2275         516.00      2234.69
   72.40        2959.50           2278         496.00      2147.50
   72.45        2959.75           2282         520.00      2252.13
   72.48        2960.00           2285         548.00      2374.21
   72.51        2960.25           2289         591.00      2561.69
   72.54        2960.50           2293         556.00      2409.09
   72.57        2960.75           2296         549.00      2378.57
   72.60        2961.00           2300         705.00      3058.73
   72.64        2961.25           2303        1316.00      5723.00
   72.68        2961.50           2307        5428.00     23665.94
   72.71        2961.75           2310       10400.00     45390.83
   72.74        2962.00           2314       17836.00     77942.12
   72.77        2962.25           2317       23420.00    102433.70
   72.80        2962.50           2321       32379.00    141813.80
   72.83        2962.75           2324       39428.00    172872.80
   72.86        2963.00           2328       48223.00    211717.40
   72.89        2963.25           2331       54977.00    241617.60
   72.92        2963.50           2335       63796.00    280751.80
   72.95        2963.75           2339       72336.00    318747.90
   72.98        2964.00           2342       79367.00    350104.50
   73.01        2964.25           2346       88733.00    391979.30
   73.05        2964.50           2349       95565.00    422600.70
   73.08        2964.75           2353      105323.00    466448.20
   73.11        2965.00           2356      111976.00    496419.20
   73.14        2965.25           2360      119983.00    532571.60
   73.17        2965.50           2363      125946.00    559553.60
   73.20        2965.75           2367      133839.00    595345.60
   73.23        2966.00           2370      139803.00    622448.80
   73.26        2966.25           2374      146904.00    654785.00
   73.29        2966.50           2378      150972.00    673342.10
   73.32        2966.75           2381      151805.00    677145.00
   73.35        2967.00           2385      151917.00    677656.40
   73.38        2967.25           2388      151680.00    676574.30
   73.41        2967.50           2392      151401.00    675300.50
   73.44        2967.75           2395      150183.00    669741.00
   73.47        2968.00           2399      145761.00    649575.10
   73.50        2968.25           2402      139462.00    620897.70
   73.53        2968.50           2406      131319.00    583908.60
   73.57        2968.75           2409      125444.00    557280.10
   73.60        2969.00           2413      117185.00    519928.20
   73.63        2969.25           2417      109067.00    483306.90
   73.66        2969.50           2420      102557.00    454005.80
   73.69        2969.75           2424       93913.00    415190.40
   73.72        2970.00           2427       87007.00    384253.40
   73.75        2970.25           2431       77677.00    342561.30
   73.78        2970.50           2434       71272.00    314008.60
   73.81        2970.75           2438       61895.00    272307.30
   73.84        2971.00           2441       56120.00    246683.70
   73.87        2971.25           2445       48238.00    211783.70
   73.90        2971.50           2449       40252.00    176507.70
   73.93        2971.75           2452       33071.00    144859.90
   73.96        2972.00           2456       23796.00    104084.40
   73.99        2972.25           2459       17414.00     76092.86
   74.02        2972.50           2463        9452.00     41246.12
   74.05        2972.75           2466        4888.00     21308.37
   74.09        2973.00           2470        1547.00      6730.40
   74.12        2973.25           2473         842.00      3656.08
   74.15        2973.50           2477         639.00      2770.97
   74.18        2973.75           2481         577.00      2500.65
   74.21        2974.00           2484         579.00      2509.37
   74.24        2974.25           2488         578.00      2505.01
   74.27        2974.50           2491         543.00      2352.41
   74.30        2974.75           2495         532.00      2304.45
   74.33        2975.00           2498         545.00      2361.13
   74.36        2975.25           2502         514.00      2225.97
   74.39        2975.50           2505         506.00      2191.10
   74.42        2975.75           2509         479.00      2073.38
   74.45        2976.00           2512         469.00      2029.78
   74.48        2976.25           2516         475.00      2055.94
   74.51        2976.50           2520         466.00      2016.70
   74.54        2976.75           2523         467.00      2021.06
   74.57        2977.00           2527         445.00      1925.15
   74.61        2977.25           2530         440.00      1903.35
   74.64        2977.50           2534         447.00      1933.87
   74.67        2977.75           2537         444.00      1920.79
   74.70        2978.00           2541         439.00      1898.99
   74.73        2978.25           2544         437.00      1890.27
   74.76        2978.50           2548         438.00      1894.63
   74.79        2978.75           2552         423.00      1829.23
   74.82        2979.00           2555         419.00      1811.79
   74.85        2979.25           2559         439.00      1898.99
   74.88        2979.50           2562         404.00      1746.40
   74.91        2979.75           2566         418.00      1807.43
   74.94        2980.00           2569         426.00      1842.31
   74.97        2980.25           2573         430.00      1859.75
   75.00        2980.50           2577         403.00      1742.04
   75.03        2980.75           2580         401.00      1733.32
   75.06        2981.00           2584         403.00      1742.04
   75.09        2981.25           2587         387.00      1672.28
   75.13        2981.50           2591         374.00      1615.61
   75.16        2981.75           2594         396.00      1711.52
   75.19        2982.00           2598         378.00      1633.05
   75.22        2982.25           2601         408.00      1763.84
   75.25        2982.50           2605         362.00      1563.29
   75.28        2982.75           2609         360.00      1554.57
   75.32        2983.00           2612         369.00      1593.81
   75.35        2983.25           2616         354.00      1528.41
   75.38        2983.50           2619         393.00      1698.44
   75.41        2983.75           2623         377.00      1628.69
   75.44        2984.00           2626         381.00      1646.13
HS scan finished at 01:15:40
end
************************************************************
  HS Scan of (1) Internal mercury lamp
************************************************************
Integration time is 0.2294 seconds per sample
dh230617Reading 51.44 .94 3.68pr1000
************************************************************
Dead Time -------------------------  3.4E-08 
Number of Cycles Used -------------  4 
Starting Wavelength (Angstroms) ---  2950 
Final Wavelength (Angstoms) -------  2984 
Wavelength Increment (Angstroms) --  .25 
Filter Wheel #1 Position ---------- (1) Ground quartz diffuser (ND=2.32)
Filter Wheel #2 Position ---------- (1) Neutral Density 0.494



************************************************************
HS scan start time = 21:07:24
Dark Count =  4.2 


Time (GMT)  Wavelength (Ang)  Step Number  Raw Counts  Counts/Second

 1268.29        2950.00           2144         308.00      1324.38
 1268.49        2950.25           2147         316.00      1359.26
 1268.52        2950.50           2151         319.00      1372.34
 1268.55        2950.75           2155         311.00      1337.46
 1268.58        2951.00           2158         332.00      1429.01
 1268.61        2951.25           2162         325.00      1398.50
 1268.64        2951.50           2165         330.00      1420.30
 1268.67        2951.75           2169         354.00      1524.93
 1268.70        2952.00           2172         321.00      1381.06
 1268.73        2952.25           2176         329.00      1415.94
 1268.76        2952.50           2179         316.00      1359.26
 1268.79        2952.75           2183         341.00      1468.25
 1268.82        2953.00           2186         309.00      1328.74
 1268.85        2953.25           2190         336.00      1446.45
 1268.88        2953.50           2193         323.00      1389.78
 1268.91        2953.75           2197         326.00      1402.86
 1268.95        2954.00           2200         332.00      1429.01
 1268.98        2954.25           2204         351.00      1511.85
 1269.01        2954.50           2208         333.00      1433.37
 1269.04        2954.75           2211         326.00      1402.86
 1269.07        2955.00           2215         345.00      1485.69
 1269.10        2955.25           2218         368.00      1585.96
 1269.13        2955.50           2222         361.00      1555.44
 1269.16        2955.75           2225         363.00      1564.16
 1269.19        2956.00           2229         375.00      1616.48
 1269.22        2956.25           2232         373.00      1607.76
 1269.25        2956.50           2236         357.00      1538.01
 1269.28        2956.75           2239         378.00      1629.56
 1269.31        2957.00           2243         401.00      1729.83
 1269.34        2957.25           2246         367.00      1581.60
 1269.37        2957.50           2250         375.00      1616.48
 1269.40        2957.75           2254         384.00      1655.72
 1269.43        2958.00           2257         403.00      1738.55
 1269.46        2958.25           2261         384.00      1655.72
 1269.50        2958.50           2264         404.00      1742.91
 1269.53        2958.75           2268         417.00      1799.59
 1269.56        2959.00           2271         426.00      1838.82
 1269.59        2959.25           2275         418.00      1803.95
 1269.62        2959.50           2278         452.00      1952.18
 1269.65        2959.75           2282         445.00      1921.66
 1269.68        2960.00           2285         445.00      1921.66
 1269.71        2960.25           2289         485.00      2096.05
 1269.74        2960.50           2293         440.00      1899.86
 1269.77        2960.75           2296         472.00      2039.37
 1269.80        2961.00           2300         541.00      2340.20
 1269.83        2961.25           2303         741.00      3212.21
 1269.86        2961.50           2307        2307.00     10041.79
 1269.89        2961.75           2310        5888.00     25671.05
 1269.92        2962.00           2314       12397.00     54122.17
 1269.95        2962.25           2317       17800.00     77780.85
 1269.98        2962.50           2321       24646.00    107813.00
 1270.02        2962.75           2324       30437.00    133265.10
 1270.05        2963.00           2328       38713.00    169715.80
 1270.08        2963.25           2331       45098.00    197899.90
 1270.11        2963.50           2335       53730.00    236088.90
 1270.14        2963.75           2339       61018.00    268409.60
 1270.17        2964.00           2342       66712.00    293711.00
 1270.20        2964.25           2346       75236.00    331669.50
 1270.23        2964.50           2349       80635.00    355763.00
 1270.26        2964.75           2353       87510.00    386500.90
 1270.29        2965.00           2356       92115.00    407126.00
 1270.32        2965.25           2360       99303.00    439378.20
 1270.35        2965.50           2363      105216.00    465963.10
 1270.38        2965.75           2367      113461.00    503113.70
 1270.41        2966.00           2370      118653.00    526556.60
 1270.44        2966.25           2374      124769.00    554220.10
 1270.47        2966.50           2378      127970.00    568719.60
 1270.50        2966.75           2381      129100.00    573841.60
 1270.54        2967.00           2385      129436.00    575365.00
 1270.57        2967.25           2388      129557.00    575913.60
 1270.60        2967.50           2392      129490.00    575609.80
 1270.63        2967.75           2395      128675.00    571915.10
 1270.66        2968.00           2399      125035.00    555424.50
 1270.69        2968.25           2402      120932.00    536858.70
 1270.72        2968.50           2406      114091.00    505956.20
 1270.75        2968.75           2409      108987.00    482942.80
 1270.78        2969.00           2413      101574.00    449582.90
 1270.81        2969.25           2417       93792.00    414644.20
 1270.84        2969.50           2420       88878.00    392624.90
 1270.87        2969.75           2424       80964.00    357232.50
 1270.90        2970.00           2427       75363.00    332235.70
 1270.93        2970.25           2431       67888.00    298942.00
 1270.96        2970.50           2434       62587.00    275377.10
 1270.99        2970.75           2438       54758.00    240643.50
 1271.02        2971.00           2441       48221.00    211705.00
 1271.06        2971.25           2445       40274.00    176601.20
 1271.09        2971.50           2449       33122.00    145080.90
 1271.12        2971.75           2452       28039.00    122720.20
 1271.15        2972.00           2456       20636.00     90214.39
 1271.18        2972.25           2459       14917.00     65152.01
 1271.21        2972.50           2463        7666.00     33437.29
 1271.24        2972.75           2466        3882.00     16913.82
 1271.27        2973.00           2470        1215.00      5279.07
 1271.30        2973.25           2473         686.00      2972.40
 1271.33        2973.50           2477         532.00      2300.96
 1271.36        2973.75           2481         523.00      2261.73
 1271.39        2974.00           2484         480.00      2074.25
 1271.42        2974.25           2488         473.00      2043.73
 1271.45        2974.50           2491         463.00      2000.14
 1271.48        2974.75           2495         454.00      1960.90
 1271.51        2975.00           2498         437.00      1886.78
 1271.54        2975.25           2502         440.00      1899.86
 1271.58        2975.50           2505         434.00      1873.70
 1271.61        2975.75           2509         442.00      1908.58
 1271.64        2976.00           2512         416.00      1795.23
 1271.67        2976.25           2516         414.00      1786.51
 1271.70        2976.50           2520         398.00      1716.75
 1271.73        2976.75           2523         400.00      1725.47
 1271.76        2977.00           2527         401.00      1729.83
 1271.79        2977.25           2530         402.00      1734.19
 1271.82        2977.50           2534         397.00      1712.39
 1271.85        2977.75           2537         376.00      1620.84
 1271.88        2978.00           2541         388.00      1673.16
 1271.91        2978.25           2544         380.00      1638.28
 1271.94        2978.50           2548         378.00      1629.56
 1271.97        2978.75           2552         369.00      1590.32
 1272.00        2979.00           2555         361.00      1555.44
 1272.03        2979.25           2559         366.00      1577.24
 1272.06        2979.50           2562         353.00      1520.57
 1272.09        2979.75           2566         364.00      1568.52
 1272.13        2980.00           2569         348.00      1498.77
 1272.16        2980.25           2573         369.00      1590.32
 1272.19        2980.50           2577         346.00      1490.05
 1272.22        2980.75           2580         345.00      1485.69
 1272.25        2981.00           2584         323.00      1389.78
 1272.28        2981.25           2587         332.00      1429.01
 1272.31        2981.50           2591         339.00      1459.53
 1272.34        2981.75           2594         326.00      1402.86
 1272.37        2982.00           2598         328.00      1411.58
 1272.40        2982.25           2601         336.00      1446.45
 1272.43        2982.50           2605         323.00      1389.78
 1272.46        2982.75           2609         318.00      1367.98
 1272.49        2983.00           2612         324.00      1394.14
 1272.52        2983.25           2616         321.00      1381.06
 1272.55        2983.50           2619         311.00      1337.46
 1272.58        2983.75           2623         316.00      1359.26
 1272.62        2984.00           2626         317.00      1363.62
HS scan finished at 21:12:50
end
