************************************************************
  HS Scan of (1) Internal mercury lamp
************************************************************
Integration time is 0.2294 seconds per sample
dh280619El Arenosillo 37.1 6.73 3.78pr1000
************************************************************
Dead Time -------------------------  3.2E-08 
Number of Cycles Used -------------  4 
Starting Wavelength (Angstroms) ---  2950 
Final Wavelength (Angstoms) -------  2984 
Wavelength Increment (Angstroms) --  .25 
Filter Wheel #1 Position ---------- (1) Ground quartz diffuser (ND=2.32)
Filter Wheel #2 Position ---------- (1) Neutral Density 0.494



************************************************************
HS scan start time = 02:09:32
Dark Count =  4.5 


Time (GMT)  Wavelength (Ang)  Step Number  Raw Counts  Counts/Second

  130.43        2950.00           2144        1289.00      5600.39
  130.62        2950.25           2147        1294.00      5622.20
  130.65        2950.50           2151        1306.00      5674.53
  130.68        2950.75           2155        1318.00      5726.86
  130.71        2951.00           2158        1304.00      5665.80
  130.74        2951.25           2162        1334.00      5796.63
  130.77        2951.50           2165        1326.00      5761.74
  130.81        2951.75           2169        1285.00      5582.95
  130.84        2952.00           2172        1313.00      5705.05
  130.87        2952.25           2176        1325.00      5757.38
  130.90        2952.50           2179        1324.00      5753.02
  130.93        2952.75           2183        1365.00      5931.81
  130.96        2953.00           2186        1331.00      5783.55
  130.99        2953.25           2190        1316.00      5718.14
  131.02        2953.50           2193        1343.00      5835.88
  131.05        2953.75           2197        1328.00      5770.46
  131.08        2954.00           2200        1370.00      5953.62
  131.11        2954.25           2204        1377.00      5984.15
  131.14        2954.50           2208        1364.00      5927.45
  131.17        2954.75           2211        1405.00      6106.25
  131.20        2955.00           2215        1406.00      6110.61
  131.23        2955.25           2218        1429.00      6210.91
  131.26        2955.50           2222        1411.00      6132.42
  131.29        2955.75           2225        1452.00      6311.21
  131.33        2956.00           2229        1430.00      6215.27
  131.36        2956.25           2232        1440.00      6258.88
  131.39        2956.50           2236        1478.00      6424.60
  131.42        2956.75           2239        1500.00      6520.54
  131.45        2957.00           2243        1510.00      6564.15
  131.48        2957.25           2246        1556.00      6764.76
  131.51        2957.50           2250        1516.00      6590.32
  131.54        2957.75           2254        1564.00      6799.65
  131.57        2958.00           2257        1550.00      6738.59
  131.60        2958.25           2261        1626.00      7070.04
  131.63        2958.50           2264        1614.00      7017.71
  131.66        2958.75           2268        1628.00      7078.76
  131.69        2959.00           2271        1638.00      7122.37
  131.72        2959.25           2275        1677.00      7292.46
  131.75        2959.50           2278        1683.00      7318.63
  131.78        2959.75           2282        1741.00      7571.58
  131.81        2960.00           2285        1784.00      7759.12
  131.85        2960.25           2289        1802.00      7837.62
  131.88        2960.50           2293        1882.00      8186.54
  131.91        2960.75           2296        1983.00      8627.05
  131.94        2961.00           2300        2482.00     10803.65
  131.97        2961.25           2303        5224.00     22769.42
  132.00        2961.50           2307       18866.00     82438.21
  132.03        2961.75           2310       35757.00    156635.40
  132.06        2962.00           2314       63391.00    278790.40
  132.09        2962.25           2317       84162.00    371243.40
  132.12        2962.50           2321      109601.00    485229.00
  132.15        2962.75           2324      128624.00    571017.10
  132.18        2963.00           2328      156871.00    699286.40
  132.21        2963.25           2331      179168.00    801294.30
  132.24        2963.50           2335      209101.00    939306.50
  132.27        2963.75           2339      234671.00   1058190.00
  132.30        2964.00           2342      253839.00   1147917.00
  132.33        2964.25           2346      279570.00   1269196.00
  132.36        2964.50           2349      300178.00   1367027.00
  132.40        2964.75           2353      328250.00   1501308.00
  132.43        2965.00           2356      350345.00   1607836.00
  132.46        2965.25           2360      379456.00   1749340.00
  132.49        2965.50           2363      398943.00   1844805.00
  132.52        2965.75           2367      422938.00   1963188.00
  132.55        2966.00           2370      439798.00   2046927.00
  132.58        2966.25           2374      456031.00   2127994.00
  132.61        2966.50           2378      461680.00   2156307.00
  132.64        2966.75           2381      462592.00   2160883.00
  132.67        2967.00           2385      463525.00   2165566.00
  132.70        2967.25           2388      463376.00   2164818.00
  132.73        2967.50           2392      462671.00   2161279.00
  132.76        2967.75           2395      458680.00   2141264.00
  132.79        2968.00           2399      443564.00   2065696.00
  132.82        2968.25           2402      429273.00   1994598.00
  132.85        2968.50           2406      403956.00   1869462.00
  132.88        2968.75           2409      382786.00   1765611.00
  132.92        2969.00           2413      357300.00   1641524.00
  132.95        2969.25           2417      333785.00   1527924.00
  132.98        2969.50           2420      314989.00   1437727.00
  133.01        2969.75           2424      289007.00   1313918.00
  133.04        2970.00           2427      269091.00   1219689.00
  133.07        2970.25           2431      241202.00   1088703.00
  133.10        2970.50           2434      221248.00    995667.50
  133.13        2970.75           2438      193170.00    865699.50
  133.16        2971.00           2441      173044.00    773210.00
  133.19        2971.25           2445      145749.00    648654.50
  133.22        2971.50           2449      118540.00    525482.10
  133.25        2971.75           2452       98134.00    433744.70
  133.28        2972.00           2456       71200.00    313484.30
  133.31        2972.25           2459       49951.00    219259.70
  133.34        2972.50           2463       23992.00    104917.90
  133.37        2972.75           2466       10156.00     44315.20
  133.40        2973.00           2470        3175.00     13826.95
  133.44        2973.25           2473        2207.00      9604.08
  133.47        2973.50           2477        2013.00      8757.90
  133.50        2973.75           2481        1889.00      8217.07
  133.53        2974.00           2484        1866.00      8116.76
  133.56        2974.25           2488        1805.00      7850.71
  133.59        2974.50           2491        1764.00      7671.89
  133.62        2974.75           2495        1785.00      7763.48
  133.65        2975.00           2498        1735.00      7545.41
  133.68        2975.25           2502        1678.00      7296.82
  133.71        2975.50           2505        1673.00      7275.02
  133.74        2975.75           2509        1580.00      6869.43
  133.77        2976.00           2512        1610.00      7000.26
  133.80        2976.25           2516        1570.00      6825.82
  133.83        2976.50           2520        1591.00      6917.40
  133.86        2976.75           2523        1523.00      6620.84
  133.89        2977.00           2527        1514.00      6581.60
  133.93        2977.25           2530        1541.00      6699.34
  133.96        2977.50           2534        1524.00      6625.21
  133.99        2977.75           2537        1497.00      6507.46
  134.02        2978.00           2541        1483.00      6446.40
  134.05        2978.25           2544        1435.00      6237.08
  134.08        2978.50           2548        1444.00      6276.33
  134.11        2978.75           2552        1393.00      6053.92
  134.14        2979.00           2555        1398.00      6075.72
  134.17        2979.25           2559        1413.00      6141.14
  134.20        2979.50           2562        1378.00      5988.51
  134.23        2979.75           2566        1385.00      6019.03
  134.26        2980.00           2569        1383.00      6010.31
  134.29        2980.25           2573        1365.00      5931.81
  134.32        2980.50           2577        1350.00      5866.40
  134.35        2980.75           2580        1300.00      5648.36
  134.38        2981.00           2584        1323.00      5748.66
  134.41        2981.25           2587        1318.00      5726.86
  134.45        2981.50           2591        1269.00      5513.18
  134.48        2981.75           2594        1303.00      5661.44
  134.51        2982.00           2598        1315.00      5713.77
  134.54        2982.25           2601        1274.00      5534.98
  134.57        2982.50           2605        1294.00      5622.20
  134.60        2982.75           2609        1287.00      5591.67
  134.63        2983.00           2612        1274.00      5534.98
  134.66        2983.25           2616        1285.00      5582.95
  134.69        2983.50           2619        1293.00      5617.84
  134.72        2983.75           2623        1254.00      5447.77
  134.75        2984.00           2626        1283.00      5574.23
HS scan finished at 02:14:58
end
