************************************************************
  HS Scan of (1) Internal mercury lamp
************************************************************
Integration time is 0.2294 seconds per sample
dh260619El Arenosillo 37.1 6.73 3.66pr1000
************************************************************
Dead Time -------------------------  3.2E-08 
Number of Cycles Used -------------  4 
Starting Wavelength (Angstroms) ---  2950 
Final Wavelength (Angstoms) -------  2984 
Wavelength Increment (Angstroms) --  .25 
Filter Wheel #1 Position ---------- (1) Ground quartz diffuser (ND=2.32)
Filter Wheel #2 Position ---------- (1) Neutral Density 0.494



************************************************************
HS scan start time = 01:54:03
Dark Count =  3.3 


Time (GMT)  Wavelength (Ang)  Step Number  Raw Counts  Counts/Second

  114.94        2950.00           2144        1382.00      6011.18
  115.13        2950.25           2147        1363.00      5928.33
  115.16        2950.50           2151        1334.00      5801.86
  115.20        2950.75           2155        1361.00      5919.60
  115.23        2951.00           2158        1317.00      5727.73
  115.26        2951.25           2162        1356.00      5897.80
  115.29        2951.50           2165        1416.00      6159.45
  115.32        2951.75           2169        1392.00      6054.79
  115.35        2952.00           2172        1403.00      6102.76
  115.38        2952.25           2176        1412.00      6142.01
  115.41        2952.50           2179        1416.00      6159.45
  115.44        2952.75           2183        1399.00      6085.32
  115.47        2953.00           2186        1396.00      6072.23
  115.50        2953.25           2190        1446.00      6290.28
  115.53        2953.50           2193        1420.00      6176.90
  115.56        2953.75           2197        1402.00      6098.40
  115.59        2954.00           2200        1448.00      6299.00
  115.62        2954.25           2204        1426.00      6203.06
  115.65        2954.50           2208        1471.00      6399.30
  115.68        2954.75           2211        1459.00      6346.97
  115.72        2955.00           2215        1468.00      6386.22
  115.75        2955.25           2218        1438.00      6255.39
  115.78        2955.50           2222        1476.00      6421.11
  115.81        2955.75           2225        1511.00      6573.75
  115.84        2956.00           2229        1519.00      6608.63
  115.87        2956.25           2232        1549.00      6739.47
  115.90        2956.50           2236        1573.00      6844.13
  115.93        2956.75           2239        1524.00      6630.44
  115.96        2957.00           2243        1564.00      6804.88
  115.99        2957.25           2246        1556.00      6769.99
  116.02        2957.50           2250        1597.00      6948.80
  116.05        2957.75           2254        1622.00      7057.83
  116.08        2958.00           2257        1658.00      7214.83
  116.11        2958.25           2261        1709.00      7437.25
  116.14        2958.50           2264        1672.00      7275.89
  116.17        2958.75           2268        1727.00      7515.76
  116.20        2959.00           2271        1729.00      7524.48
  116.23        2959.25           2275        1744.00      7589.90
  116.27        2959.50           2278        1787.00      7777.44
  116.30        2959.75           2282        1826.00      7947.53
  116.33        2960.00           2285        1861.00      8100.18
  116.36        2960.25           2289        1877.00      8169.96
  116.39        2960.50           2293        1959.00      8527.61
  116.42        2960.75           2296        1973.00      8588.67
  116.45        2961.00           2300        2297.00     10001.89
  116.48        2961.25           2303        4292.00     18706.49
  116.51        2961.50           2307       15629.00     68264.49
  116.54        2961.75           2310       30735.00    134543.60
  116.57        2962.00           2314       54578.00    239734.00
  116.60        2962.25           2317       74348.00    327497.50
  116.63        2962.50           2321      106601.00    471748.60
  116.66        2962.75           2324      128765.00    571660.10
  116.69        2963.00           2328      156747.00    698726.50
  116.72        2963.25           2331      177031.00    791493.80
  116.76        2963.50           2335      204156.00    916426.60
  116.79        2963.75           2339      232530.00   1048206.00
  116.82        2964.00           2342      254532.00   1151176.00
  116.85        2964.25           2346      283362.00   1287156.00
  116.88        2964.50           2349      305694.00   1393325.00
  116.91        2964.75           2353      334748.00   1532565.00
  116.94        2965.00           2356      358374.00   1646738.00
  116.97        2965.25           2360      388482.00   1793489.00
  117.00        2965.50           2363      409276.00   1895677.00
  117.03        2965.75           2367      433398.00   2015091.00
  117.06        2966.00           2370      449047.00   2093069.00
  117.09        2966.25           2374      467603.00   2186056.00
  117.12        2966.50           2378      475936.00   2228002.00
  117.15        2966.75           2381      477668.00   2236736.00
  117.18        2967.00           2385      477721.00   2237003.00
  117.21        2967.25           2388      477918.00   2237996.00
  117.24        2967.50           2392      477000.00   2233367.00
  117.27        2967.75           2395      473757.00   2217023.00
  117.31        2968.00           2399      458554.00   2140638.00
  117.34        2968.25           2402      441558.00   2055702.00
  117.37        2968.50           2406      414088.00   1919424.00
  117.40        2968.75           2409      394109.00   1821074.00
  117.43        2969.00           2413      366537.00   1686386.00
  117.46        2969.25           2417      340450.00   1560042.00
  117.49        2969.50           2420      322416.00   1473309.00
  117.52        2969.75           2424      298083.00   1357059.00
  117.55        2970.00           2427      277864.00   1261131.00
  117.58        2970.25           2431      247889.00   1120014.00
  117.61        2970.50           2434      225689.00   1016331.00
  117.64        2970.75           2438      195915.00    878362.90
  117.67        2971.00           2441      173871.00    777005.10
  117.70        2971.25           2445      145301.00    646623.90
  117.73        2971.50           2449      117073.00    518874.30
  117.76        2971.75           2452       93762.00    414165.60
  117.79        2972.00           2456       64718.00    284685.90
  117.83        2972.25           2459       43470.00    190639.40
  117.86        2972.50           2463       19647.00     85866.38
  117.89        2972.75           2466        8963.00     39106.01
  117.92        2973.00           2470        3323.00     14477.94
  117.95        2973.25           2473        2330.00     10145.84
  117.98        2973.50           2477        2034.00      8854.73
  118.01        2973.75           2481        1969.00      8571.23
  118.04        2974.00           2484        1955.00      8510.16
  118.07        2974.25           2488        1912.00      8322.62
  118.10        2974.50           2491        1834.00      7982.42
  118.13        2974.75           2495        1825.00      7943.17
  118.16        2975.00           2498        1797.00      7821.05
  118.19        2975.25           2502        1758.00      7650.96
  118.22        2975.50           2505        1718.00      7476.51
  118.25        2975.75           2509        1742.00      7581.18
  118.28        2976.00           2512        1707.00      7428.53
  118.31        2976.25           2516        1631.00      7097.08
  118.35        2976.50           2520        1654.00      7197.39
  118.38        2976.75           2523        1623.00      7062.19
  118.41        2977.00           2527        1587.00      6905.19
  118.44        2977.25           2530        1592.00      6926.99
  118.47        2977.50           2534        1568.00      6822.33
  118.50        2977.75           2537        1536.00      6682.77
  118.53        2978.00           2541        1542.00      6708.94
  118.56        2978.25           2544        1467.00      6381.86
  118.59        2978.50           2548        1501.00      6530.14
  118.62        2978.75           2552        1478.00      6429.83
  118.65        2979.00           2555        1495.00      6503.97
  118.68        2979.25           2559        1430.00      6220.51
  118.71        2979.50           2562        1417.00      6163.81
  118.74        2979.75           2566        1424.00      6194.34
  118.77        2980.00           2569        1411.00      6137.65
  118.80        2980.25           2573        1408.00      6124.57
  118.83        2980.50           2577        1362.00      5923.97
  118.87        2980.75           2580        1396.00      6072.23
  118.90        2981.00           2584        1372.00      5967.57
  118.93        2981.25           2587        1388.00      6037.35
  118.96        2981.50           2591        1411.00      6137.65
  118.99        2981.75           2594        1353.00      5884.72
  119.02        2982.00           2598        1411.00      6137.65
  119.05        2982.25           2601        1356.00      5897.80
  119.08        2982.50           2605        1367.00      5945.77
  119.11        2982.75           2609        1364.00      5932.69
  119.14        2983.00           2612        1340.00      5828.03
  119.17        2983.25           2616        1336.00      5810.58
  119.20        2983.50           2619        1319.00      5736.45
  119.23        2983.75           2623        1312.00      5705.92
  119.26        2984.00           2626        1312.00      5705.92
HS scan finished at 01:59:29
end
