************************************************************
  HS Scan of (1) Internal mercury lamp
************************************************************
Integration time is 0.2294 seconds per sample
dh280617Reading 51.44 .94 3.5pr1000
************************************************************
Dead Time -------------------------  3.4E-08 
Number of Cycles Used -------------  4 
Starting Wavelength (Angstroms) ---  2950 
Final Wavelength (Angstoms) -------  2984 
Wavelength Increment (Angstroms) --  .25 
Filter Wheel #1 Position ---------- (1) Ground quartz diffuser (ND=2.32)
Filter Wheel #2 Position ---------- (1) Neutral Density 0.494



************************************************************
HS scan start time = 01:34:34
Dark Count =  2.2 


Time (GMT)  Wavelength (Ang)  Step Number  Raw Counts  Counts/Second

   95.46        2950.00           2144         378.00      1638.28
   95.65        2950.25           2147         374.00      1620.84
   95.68        2950.50           2151         372.00      1612.12
   95.71        2950.75           2155         365.00      1581.60
   95.74        2951.00           2158         420.00      1821.39
   95.77        2951.25           2162         415.00      1799.59
   95.80        2951.50           2165         402.00      1742.91
   95.84        2951.75           2169         403.00      1747.27
   95.87        2952.00           2172         388.00      1681.87
   95.90        2952.25           2176         385.00      1668.80
   95.93        2952.50           2179         370.00      1603.40
   95.96        2952.75           2183         399.00      1729.83
   95.99        2953.00           2186         393.00      1703.67
   96.02        2953.25           2190         407.00      1764.71
   96.05        2953.50           2193         401.00      1738.55
   96.08        2953.75           2197         409.00      1773.43
   96.11        2954.00           2200         397.00      1721.11
   96.14        2954.25           2204         418.00      1812.67
   96.17        2954.50           2208         420.00      1821.39
   96.20        2954.75           2211         417.00      1808.31
   96.23        2955.00           2215         416.00      1803.95
   96.26        2955.25           2218         427.00      1851.90
   96.29        2955.50           2222         417.00      1808.31
   96.32        2955.75           2225         445.00      1930.38
   96.36        2956.00           2229         445.00      1930.38
   96.39        2956.25           2232         431.00      1869.34
   96.42        2956.50           2236         447.00      1939.10
   96.45        2956.75           2239         445.00      1930.38
   96.48        2957.00           2243         436.00      1891.14
   96.51        2957.25           2246         445.00      1930.38
   96.54        2957.50           2250         453.00      1965.26
   96.57        2957.75           2254         470.00      2039.37
   96.60        2958.00           2257         481.00      2087.33
   96.63        2958.25           2261         500.00      2170.17
   96.66        2958.50           2264         480.00      2082.97
   96.69        2958.75           2268         482.00      2091.69
   96.72        2959.00           2271         529.00      2296.60
   96.75        2959.25           2275         536.00      2327.12
   96.78        2959.50           2278         518.00      2248.65
   96.81        2959.75           2282         494.00      2144.01
   96.85        2960.00           2285         522.00      2266.09
   96.88        2960.25           2289         535.00      2322.76
   96.91        2960.50           2293         547.00      2375.08
   96.94        2960.75           2296         572.00      2484.08
   96.97        2961.00           2300         681.00      2959.32
   97.00        2961.25           2303        1185.00      5156.96
   97.03        2961.50           2307        4056.00     17681.94
   97.06        2961.75           2310        8558.00     37343.81
   97.09        2962.00           2314       16245.00     70976.66
   97.12        2962.25           2317       22145.00     96843.19
   97.15        2962.50           2321       30399.00    133106.70
   97.18        2962.75           2324       37264.00    163336.10
   97.21        2963.00           2328       45951.00    201678.10
   97.24        2963.25           2331       52797.00    231965.30
   97.27        2963.50           2335       61698.00    271437.80
   97.30        2963.75           2339       70333.00    309832.60
   97.33        2964.00           2342       76914.00    339162.30
   97.37        2964.25           2346       86043.00    379945.50
   97.40        2964.50           2349       92872.00    410528.20
   97.43        2964.75           2353      102180.00    452316.10
   97.46        2965.00           2356      108786.00    482046.30
   97.49        2965.25           2360      117762.00    522540.00
   97.52        2965.50           2363      124296.00    552087.90
   97.55        2965.75           2367      132371.00    588687.50
   97.58        2966.00           2370      137755.00    613141.50
   97.61        2966.25           2374      145249.00    647247.60
   97.64        2966.50           2378      149120.00    664896.40
   97.67        2966.75           2381      149943.00    668651.30
   97.70        2967.00           2385      150079.00    669272.00
   97.73        2967.25           2388      150042.00    669103.10
   97.76        2967.50           2392      149972.00    668783.80
   97.79        2967.75           2395      148880.00    663801.50
   97.82        2968.00           2399      144660.00    644564.10
   97.85        2968.25           2402      139359.00    620434.70
   97.88        2968.50           2406      130842.00    581750.30
   97.92        2968.75           2409      124222.00    551752.90
   97.95        2969.00           2413      115957.00    514387.90
   97.98        2969.25           2417      108115.00    479023.70
   98.01        2969.50           2420      101829.00    450738.10
   98.04        2969.75           2424       93405.00    412917.80
   98.07        2970.00           2427       87063.00    384509.40
   98.10        2970.25           2431       77615.00    342290.00
   98.13        2970.50           2434       70752.00    311698.20
   98.16        2970.75           2438       61544.00    270754.00
   98.19        2971.00           2441       54272.00    238499.00
   98.22        2971.25           2445       45862.00    201284.80
   98.25        2971.50           2449       37449.00    164151.60
   98.28        2971.75           2452       30928.00    135433.90
   98.31        2972.00           2456       21997.00     96193.80
   98.34        2972.25           2459       15983.00     69829.06
   98.37        2972.50           2463        8977.00     39175.08
   98.40        2972.75           2466        4318.00     18825.47
   98.44        2973.00           2470        1443.00      6282.07
   98.47        2973.25           2473         768.00      3338.65
   98.50        2973.50           2477         598.00      2597.44
   98.53        2973.75           2481         582.00      2527.68
   98.56        2974.00           2484         560.00      2431.76
   98.59        2974.25           2488         546.00      2370.72
   98.62        2974.50           2491         553.00      2401.24
   98.65        2974.75           2495         543.00      2357.64
   98.68        2975.00           2498         533.00      2314.04
   98.71        2975.25           2502         522.00      2266.09
   98.74        2975.50           2505         509.00      2209.41
   98.77        2975.75           2509         514.00      2231.21
   98.80        2976.00           2512         516.00      2239.93
   98.83        2976.25           2516         473.00      2052.45
   98.86        2976.50           2520         475.00      2061.17
   98.89        2976.75           2523         458.00      1987.06
   98.92        2977.00           2527         477.00      2069.89
   98.96        2977.25           2530         471.00      2043.73
   98.99        2977.50           2534         465.00      2017.58
   99.02        2977.75           2537         456.00      1978.34
   99.05        2978.00           2541         452.00      1960.90
   99.08        2978.25           2544         425.00      1843.18
   99.11        2978.50           2548         427.00      1851.90
   99.14        2978.75           2552         430.00      1864.98
   99.17        2979.00           2555         414.00      1795.23
   99.20        2979.25           2559         417.00      1808.31
   99.23        2979.50           2562         420.00      1821.39
   99.26        2979.75           2566         412.00      1786.51
   99.29        2980.00           2569         412.00      1786.51
   99.32        2980.25           2573         398.00      1725.47
   99.35        2980.50           2577         395.00      1712.39
   99.38        2980.75           2580         408.00      1769.07
   99.41        2981.00           2584         395.00      1712.39
   99.44        2981.25           2587         403.00      1747.27
   99.48        2981.50           2591         382.00      1655.72
   99.51        2981.75           2594         424.00      1838.82
   99.54        2982.00           2598         394.00      1708.03
   99.57        2982.25           2601         402.00      1742.91
   99.60        2982.50           2605         367.00      1590.32
   99.63        2982.75           2609         403.00      1747.27
   99.66        2983.00           2612         394.00      1708.03
   99.69        2983.25           2616         370.00      1603.40
   99.72        2983.50           2619         354.00      1533.65
   99.75        2983.75           2623         392.00      1699.31
   99.78        2984.00           2626         377.00      1633.92
HS scan finished at 01:40:00
end
************************************************************
  HS Scan of (1) Internal mercury lamp
************************************************************
Integration time is 0.2294 seconds per sample
dh280617Reading 51.44 .94 3.41pr1000
************************************************************
Dead Time -------------------------  3.4E-08 
Number of Cycles Used -------------  4 
Starting Wavelength (Angstroms) ---  2950 
Final Wavelength (Angstoms) -------  2984 
Wavelength Increment (Angstroms) --  .25 
Filter Wheel #1 Position ---------- (1) Ground quartz diffuser (ND=2.32)
Filter Wheel #2 Position ---------- (1) Neutral Density 0.494



************************************************************
HS scan start time = 21:07:21
Dark Count =  2.5 


Time (GMT)  Wavelength (Ang)  Step Number  Raw Counts  Counts/Second

 1268.25        2950.00           2144         300.00      1296.92
 1268.44        2950.25           2147         307.00      1327.44
 1268.47        2950.50           2151         299.00      1292.56
 1268.51        2950.75           2155         304.00      1314.36
 1268.54        2951.00           2158         306.00      1323.08
 1268.57        2951.25           2162         293.00      1266.40
 1268.60        2951.50           2165         302.00      1305.64
 1268.63        2951.75           2169         307.00      1327.44
 1268.66        2952.00           2172         307.00      1327.44
 1268.69        2952.25           2176         304.00      1314.36
 1268.72        2952.50           2179         315.00      1362.31
 1268.75        2952.75           2183         309.00      1336.15
 1268.78        2953.00           2186         311.00      1344.87
 1268.81        2953.25           2190         302.00      1305.64
 1268.84        2953.50           2193         322.00      1392.83
 1268.87        2953.75           2197         326.00      1410.27
 1268.90        2954.00           2200         320.00      1384.11
 1268.93        2954.25           2204         313.00      1353.59
 1268.96        2954.50           2208         327.00      1414.63
 1268.99        2954.75           2211         321.00      1388.47
 1269.02        2955.00           2215         336.00      1453.86
 1269.06        2955.25           2218         331.00      1432.07
 1269.09        2955.50           2222         349.00      1510.54
 1269.12        2955.75           2225         342.00      1480.02
 1269.15        2956.00           2229         339.00      1466.94
 1269.18        2956.25           2232         346.00      1497.46
 1269.21        2956.50           2236         343.00      1484.38
 1269.24        2956.75           2239         358.00      1549.78
 1269.27        2957.00           2243         348.00      1506.18
 1269.30        2957.25           2246         364.00      1575.93
 1269.34        2957.50           2250         363.00      1571.57
 1269.38        2957.75           2254         363.00      1571.57
 1269.41        2958.00           2257         374.00      1619.53
 1269.44        2958.25           2261         357.00      1545.42
 1269.47        2958.50           2264         385.00      1667.49
 1269.50        2958.75           2268         364.00      1575.93
 1269.53        2959.00           2271         382.00      1654.41
 1269.56        2959.25           2275         406.00      1759.04
 1269.59        2959.50           2278         394.00      1706.73
 1269.62        2959.75           2282         415.00      1798.28
 1269.65        2960.00           2285         410.00      1776.48
 1269.68        2960.25           2289         439.00      1902.91
 1269.71        2960.50           2293         426.00      1846.24
 1269.74        2960.75           2296         433.00      1876.75
 1269.77        2961.00           2300         503.00      2181.94
 1269.80        2961.25           2303         754.00      3276.30
 1269.84        2961.50           2307        2877.00     12535.86
 1269.87        2961.75           2310        6490.00     28307.53
 1269.90        2962.00           2314       12096.00     52812.71
 1269.93        2962.25           2317       16729.00     73095.56
 1269.96        2962.50           2321       22796.00     99698.77
 1270.00        2962.75           2324       27556.00    120604.70
 1270.03        2963.00           2328       34528.00    151279.60
 1270.06        2963.25           2331       40325.00    176833.80
 1270.09        2963.50           2335       47132.00    206897.10
 1270.12        2963.75           2339       53715.00    236030.00
 1270.15        2964.00           2342       58601.00    257690.40
 1270.18        2964.25           2346       65426.00    288000.40
 1270.21        2964.50           2349       70977.00    312698.80
 1270.24        2964.75           2353       77654.00    342462.70
 1270.27        2965.00           2356       82488.00    364049.00
 1270.30        2965.25           2360       88151.00    389377.70
 1270.33        2965.50           2363       93405.00    412916.50
 1270.36        2965.75           2367      100112.00    443020.20
 1270.39        2966.00           2370      104226.00    461516.30
 1270.42        2966.25           2374      109439.00    484987.00
 1270.45        2966.50           2378      113335.00    502552.90
 1270.48        2966.75           2381      115954.00    514373.10
 1270.51        2967.00           2385      116399.00    516382.40
 1270.55        2967.25           2388      116314.00    515998.60
 1270.58        2967.50           2392      115998.00    514571.70
 1270.61        2967.75           2395      115523.00    512427.20
 1270.64        2968.00           2399      114511.00    507859.30
 1270.67        2968.25           2402      110746.00    490877.50
 1270.70        2968.50           2406      104355.00    462096.70
 1270.73        2968.75           2409       99811.00    441667.90
 1270.76        2969.00           2413       93622.00    413889.50
 1270.79        2969.25           2417       87711.00    387408.20
 1270.82        2969.50           2420       82472.00    363977.50
 1270.85        2969.75           2424       75403.00    332421.70
 1270.88        2970.00           2427       70154.00    309034.40
 1270.91        2970.25           2431       63350.00    278774.10
 1270.94        2970.50           2434       57772.00    254013.00
 1270.97        2970.75           2438       50599.00    222233.00
 1271.00        2971.00           2441       45123.00    198017.90
 1271.03        2971.25           2445       37906.00    166165.00
 1271.07        2971.50           2449       31284.00    136998.90
 1271.10        2971.75           2452       25831.00    113025.10
 1271.13        2972.00           2456       18935.00     82763.08
 1271.16        2972.25           2459       14006.00     61171.13
 1271.19        2972.50           2463        8008.00     34939.04
 1271.22        2972.75           2466        4783.00     20853.93
 1271.25        2973.00           2470        1678.00      7305.65
 1271.28        2973.25           2473         734.00      3189.10
 1271.31        2973.50           2477         503.00      2181.94
 1271.34        2973.75           2481         493.00      2138.34
 1271.37        2974.00           2484         454.00      1968.31
 1271.40        2974.25           2488         436.00      1889.83
 1271.43        2974.50           2491         434.00      1881.11
 1271.46        2974.75           2495         433.00      1876.75
 1271.49        2975.00           2498         429.00      1859.32
 1271.52        2975.25           2502         417.00      1807.00
 1271.55        2975.50           2505         413.00      1789.56
 1271.59        2975.75           2509         395.00      1711.08
 1271.62        2976.00           2512         393.00      1702.37
 1271.65        2976.25           2516         378.00      1636.97
 1271.68        2976.50           2520         404.00      1750.32
 1271.71        2976.75           2523         377.00      1632.61
 1271.74        2977.00           2527         389.00      1684.93
 1271.77        2977.25           2530         383.00      1658.77
 1271.80        2977.50           2534         402.00      1741.60
 1271.83        2977.75           2537         373.00      1615.17
 1271.86        2978.00           2541         355.00      1536.70
 1271.89        2978.25           2544         351.00      1519.26
 1271.92        2978.50           2548         367.00      1589.01
 1271.95        2978.75           2552         337.00      1458.22
 1271.98        2979.00           2555         327.00      1414.63
 1272.01        2979.25           2559         350.00      1514.90
 1272.04        2979.50           2562         331.00      1432.07
 1272.07        2979.75           2566         316.00      1366.67
 1272.11        2980.00           2569         316.00      1366.67
 1272.14        2980.25           2573         316.00      1366.67
 1272.17        2980.50           2577         334.00      1445.15
 1272.20        2980.75           2580         314.00      1357.95
 1272.23        2981.00           2584         314.00      1357.95
 1272.26        2981.25           2587         331.00      1432.07
 1272.29        2981.50           2591         313.00      1353.59
 1272.32        2981.75           2594         314.00      1357.95
 1272.35        2982.00           2598         295.00      1275.12
 1272.38        2982.25           2601         313.00      1353.59
 1272.41        2982.50           2605         304.00      1314.36
 1272.44        2982.75           2609         296.00      1279.48
 1272.47        2983.00           2612         309.00      1336.15
 1272.50        2983.25           2616         323.00      1397.19
 1272.53        2983.50           2619         307.00      1327.44
 1272.56        2983.75           2623         314.00      1357.95
 1272.59        2984.00           2626         298.00      1288.20
HS scan finished at 21:12:49
end
