************************************************************
  HS Scan of (1) Internal mercury lamp
************************************************************
Integration time is 0.2294 seconds per sample
dh230619El Arenosillo 37.1 6.73 3.54pr1000
************************************************************
Dead Time -------------------------  3.2E-08 
Number of Cycles Used -------------  4 
Starting Wavelength (Angstroms) ---  2950 
Final Wavelength (Angstoms) -------  2984 
Wavelength Increment (Angstroms) --  .25 
Filter Wheel #1 Position ---------- (1) Ground quartz diffuser (ND=2.32)
Filter Wheel #2 Position ---------- (1) Neutral Density 0.494



************************************************************
HS scan start time = 01:49:01
Dark Count =  2.5 


Time (GMT)  Wavelength (Ang)  Step Number  Raw Counts  Counts/Second

  109.91        2950.00           2144        1420.00      6180.39
  110.10        2950.25           2147        1397.00      6080.08
  110.13        2950.50           2151        1427.00      6210.91
  110.17        2950.75           2155        1419.00      6176.02
  110.20        2951.00           2158        1441.00      6271.97
  110.23        2951.25           2162        1438.00      6258.88
  110.26        2951.50           2165        1413.00      6149.86
  110.29        2951.75           2169        1431.00      6228.36
  110.32        2952.00           2172        1404.00      6110.61
  110.35        2952.25           2176        1451.00      6315.57
  110.38        2952.50           2179        1477.00      6428.96
  110.41        2952.75           2183        1488.00      6476.93
  110.44        2953.00           2186        1468.00      6389.71
  110.47        2953.25           2190        1488.00      6476.93
  110.50        2953.50           2193        1526.00      6642.65
  110.53        2953.75           2197        1524.00      6633.93
  110.56        2954.00           2200        1527.00      6647.01
  110.59        2954.25           2204        1532.00      6668.82
  110.62        2954.50           2208        1536.00      6686.26
  110.65        2954.75           2211        1548.00      6738.59
  110.68        2955.00           2215        1543.00      6716.79
  110.72        2955.25           2218        1573.00      6847.62
  110.75        2955.50           2222        1540.00      6703.71
  110.78        2955.75           2225        1551.00      6751.68
  110.81        2956.00           2229        1603.00      6978.45
  110.84        2956.25           2232        1583.00      6891.23
  110.87        2956.50           2236        1652.00      7192.15
  110.90        2956.75           2239        1616.00      7035.15
  110.93        2957.00           2243        1637.00      7126.73
  110.96        2957.25           2246        1598.00      6956.65
  110.99        2957.50           2250        1686.00      7340.43
  111.02        2957.75           2254        1704.00      7418.94
  111.05        2958.00           2257        1762.00      7671.89
  111.08        2958.25           2261        1737.00      7562.86
  111.11        2958.50           2264        1754.00      7637.00
  111.14        2958.75           2268        1802.00      7846.35
  111.17        2959.00           2271        1819.00      7920.49
  111.20        2959.25           2275        1828.00      7959.74
  111.24        2959.50           2278        1840.00      8012.08
  111.27        2959.75           2282        1907.00      8304.30
  111.30        2960.00           2285        1962.00      8544.18
  111.33        2960.25           2289        2005.00      8731.73
  111.36        2960.50           2293        2076.00      9041.41
  111.39        2960.75           2296        2154.00      9381.63
  111.42        2961.00           2300        2636.00     11484.17
  111.45        2961.25           2303        5716.00     24926.15
  111.48        2961.50           2307       20550.00     89828.47
  111.51        2961.75           2310       38450.00    168506.40
  111.54        2962.00           2314       65776.00    289387.20
  111.57        2962.25           2317       86877.00    383377.70
  111.60        2962.50           2321      115170.00    510303.40
  111.63        2962.75           2324      135314.00    601309.40
  111.66        2963.00           2328      163469.00    729411.00
  111.69        2963.25           2331      184263.00    824707.90
  111.72        2963.50           2335      212020.00    952840.80
  111.76        2963.75           2339      241665.00   1090878.00
  111.79        2964.00           2342      263678.00   1194188.00
  111.82        2964.25           2346      291840.00   1327379.00
  111.85        2964.50           2349      311879.00   1422864.00
  111.88        2964.75           2353      341990.00   1567475.00
  111.91        2965.00           2356      361653.00   1662656.00
  111.94        2965.25           2360      390404.00   1802909.00
  111.97        2965.50           2363      410911.00   1903746.00
  112.00        2965.75           2367      435636.00   2026223.00
  112.03        2966.00           2370      453936.00   2117517.00
  112.06        2966.25           2374      474645.00   2221500.00
  112.09        2966.50           2378      482956.00   2263434.00
  112.12        2966.75           2381      485185.00   2274700.00
  112.15        2967.00           2385      485939.00   2278514.00
  112.18        2967.25           2388      486302.00   2280350.00
  112.21        2967.50           2392      485456.00   2276071.00
  112.24        2967.75           2395      482508.00   2261170.00
  112.28        2968.00           2399      469893.00   2197576.00
  112.31        2968.25           2402      454664.00   2121160.00
  112.34        2968.50           2406      429069.00   1993596.00
  112.37        2968.75           2409      406609.00   1882536.00
  112.40        2969.00           2413      377644.00   1740503.00
  112.43        2969.25           2417      347246.00   1592859.00
  112.46        2969.50           2420      325762.00   1489368.00
  112.49        2969.75           2424      297558.00   1354564.00
  112.52        2970.00           2427      277261.00   1258283.00
  112.55        2970.25           2431      247669.00   1118987.00
  112.58        2970.50           2434      226951.00   1022210.00
  112.61        2970.75           2438      198553.00    890540.70
  112.64        2971.00           2441      176291.00    788103.40
  112.67        2971.25           2445      146543.00    652272.60
  112.70        2971.50           2449      118659.00    526027.70
  112.73        2971.75           2452       97190.00    429522.90
  112.76        2972.00           2456       65588.00    288552.30
  112.80        2972.25           2459       42446.00    186124.90
  112.83        2972.50           2463       17222.00     75244.18
  112.86        2972.75           2466        7654.00     33390.06
  112.89        2973.00           2470        3066.00     13360.11
  112.92        2973.25           2473        2359.00     10275.83
  112.95        2973.50           2477        2131.00      9281.31
  112.98        2973.75           2481        2066.00      8997.80
  113.01        2974.00           2484        2038.00      8875.67
  113.04        2974.25           2488        1952.00      8500.57
  113.07        2974.50           2491        1902.00      8282.49
  113.10        2974.75           2495        1887.00      8217.07
  113.13        2975.00           2498        1851.00      8060.06
  113.16        2975.25           2502        1826.00      7951.02
  113.19        2975.50           2505        1815.00      7903.05
  113.22        2975.75           2509        1796.00      7820.18
  113.25        2976.00           2512        1745.00      7597.75
  113.28        2976.25           2516        1698.00      7392.77
  113.32        2976.50           2520        1693.00      7370.96
  113.35        2976.75           2523        1696.00      7384.05
  113.38        2977.00           2527        1701.00      7405.85
  113.41        2977.25           2530        1673.00      7283.74
  113.44        2977.50           2534        1570.00      6834.54
  113.47        2977.75           2537        1593.00      6934.84
  113.50        2978.00           2541        1583.00      6891.23
  113.53        2978.25           2544        1574.00      6851.98
  113.56        2978.50           2548        1509.00      6568.51
  113.59        2978.75           2552        1544.00      6721.15
  113.62        2979.00           2555        1553.00      6760.40
  113.65        2979.25           2559        1539.00      6699.34
  113.68        2979.50           2562        1526.00      6642.65
  113.71        2979.75           2566        1506.00      6555.43
  113.74        2980.00           2569        1496.00      6511.82
  113.77        2980.25           2573        1459.00      6350.46
  113.80        2980.50           2577        1441.00      6271.97
  113.84        2980.75           2580        1467.00      6385.35
  113.87        2981.00           2584        1490.00      6485.65
  113.90        2981.25           2587        1469.00      6394.07
  113.93        2981.50           2591        1452.00      6319.94
  113.96        2981.75           2594        1440.00      6267.60
  113.99        2982.00           2598        1379.00      6001.59
  114.02        2982.25           2601        1438.00      6258.88
  114.05        2982.50           2605        1417.00      6167.30
  114.08        2982.75           2609        1422.00      6189.11
  114.11        2983.00           2612        1399.00      6088.81
  114.14        2983.25           2616        1368.00      5953.62
  114.17        2983.50           2619        1382.00      6014.67
  114.20        2983.75           2623        1394.00      6067.00
  114.23        2984.00           2626        1387.00      6036.48
HS scan finished at 01:54:27
end
