************************************************************
  HS Scan of (1) Internal mercury lamp
************************************************************
Integration time is 0.2294 seconds per sample
dh240619El Arenosillo 37.1 6.73 3.72pr1000
************************************************************
Dead Time -------------------------  3.2E-08 
Number of Cycles Used -------------  4 
Starting Wavelength (Angstroms) ---  2950 
Final Wavelength (Angstoms) -------  2984 
Wavelength Increment (Angstroms) --  .25 
Filter Wheel #1 Position ---------- (1) Ground quartz diffuser (ND=2.32)
Filter Wheel #2 Position ---------- (1) Neutral Density 0.494



************************************************************
HS scan start time = 21:27:55
Dark Count =  4.1 


Time (GMT)  Wavelength (Ang)  Step Number  Raw Counts  Counts/Second

 1288.82        2950.00           2144        1242.00      5397.18
 1289.01        2950.25           2147        1261.00      5480.04
 1289.04        2950.50           2151        1263.00      5488.76
 1289.07        2950.75           2155        1237.00      5375.38
 1289.10        2951.00           2158        1254.00      5449.51
 1289.13        2951.25           2162        1263.00      5488.76
 1289.16        2951.50           2165        1279.00      5558.53
 1289.19        2951.75           2169        1277.00      5549.81
 1289.22        2952.00           2172        1276.00      5545.45
 1289.25        2952.25           2176        1270.00      5519.28
 1289.29        2952.50           2179        1292.00      5615.22
 1289.32        2952.75           2183        1301.00      5654.47
 1289.35        2953.00           2186        1287.00      5593.42
 1289.38        2953.25           2190        1295.00      5628.30
 1289.41        2953.50           2193        1344.00      5841.98
 1289.44        2953.75           2197        1339.00      5820.18
 1289.47        2954.00           2200        1320.00      5737.32
 1289.50        2954.25           2204        1339.00      5820.18
 1289.53        2954.50           2208        1352.00      5876.87
 1289.56        2954.75           2211        1383.00      6012.05
 1289.59        2955.00           2215        1392.00      6051.30
 1289.62        2955.25           2218        1330.00      5780.93
 1289.65        2955.50           2222        1365.00      5933.56
 1289.68        2955.75           2225        1417.00      6160.33
 1289.71        2956.00           2229        1427.00      6203.94
 1289.74        2956.25           2232        1404.00      6103.63
 1289.77        2956.50           2236        1409.00      6125.44
 1289.81        2956.75           2239        1436.00      6243.18
 1289.84        2957.00           2243        1459.00      6343.49
 1289.87        2957.25           2246        1462.00      6356.57
 1289.90        2957.50           2250        1468.00      6382.73
 1289.93        2957.75           2254        1420.00      6173.41
 1289.96        2958.00           2257        1531.00      6657.48
 1289.99        2958.25           2261        1524.00      6626.95
 1290.02        2958.50           2264        1546.00      6722.89
 1290.05        2958.75           2268        1554.00      6757.78
 1290.08        2959.00           2271        1552.00      6749.06
 1290.11        2959.25           2275        1638.00      7124.12
 1290.14        2959.50           2278        1622.00      7054.34
 1290.17        2959.75           2282        1715.00      7459.93
 1290.20        2960.00           2285        1711.00      7442.49
 1290.23        2960.25           2289        1730.00      7525.35
 1290.26        2960.50           2293        1802.00      7839.37
 1290.29        2960.75           2296        1871.00      8140.31
 1290.33        2961.00           2300        2220.00      9662.53
 1290.36        2961.25           2303        4117.00     17939.24
 1290.39        2961.50           2307       15348.00     67030.73
 1290.42        2961.75           2310       32051.00    140327.50
 1290.45        2962.00           2314       56538.00    248409.30
 1290.48        2962.25           2317       74152.00    326621.50
 1290.51        2962.50           2321       99651.00    440547.70
 1290.54        2962.75           2324      119447.00    529574.00
 1290.57        2963.00           2328      146650.00    652751.90
 1290.60        2963.25           2331      166732.00    744318.80
 1290.63        2963.50           2335      192484.00    862539.60
 1290.66        2963.75           2339      215190.00    967534.90
 1290.69        2964.00           2342      233059.00   1050670.00
 1290.72        2964.25           2346      258928.00   1171829.00
 1290.75        2964.50           2349      276895.00   1256545.00
 1290.78        2964.75           2353      306562.00   1397463.00
 1290.81        2965.00           2356      326653.00   1493639.00
 1290.85        2965.25           2360      352638.00   1618936.00
 1290.88        2965.50           2363      370853.00   1707387.00
 1290.91        2965.75           2367      395408.00   1827445.00
 1290.94        2966.00           2370      410337.00   1900906.00
 1290.97        2966.25           2374      428372.00   1990129.00
 1291.01        2966.50           2378      436542.00   2030721.00
 1291.04        2966.75           2381      438925.00   2042582.00
 1291.07        2967.00           2385      439001.00   2042961.00
 1291.11        2967.25           2388      439271.00   2044305.00
 1291.14        2967.50           2392      438938.00   2042647.00
 1291.17        2967.75           2395      435835.00   2027205.00
 1291.20        2968.00           2399      423925.00   1968080.00
 1291.23        2968.25           2402      406908.00   1884002.00
 1291.26        2968.50           2406      384246.00   1772752.00
 1291.29        2968.75           2409      368039.00   1693688.00
 1291.32        2969.00           2413      343089.00   1572772.00
 1291.35        2969.25           2417      319218.00   1457977.00
 1291.38        2969.50           2420      299497.00   1363786.00
 1291.41        2969.75           2424      274568.00   1245546.00
 1291.44        2970.00           2427      258079.00   1167837.00
 1291.47        2970.25           2431      231522.00   1043502.00
 1291.50        2970.50           2434      212314.00    954196.30
 1291.53        2970.75           2438      185874.00    832108.30
 1291.56        2971.00           2441      168114.00    750640.30
 1291.59        2971.25           2445      144816.00    644416.40
 1291.63        2971.50           2449      120230.00    533105.80
 1291.66        2971.75           2452      101139.00    447221.70
 1291.69        2972.00           2456       71334.00    314082.10
 1291.72        2972.25           2459       50721.00    222665.90
 1291.75        2972.50           2463       26246.00    114814.70
 1291.78        2972.75           2466       12998.00     56745.93
 1291.81        2973.00           2470        4221.00     18393.12
 1291.84        2973.25           2473        2454.00     10683.25
 1291.87        2973.50           2477        1979.00      8611.35
 1291.90        2973.75           2481        1865.00      8114.14
 1291.93        2974.00           2484        1790.00      7787.03
 1291.96        2974.25           2488        1774.00      7717.25
 1291.99        2974.50           2491        1727.00      7512.27
 1292.02        2974.75           2495        1672.00      7272.40
 1292.05        2975.00           2498        1643.00      7145.92
 1292.08        2975.25           2502        1617.00      7032.53
 1292.11        2975.50           2505        1644.00      7150.29
 1292.14        2975.75           2509        1531.00      6657.48
 1292.18        2976.00           2512        1559.00      6779.59
 1292.21        2976.25           2516        1546.00      6722.89
 1292.24        2976.50           2520        1511.00      6570.26
 1292.27        2976.75           2523        1517.00      6596.42
 1292.30        2977.00           2527        1459.00      6343.49
 1292.33        2977.25           2530        1482.00      6443.79
 1292.36        2977.50           2534        1479.00      6430.70
 1292.39        2977.75           2537        1437.00      6247.54
 1292.42        2978.00           2541        1452.00      6312.96
 1292.45        2978.25           2544        1418.00      6164.69
 1292.48        2978.50           2548        1422.00      6182.13
 1292.51        2978.75           2552        1419.00      6169.05
 1292.54        2979.00           2555        1398.00      6077.47
 1292.57        2979.25           2559        1373.00      5968.45
 1292.60        2979.50           2562        1347.00      5855.06
 1292.63        2979.75           2566        1380.00      5998.97
 1292.66        2980.00           2569        1327.00      5767.85
 1292.70        2980.25           2573        1324.00      5754.77
 1292.73        2980.50           2577        1285.00      5584.69
 1292.76        2980.75           2580        1292.00      5615.22
 1292.79        2981.00           2584        1297.00      5637.02
 1292.82        2981.25           2587        1308.00      5684.99
 1292.85        2981.50           2591        1290.00      5606.50
 1292.88        2981.75           2594        1290.00      5606.50
 1292.91        2982.00           2598        1260.00      5475.68
 1292.94        2982.25           2601        1256.00      5458.23
 1292.97        2982.50           2605        1252.00      5440.79
 1293.00        2982.75           2609        1240.00      5388.46
 1293.03        2983.00           2612        1251.00      5436.43
 1293.06        2983.25           2616        1215.00      5279.45
 1293.09        2983.50           2619        1191.00      5174.79
 1293.12        2983.75           2623        1215.00      5279.45
 1293.15        2984.00           2626        1230.00      5344.86
HS scan finished at 21:33:22
end
