************************************************************
  HS Scan of (1) Internal mercury lamp
************************************************************
Integration time is 0.2294 seconds per sample
dh240617Reading 51.44 .94 3.56pr1000
************************************************************
Dead Time -------------------------  3.4E-08 
Number of Cycles Used -------------  4 
Starting Wavelength (Angstroms) ---  2950 
Final Wavelength (Angstoms) -------  2984 
Wavelength Increment (Angstroms) --  .25 
Filter Wheel #1 Position ---------- (1) Ground quartz diffuser (ND=2.32)
Filter Wheel #2 Position ---------- (1) Neutral Density 0.494



************************************************************
HS scan start time = 01:15:07
Dark Count =  2.6 


Time (GMT)  Wavelength (Ang)  Step Number  Raw Counts  Counts/Second

   76.01        2950.00           2144         332.00      1435.99
   76.20        2950.25           2147         297.00      1283.40
   76.23        2950.50           2151         316.00      1366.24
   76.26        2950.75           2155         304.00      1313.92
   76.29        2951.00           2158         322.00      1392.39
   76.32        2951.25           2162         304.00      1313.92
   76.35        2951.50           2165         324.00      1401.11
   76.38        2951.75           2169         303.00      1309.56
   76.42        2952.00           2172         320.00      1383.67
   76.45        2952.25           2176         335.00      1449.07
   76.48        2952.50           2179         319.00      1379.31
   76.51        2952.75           2183         328.00      1418.55
   76.54        2953.00           2186         320.00      1383.67
   76.57        2953.25           2190         330.00      1427.27
   76.60        2953.50           2193         353.00      1527.54
   76.63        2953.75           2197         328.00      1418.55
   76.66        2954.00           2200         342.00      1479.59
   76.69        2954.25           2204         346.00      1497.02
   76.72        2954.50           2208         352.00      1523.18
   76.75        2954.75           2211         343.00      1483.95
   76.78        2955.00           2215         348.00      1505.74
   76.81        2955.25           2218         371.00      1606.02
   76.84        2955.50           2222         343.00      1483.95
   76.87        2955.75           2225         384.00      1662.69
   76.90        2956.00           2229         381.00      1649.61
   76.94        2956.25           2232         380.00      1645.25
   76.97        2956.50           2236         382.00      1653.97
   77.00        2956.75           2239         384.00      1662.69
   77.03        2957.00           2243         409.00      1771.68
   77.06        2957.25           2246         382.00      1653.97
   77.09        2957.50           2250         385.00      1667.05
   77.12        2957.75           2254         390.00      1688.85
   77.15        2958.00           2257         404.00      1749.89
   77.18        2958.25           2261         423.00      1832.72
   77.21        2958.50           2264         400.00      1732.45
   77.24        2958.75           2268         398.00      1723.73
   77.27        2959.00           2271         435.00      1885.04
   77.30        2959.25           2275         432.00      1871.96
   77.33        2959.50           2278         423.00      1832.72
   77.36        2959.75           2282         425.00      1841.44
   77.39        2960.00           2285         446.00      1933.00
   77.42        2960.25           2289         451.00      1954.79
   77.45        2960.50           2293         475.00      2059.43
   77.49        2960.75           2296         460.00      1994.03
   77.52        2961.00           2300         529.00      2294.86
   77.55        2961.25           2303         741.00      3219.18
   77.58        2961.50           2307        2845.00     12395.81
   77.61        2961.75           2310        6451.00     28136.76
   77.64        2962.00           2314       13029.00     56894.62
   77.67        2962.25           2317       18661.00     81561.53
   77.70        2962.50           2321       26468.00    115823.10
   77.73        2962.75           2324       31776.00    139163.50
   77.76        2963.00           2328       39394.00    172726.30
   77.79        2963.25           2331       44997.00    197460.80
   77.82        2963.50           2335       52753.00    231768.60
   77.85        2963.75           2339       61267.00    269522.20
   77.88        2964.00           2342       67498.00    297214.10
   77.91        2964.25           2346       75661.00    333571.70
   77.94        2964.50           2349       81266.00    358588.60
   77.97        2964.75           2353       89403.00    394983.00
   78.01        2965.00           2356       95517.00    422388.90
   78.04        2965.25           2360      102666.00    454499.50
   78.07        2965.50           2363      108157.00    479211.10
   78.10        2965.75           2367      115161.00    510792.60
   78.13        2966.00           2370      120571.00    535233.60
   78.16        2966.25           2374      127808.00    567992.80
   78.19        2966.50           2378      132265.00    588204.60
   78.22        2966.75           2381      133202.00    592457.40
   78.25        2967.00           2385      133665.00    594559.20
   78.28        2967.25           2388      133661.00    594541.10
   78.31        2967.50           2392      133494.00    593783.00
   78.34        2967.75           2395      133055.00    591790.20
   78.37        2968.00           2399      129796.00    577004.60
   78.40        2968.25           2402      125283.00    556554.60
   78.43        2968.50           2406      118366.00    525267.10
   78.46        2968.75           2409      113696.00    504181.10
   78.49        2969.00           2413      106297.00    470835.70
   78.53        2969.25           2417       98477.00    435675.50
   78.56        2969.50           2420       92856.00    410454.70
   78.59        2969.75           2424       84533.00    373190.10
   78.62        2970.00           2427       78492.00    346202.10
   78.65        2970.25           2431       70808.00    311945.80
   78.68        2970.50           2434       65468.00    288186.60
   78.71        2970.75           2438       58260.00    256177.20
   78.74        2971.00           2441       52461.00    230475.50
   78.77        2971.25           2445       44713.00    196206.00
   78.80        2971.50           2449       36198.00    158636.20
   78.83        2971.75           2452       30116.00    131860.10
   78.86        2972.00           2456       22558.00     98653.81
   78.89        2972.25           2459       17450.00     76254.12
   78.92        2972.50           2463       11338.00     49496.48
   78.95        2972.75           2466        6666.00     29075.81
   78.98        2973.00           2470        2003.00      8722.73
   79.01        2973.25           2473         860.00      3738.05
   79.05        2973.50           2477         563.00      2443.10
   79.08        2973.75           2481         523.00      2268.70
   79.11        2974.00           2484         517.00      2242.54
   79.14        2974.25           2488         505.00      2190.22
   79.17        2974.50           2491         496.00      2150.99
   79.20        2974.75           2495         478.00      2072.51
   79.23        2975.00           2498         483.00      2094.31
   79.26        2975.25           2502         473.00      2050.71
   79.29        2975.50           2505         456.00      1976.59
   79.32        2975.75           2509         447.00      1937.36
   79.35        2976.00           2512         435.00      1885.04
   79.38        2976.25           2516         426.00      1845.80
   79.41        2976.50           2520         419.00      1815.28
   79.44        2976.75           2523         424.00      1837.08
   79.47        2977.00           2527         401.00      1736.81
   79.50        2977.25           2530         399.00      1728.09
   79.53        2977.50           2534         399.00      1728.09
   79.57        2977.75           2537         393.00      1701.93
   79.60        2978.00           2541         395.00      1710.65
   79.63        2978.25           2544         401.00      1736.81
   79.66        2978.50           2548         369.00      1597.30
   79.69        2978.75           2552         410.00      1776.04
   79.72        2979.00           2555         387.00      1675.77
   79.75        2979.25           2559         384.00      1662.69
   79.78        2979.50           2562         376.00      1627.81
   79.81        2979.75           2566         349.00      1510.10
   79.84        2980.00           2569         377.00      1632.17
   79.87        2980.25           2573         372.00      1610.38
   79.90        2980.50           2577         350.00      1514.46
   79.93        2980.75           2580         333.00      1440.35
   79.96        2981.00           2584         341.00      1475.23
   79.99        2981.25           2587         359.00      1553.70
   80.02        2981.50           2591         341.00      1475.23
   80.05        2981.75           2594         341.00      1475.23
   80.09        2982.00           2598         324.00      1401.11
   80.12        2982.25           2601         339.00      1466.51
   80.15        2982.50           2605         346.00      1497.02
   80.18        2982.75           2609         339.00      1466.51
   80.21        2983.00           2612         329.00      1422.91
   80.24        2983.25           2616         338.00      1462.15
   80.27        2983.50           2619         314.00      1357.52
   80.30        2983.75           2623         333.00      1440.35
   80.33        2984.00           2626         312.00      1348.80
HS scan finished at 01:20:33
end
************************************************************
  HS Scan of (1) Internal mercury lamp
************************************************************
Integration time is 0.2294 seconds per sample
dh240617Reading 51.44 .94 3.58pr1000
************************************************************
Dead Time -------------------------  3.4E-08 
Number of Cycles Used -------------  4 
Starting Wavelength (Angstroms) ---  2950 
Final Wavelength (Angstoms) -------  2984 
Wavelength Increment (Angstroms) --  .25 
Filter Wheel #1 Position ---------- (1) Ground quartz diffuser (ND=2.32)
Filter Wheel #2 Position ---------- (1) Neutral Density 0.494



************************************************************
HS scan start time = 21:07:26
Dark Count =  3.2 


Time (GMT)  Wavelength (Ang)  Step Number  Raw Counts  Counts/Second

 1268.34        2950.00           2144         299.00      1289.51
 1268.53        2950.25           2147         301.00      1298.23
 1268.56        2950.50           2151         288.00      1241.55
 1268.59        2950.75           2155         308.00      1328.74
 1268.62        2951.00           2158         313.00      1350.54
 1268.65        2951.25           2162         309.00      1333.10
 1268.68        2951.50           2165         306.00      1320.02
 1268.71        2951.75           2169         306.00      1320.02
 1268.74        2952.00           2172         323.00      1394.14
 1268.77        2952.25           2176         326.00      1407.22
 1268.80        2952.50           2179         303.00      1306.95
 1268.83        2952.75           2183         326.00      1407.22
 1268.87        2953.00           2186         319.00      1376.70
 1268.90        2953.25           2190         312.00      1346.18
 1268.93        2953.50           2193         313.00      1350.54
 1268.96        2953.75           2197         330.00      1424.65
 1268.99        2954.00           2200         321.00      1385.42
 1269.02        2954.25           2204         336.00      1450.81
 1269.05        2954.50           2208         333.00      1437.73
 1269.08        2954.75           2211         323.00      1394.14
 1269.11        2955.00           2215         324.00      1398.50
 1269.14        2955.25           2218         345.00      1490.05
 1269.17        2955.50           2222         337.00      1455.17
 1269.20        2955.75           2225         333.00      1437.73
 1269.23        2956.00           2229         350.00      1511.85
 1269.26        2956.25           2232         343.00      1481.33
 1269.29        2956.50           2236         352.00      1520.57
 1269.32        2956.75           2239         358.00      1546.72
 1269.35        2957.00           2243         364.00      1572.88
 1269.39        2957.25           2246         363.00      1568.52
 1269.42        2957.50           2250         367.00      1585.96
 1269.45        2957.75           2254         376.00      1625.20
 1269.48        2958.00           2257         386.00      1668.80
 1269.51        2958.25           2261         371.00      1603.40
 1269.54        2958.50           2264         399.00      1725.47
 1269.57        2958.75           2268         362.00      1564.16
 1269.60        2959.00           2271         394.00      1703.67
 1269.63        2959.25           2275         400.00      1729.83
 1269.66        2959.50           2278         411.00      1777.79
 1269.69        2959.75           2282         429.00      1856.26
 1269.72        2960.00           2285         416.00      1799.59
 1269.75        2960.25           2289         437.00      1891.14
 1269.78        2960.50           2293         460.00      1991.42
 1269.81        2960.75           2296         458.00      1982.70
 1269.84        2961.00           2300         524.00      2270.45
 1269.87        2961.25           2303         913.00      3966.53
 1269.91        2961.50           2307        3443.00     15002.42
 1269.94        2961.75           2310        7158.00     31222.32
 1269.97        2962.00           2314       13629.00     59517.88
 1270.00        2962.25           2317       18654.00     81528.21
 1270.03        2962.50           2321       24664.00    107896.40
 1270.06        2962.75           2324       29571.00    129460.50
 1270.09        2963.00           2328       36701.00    160850.30
 1270.12        2963.25           2331       42769.00    187617.60
 1270.15        2963.50           2335       50407.00    221380.20
 1270.18        2963.75           2339       56990.00    250541.90
 1270.21        2964.00           2342       61571.00    270869.40
 1270.24        2964.25           2346       68175.00    300223.40
 1270.27        2964.50           2349       73574.00    324265.10
 1270.30        2964.75           2353       80722.00    356156.00
 1270.33        2965.00           2356       86853.00    383565.10
 1270.36        2965.25           2360       93796.00    414666.60
 1270.39        2965.50           2363       98402.00    435336.00
 1270.43        2965.75           2367      104132.00    461090.20
 1270.46        2966.00           2370      108902.00    482564.40
 1270.49        2966.25           2374      114903.00    509625.30
 1270.52        2966.50           2378      120098.00    533092.30
 1270.55        2966.75           2381      121198.00    538066.20
 1270.58        2967.00           2385      121742.00    540526.50
 1270.61        2967.25           2388      121688.00    540282.30
 1270.64        2967.50           2392      121888.00    541186.90
 1270.67        2967.75           2395      121368.00    538835.00
 1270.70        2968.00           2399      119876.00    532088.70
 1270.73        2968.25           2402      116252.00    515715.50
 1270.76        2968.50           2406      109524.00    485366.90
 1270.79        2968.75           2409      104430.00    462430.90
 1270.82        2969.00           2413       97815.00    432700.20
 1270.85        2969.25           2417       90900.00    401685.80
 1270.88        2969.50           2420       86396.00    381520.30
 1270.92        2969.75           2424       78947.00    348230.40
 1270.95        2970.00           2427       72491.00    319439.30
 1270.98        2970.25           2431       64475.00    283770.00
 1271.01        2970.50           2434       59266.00    260637.80
 1271.04        2970.75           2438       51951.00    228214.70
 1271.07        2971.00           2441       46973.00    206191.10
 1271.10        2971.25           2445       39802.00    174523.40
 1271.13        2971.50           2449       32256.00    141273.30
 1271.16        2971.75           2452       26766.00    117129.90
 1271.19        2972.00           2456       19315.00     84425.96
 1271.22        2972.25           2459       14151.00     61802.79
 1271.25        2972.50           2463        7660.00     33415.45
 1271.28        2972.75           2466        4027.00     17551.01
 1271.31        2973.00           2470        1354.00      5889.58
 1271.34        2973.25           2473         722.00      3133.73
 1271.37        2973.50           2477         520.00      2253.01
 1271.40        2973.75           2481         507.00      2196.33
 1271.43        2974.00           2484         470.00      2035.01
 1271.47        2974.25           2488         453.00      1960.90
 1271.50        2974.50           2491         437.00      1891.14
 1271.53        2974.75           2495         451.00      1952.18
 1271.56        2975.00           2498         424.00      1834.46
 1271.59        2975.25           2502         422.00      1825.75
 1271.62        2975.50           2505         406.00      1755.99
 1271.65        2975.75           2509         408.00      1764.71
 1271.68        2976.00           2512         410.00      1773.43
 1271.71        2976.25           2516         410.00      1773.43
 1271.74        2976.50           2520         385.00      1664.44
 1271.77        2976.75           2523         379.00      1638.28
 1271.80        2977.00           2527         380.00      1642.64
 1271.83        2977.25           2530         394.00      1703.67
 1271.86        2977.50           2534         380.00      1642.64
 1271.89        2977.75           2537         378.00      1633.92
 1271.92        2978.00           2541         377.00      1629.56
 1271.95        2978.25           2544         363.00      1568.52
 1271.99        2978.50           2548         370.00      1599.04
 1272.02        2978.75           2552         351.00      1516.21
 1272.05        2979.00           2555         350.00      1511.85
 1272.08        2979.25           2559         339.00      1463.89
 1272.11        2979.50           2562         351.00      1516.21
 1272.14        2979.75           2566         325.00      1402.86
 1272.17        2980.00           2569         328.00      1415.94
 1272.20        2980.25           2573         340.00      1468.25
 1272.23        2980.50           2577         335.00      1446.45
 1272.27        2980.75           2580         318.00      1372.34
 1272.30        2981.00           2584         324.00      1398.50
 1272.33        2981.25           2587         315.00      1359.26
 1272.36        2981.50           2591         330.00      1424.65
 1272.39        2981.75           2594         337.00      1455.17
 1272.42        2982.00           2598         316.00      1363.62
 1272.45        2982.25           2601         321.00      1385.42
 1272.48        2982.50           2605         303.00      1306.95
 1272.51        2982.75           2609         314.00      1354.90
 1272.54        2983.00           2612         318.00      1372.34
 1272.57        2983.25           2616         314.00      1354.90
 1272.60        2983.50           2619         299.00      1289.51
 1272.63        2983.75           2623         296.00      1276.43
 1272.66        2984.00           2626         317.00      1367.98
HS scan finished at 21:12:53
end
