************************************************************
  HS Scan of (1) Internal mercury lamp
************************************************************
Integration time is 0.2294 seconds per sample
dh190619El Arenosillo 37.1 6.73 3.7pr1000
************************************************************
Dead Time -------------------------  3.2E-08 
Number of Cycles Used -------------  4 
Starting Wavelength (Angstroms) ---  2950 
Final Wavelength (Angstoms) -------  2984 
Wavelength Increment (Angstroms) --  .25 
Filter Wheel #1 Position ---------- (1) Ground quartz diffuser (ND=2.32)
Filter Wheel #2 Position ---------- (1) Neutral Density 0.494



************************************************************
HS scan start time = 01:52:31
Dark Count =  4.1 


Time (GMT)  Wavelength (Ang)  Step Number  Raw Counts  Counts/Second

  113.42        2950.00           2144        1321.00      5741.68
  113.61        2950.25           2147        1303.00      5663.19
  113.64        2950.50           2151        1249.00      5427.71
  113.67        2950.75           2155        1326.00      5763.49
  113.70        2951.00           2158        1295.00      5628.30
  113.73        2951.25           2162        1308.00      5684.99
  113.76        2951.50           2165        1324.00      5754.77
  113.79        2951.75           2169        1307.00      5680.63
  113.82        2952.00           2172        1324.00      5754.77
  113.86        2952.25           2176        1309.00      5689.35
  113.89        2952.50           2179        1336.00      5807.10
  113.92        2952.75           2183        1347.00      5855.06
  113.95        2953.00           2186        1321.00      5741.68
  113.98        2953.25           2190        1361.00      5916.12
  114.01        2953.50           2193        1365.00      5933.56
  114.04        2953.75           2197        1363.00      5924.84
  114.07        2954.00           2200        1400.00      6086.19
  114.10        2954.25           2204        1383.00      6012.05
  114.13        2954.50           2208        1385.00      6020.78
  114.16        2954.75           2211        1413.00      6142.88
  114.19        2955.00           2215        1434.00      6234.46
  114.22        2955.25           2218        1406.00      6112.36
  114.25        2955.50           2222        1428.00      6208.30
  114.28        2955.75           2225        1451.00      6308.60
  114.31        2956.00           2229        1410.00      6129.80
  114.34        2956.25           2232        1444.00      6278.07
  114.38        2956.50           2236        1430.00      6217.02
  114.41        2956.75           2239        1435.00      6238.82
  114.44        2957.00           2243        1487.00      6465.59
  114.47        2957.25           2246        1455.00      6326.04
  114.50        2957.50           2250        1494.00      6496.12
  114.53        2957.75           2254        1511.00      6570.26
  114.56        2958.00           2257        1521.00      6613.87
  114.59        2958.25           2261        1518.00      6600.78
  114.62        2958.50           2264        1578.00      6862.45
  114.65        2958.75           2268        1560.00      6783.95
  114.68        2959.00           2271        1622.00      7054.34
  114.71        2959.25           2275        1591.00      6919.14
  114.74        2959.50           2278        1668.00      7254.95
  114.77        2959.75           2282        1688.00      7342.18
  114.80        2960.00           2285        1674.00      7281.12
  114.83        2960.25           2289        1759.00      7651.83
  114.86        2960.50           2293        1851.00      8053.08
  114.89        2960.75           2296        1805.00      7852.45
  114.93        2961.00           2300        2334.00     10159.80
  114.96        2961.25           2303        4975.00     21684.18
  114.99        2961.50           2307       17254.00     75377.33
  115.02        2961.75           2310       31252.00    136813.40
  115.05        2962.00           2314       52752.00    231649.40
  115.08        2962.25           2317       69567.00    306224.60
  115.11        2962.50           2321       93988.00    415173.80
  115.14        2962.75           2324      111000.00    491523.70
  115.17        2963.00           2328      134800.00    598973.30
  115.20        2963.25           2331      155026.00    690877.60
  115.23        2963.50           2335      183001.00    818900.10
  115.26        2963.75           2339      209453.00    940938.60
  115.29        2964.00           2342      228657.00   1030148.00
  115.32        2964.25           2346      252889.00   1143459.00
  115.35        2964.50           2349      269342.00   1220875.00
  115.38        2964.75           2353      293873.00   1337031.00
  115.42        2965.00           2356      312879.00   1427637.00
  115.45        2965.25           2360      337053.00   1543663.00
  115.48        2965.50           2363      353769.00   1624413.00
  115.51        2965.75           2367      376940.00   1737060.00
  115.54        2966.00           2370      394111.00   1821080.00
  115.57        2966.25           2374      411908.00   1908657.00
  115.60        2966.50           2378      423624.00   1966588.00
  115.63        2966.75           2381      427267.00   1984647.00
  115.66        2967.00           2385      428261.00   1989578.00
  115.69        2967.25           2388      428440.00   1990466.00
  115.72        2967.50           2392      428465.00   1990590.00
  115.75        2967.75           2395      426347.00   1980085.00
  115.78        2968.00           2399      416284.00   1930269.00
  115.81        2968.25           2402      402973.00   1864626.00
  115.84        2968.50           2406      382510.00   1764264.00
  115.87        2968.75           2409      363823.00   1673189.00
  115.90        2969.00           2413      336535.00   1541167.00
  115.93        2969.25           2417      311900.00   1422957.00
  115.97        2969.50           2420      294034.00   1337797.00
  116.00        2969.75           2424      269002.00   1219271.00
  116.03        2970.00           2427      250709.00   1133231.00
  116.06        2970.25           2431      223527.00   1006267.00
  116.09        2970.50           2434      203305.00    912487.90
  116.12        2970.75           2438      177373.00    793059.10
  116.15        2971.00           2441      158550.00    706946.20
  116.18        2971.25           2445      132879.00    590272.90
  116.21        2971.50           2449      108002.00    478041.40
  116.24        2971.75           2452       89948.00    397097.30
  116.27        2972.00           2456       63455.00    279076.20
  116.30        2972.25           2459       44200.00    193857.50
  116.33        2972.50           2463       20797.00     90904.41
  116.36        2972.75           2466        9347.00     40780.74
  116.39        2973.00           2470        3220.00     14025.04
  116.42        2973.25           2473        2210.00      9618.91
  116.45        2973.50           2477        1907.00      8297.32
  116.49        2973.75           2481        1836.00      7987.66
  116.52        2974.00           2484        1754.00      7630.02
  116.55        2974.25           2488        1726.00      7507.91
  116.58        2974.50           2491        1702.00      7403.24
  116.61        2974.75           2495        1646.00      7159.01
  116.64        2975.00           2498        1639.00      7128.48
  116.67        2975.25           2502        1595.00      6936.59
  116.70        2975.50           2505        1636.00      7115.40
  116.73        2975.75           2509        1598.00      6949.67
  116.76        2976.00           2512        1567.00      6814.48
  116.79        2976.25           2516        1529.00      6648.76
  116.82        2976.50           2520        1523.00      6622.59
  116.85        2976.75           2523        1562.00      6792.67
  116.88        2977.00           2527        1477.00      6421.98
  116.91        2977.25           2530        1466.00      6374.01
  116.94        2977.50           2534        1482.00      6443.79
  116.98        2977.75           2537        1428.00      6208.30
  117.01        2978.00           2541        1439.00      6256.27
  117.04        2978.25           2544        1394.00      6060.03
  117.07        2978.50           2548        1395.00      6064.39
  117.10        2978.75           2552        1363.00      5924.84
  117.13        2979.00           2555        1398.00      6077.47
  117.16        2979.25           2559        1363.00      5924.84
  117.19        2979.50           2562        1366.00      5937.92
  117.22        2979.75           2566        1370.00      5955.36
  117.25        2980.00           2569        1312.00      5702.44
  117.28        2980.25           2573        1289.00      5602.14
  117.31        2980.50           2577        1298.00      5641.38
  117.34        2980.75           2580        1315.00      5715.52
  117.37        2981.00           2584        1265.00      5497.48
  117.40        2981.25           2587        1284.00      5580.33
  117.43        2981.50           2591        1293.00      5619.58
  117.46        2981.75           2594        1272.00      5528.01
  117.49        2982.00           2598        1253.00      5445.15
  117.53        2982.25           2601        1240.00      5388.46
  117.56        2982.50           2605        1260.00      5475.68
  117.59        2982.75           2609        1250.00      5432.07
  117.62        2983.00           2612        1273.00      5532.37
  117.65        2983.25           2616        1237.00      5375.38
  117.68        2983.50           2619        1243.00      5401.54
  117.71        2983.75           2623        1224.00      5318.69
  117.74        2984.00           2626        1255.00      5453.87
HS scan finished at 01:57:57
end
