************************************************************
  HS Scan of (1) Internal mercury lamp
************************************************************
Integration time is 0.2294 seconds per sample
dh230618Reading 51.44 .94 3.35pr1000
************************************************************
Dead Time -------------------------  3.4E-08 
Number of Cycles Used -------------  4 
Starting Wavelength (Angstroms) ---  2950 
Final Wavelength (Angstoms) -------  2984 
Wavelength Increment (Angstroms) --  .25 
Filter Wheel #1 Position ---------- (1) Ground quartz diffuser (ND=2.32)
Filter Wheel #2 Position ---------- (1) Neutral Density 0.494



************************************************************
HS scan start time = 01:12:38
Dark Count =  1.6 


Time (GMT)  Wavelength (Ang)  Step Number  Raw Counts  Counts/Second

   73.53        2950.00           2144          76.00       324.33
   73.73        2950.25           2147          79.00       337.41
   73.76        2950.50           2151          74.00       315.61
   73.79        2950.75           2155          66.00       280.74
   73.82        2951.00           2158          74.00       315.61
   73.85        2951.25           2162          65.00       276.38
   73.88        2951.50           2165          75.00       319.97
   73.91        2951.75           2169          72.00       306.89
   73.94        2952.00           2172          71.00       302.53
   73.97        2952.25           2176          69.00       293.81
   74.00        2952.50           2179          62.00       263.30
   74.03        2952.75           2183          75.00       319.97
   74.06        2953.00           2186          75.00       319.97
   74.09        2953.25           2190          75.00       319.97
   74.12        2953.50           2193          77.00       328.69
   74.15        2953.75           2197          74.00       315.61
   74.18        2954.00           2200          78.00       333.05
   74.21        2954.25           2204          74.00       315.61
   74.24        2954.50           2208          76.00       324.33
   74.28        2954.75           2211          75.00       319.97
   74.31        2955.00           2215          84.00       359.20
   74.34        2955.25           2218          79.00       337.41
   74.37        2955.50           2222          79.00       337.41
   74.40        2955.75           2225          76.00       324.33
   74.43        2956.00           2229          81.00       346.12
   74.46        2956.25           2232          76.00       324.33
   74.49        2956.50           2236          82.00       350.48
   74.52        2956.75           2239          80.00       341.77
   74.55        2957.00           2243          82.00       350.48
   74.59        2957.25           2246          81.00       346.12
   74.62        2957.50           2250          76.00       324.33
   74.65        2957.75           2254          80.00       341.77
   74.68        2958.00           2257          82.00       350.48
   74.71        2958.25           2261          80.00       341.77
   74.74        2958.50           2264          89.00       381.00
   74.77        2958.75           2268          91.00       389.72
   74.80        2959.00           2271          81.00       346.12
   74.84        2959.25           2275          99.00       424.59
   74.87        2959.50           2278          92.00       394.08
   74.90        2959.75           2282         100.00       428.95
   74.93        2960.00           2285          95.00       407.15
   74.96        2960.25           2289          95.00       407.15
   74.99        2960.50           2293          98.00       420.23
   75.02        2960.75           2296         111.00       476.90
   75.05        2961.00           2300         130.00       559.73
   75.08        2961.25           2303         284.00      1231.09
   75.11        2961.50           2307         902.00      3925.55
   75.14        2961.75           2310        1743.00      7593.07
   75.17        2962.00           2314        3271.00     14258.87
   75.20        2962.25           2317        4531.00     19757.82
   75.23        2962.50           2321        6004.00     26188.96
   75.26        2962.75           2324        7059.00     30796.83
   75.29        2963.00           2328        8506.00     37119.19
   75.32        2963.25           2331        9803.00     42788.46
   75.35        2963.50           2335       11319.00     49417.75
   75.39        2963.75           2339       12751.00     55682.48
   75.42        2964.00           2342       14151.00     61809.80
   75.45        2964.25           2346       15806.00     69056.46
   75.48        2964.50           2349       16917.00     73923.15
   75.51        2964.75           2353       18603.00     81311.68
   75.54        2965.00           2356       19771.00     86432.36
   75.57        2965.25           2360       21215.00     92765.54
   75.60        2965.50           2363       22450.00     98184.24
   75.63        2965.75           2367       24020.00    105075.70
   75.66        2966.00           2370       25314.00    110758.10
   75.69        2966.25           2374       26436.00    115686.90
   75.72        2966.50           2378       26964.00    118007.00
   75.75        2966.75           2381       27133.00    118749.60
   75.78        2967.00           2385       27203.00    119057.20
   75.81        2967.25           2388       27074.00    118490.40
   75.84        2967.50           2392       27002.00    118174.00
   75.87        2967.75           2395       26832.00    117426.90
   75.91        2968.00           2399       25730.00    112585.30
   75.94        2968.25           2402       24646.00    107824.40
   75.97        2968.50           2406       23176.00    101370.60
   76.00        2968.75           2409       22080.00     96560.62
   76.03        2969.00           2413       20764.00     90787.22
   76.06        2969.25           2417       19202.00     83937.55
   76.09        2969.50           2420       17989.00     78620.53
   76.12        2969.75           2424       16239.00     70953.01
   76.15        2970.00           2427       14932.00     65229.08
   76.18        2970.25           2431       13250.00     57866.14
   76.21        2970.50           2434       12243.00     53459.77
   76.24        2970.75           2438       10724.00     46815.53
   76.27        2971.00           2441        9506.00     41490.05
   76.30        2971.25           2445        7694.00     33570.99
   76.33        2971.50           2449        6144.00     26800.35
   76.36        2971.75           2452        4996.00     21787.71
   76.39        2972.00           2456        3520.00     15345.41
   76.43        2972.25           2459        2515.00     10960.49
   76.46        2972.50           2463        1333.00      5804.98
   76.49        2972.75           2466         625.00      2717.78
   76.52        2973.00           2470         184.00       795.14
   76.55        2973.25           2473         161.00       694.87
   76.58        2973.50           2477         109.00       468.19
   76.61        2973.75           2481         104.00       446.39
   76.64        2974.00           2484          96.00       411.51
   76.67        2974.25           2488          97.00       415.87
   76.70        2974.50           2491          94.00       402.80
   76.73        2974.75           2495         110.00       472.54
   76.76        2975.00           2498         104.00       446.39
   76.79        2975.25           2502         113.00       485.62
   76.82        2975.50           2505          92.00       394.08
   76.85        2975.75           2509          90.00       385.36
   76.88        2976.00           2512          90.00       385.36
   76.91        2976.25           2516          94.00       402.80
   76.95        2976.50           2520          86.00       367.92
   76.98        2976.75           2523          85.00       363.56
   77.01        2977.00           2527          81.00       346.12
   77.04        2977.25           2530          82.00       350.48
   77.07        2977.50           2534          84.00       359.20
   77.10        2977.75           2537          76.00       324.33
   77.13        2978.00           2541          82.00       350.48
   77.16        2978.25           2544          75.00       319.97
   77.19        2978.50           2548          75.00       319.97
   77.22        2978.75           2552          75.00       319.97
   77.25        2979.00           2555          84.00       359.20
   77.28        2979.25           2559          74.00       315.61
   77.31        2979.50           2562          78.00       333.05
   77.34        2979.75           2566          75.00       319.97
   77.37        2980.00           2569          78.00       333.05
   77.40        2980.25           2573          76.00       324.33
   77.43        2980.50           2577          66.00       280.74
   77.47        2980.75           2580          75.00       319.97
   77.50        2981.00           2584          73.00       311.25
   77.53        2981.25           2587          65.00       276.38
   77.56        2981.50           2591          70.00       298.17
   77.60        2981.75           2594          69.00       293.81
   77.63        2982.00           2598          75.00       319.97
   77.66        2982.25           2601          76.00       324.33
   77.69        2982.50           2605          72.00       306.89
   77.72        2982.75           2609          70.00       298.17
   77.75        2983.00           2612          70.00       298.17
   77.78        2983.25           2616          69.00       293.81
   77.81        2983.50           2619          76.00       324.33
   77.84        2983.75           2623          67.00       285.09
   77.88        2984.00           2626          75.00       319.97
HS scan finished at 01:18:06
end
************************************************************
  HS Scan of (1) Internal mercury lamp
************************************************************
Integration time is 0.2294 seconds per sample
dh230618Reading 51.44 .94 3.82pr1000
************************************************************
Dead Time -------------------------  3.4E-08 
Number of Cycles Used -------------  4 
Starting Wavelength (Angstroms) ---  2950 
Final Wavelength (Angstoms) -------  2984 
Wavelength Increment (Angstroms) --  .25 
Filter Wheel #1 Position ---------- (1) Ground quartz diffuser (ND=2.32)
Filter Wheel #2 Position ---------- (1) Neutral Density 0.494



************************************************************
HS scan start time = 21:07:23
Dark Count =  5.9 


Time (GMT)  Wavelength (Ang)  Step Number  Raw Counts  Counts/Second

 1268.28        2950.00           2144          54.00       209.68
 1268.48        2950.25           2147          62.00       244.55
 1268.51        2950.50           2151          58.00       227.12
 1268.54        2950.75           2155          60.00       235.83
 1268.57        2951.00           2158          61.00       240.19
 1268.60        2951.25           2162          57.00       222.76
 1268.63        2951.50           2165          67.00       266.35
 1268.66        2951.75           2169          62.00       244.55
 1268.69        2952.00           2172          54.00       209.68
 1268.72        2952.25           2176          58.00       227.12
 1268.75        2952.50           2179          59.00       231.48
 1268.78        2952.75           2183          59.00       231.48
 1268.81        2953.00           2186          61.00       240.19
 1268.84        2953.25           2190          60.00       235.83
 1268.87        2953.50           2193          58.00       227.12
 1268.90        2953.75           2197          61.00       240.19
 1268.93        2954.00           2200          62.00       244.55
 1268.96        2954.25           2204          61.00       240.19
 1269.00        2954.50           2208          62.00       244.55
 1269.03        2954.75           2211          66.00       261.99
 1269.06        2955.00           2215          62.00       244.55
 1269.09        2955.25           2218          66.00       261.99
 1269.12        2955.50           2222          63.00       248.91
 1269.15        2955.75           2225          72.00       288.15
 1269.18        2956.00           2229          65.00       257.63
 1269.21        2956.25           2232          66.00       261.99
 1269.24        2956.50           2236          60.00       235.83
 1269.27        2956.75           2239          65.00       257.63
 1269.30        2957.00           2243          75.00       301.22
 1269.33        2957.25           2246          68.00       270.71
 1269.36        2957.50           2250          70.00       279.43
 1269.39        2957.75           2254          60.00       235.83
 1269.42        2958.00           2257          74.00       296.86
 1269.45        2958.25           2261          73.00       292.51
 1269.48        2958.50           2264          69.00       275.07
 1269.51        2958.75           2268          78.00       314.30
 1269.55        2959.00           2271          71.00       283.79
 1269.58        2959.25           2275          80.00       323.02
 1269.61        2959.50           2278          77.00       309.94
 1269.64        2959.75           2282          75.00       301.22
 1269.67        2960.00           2285          78.00       314.30
 1269.70        2960.25           2289          82.00       331.74
 1269.73        2960.50           2293          83.00       336.10
 1269.76        2960.75           2296          79.00       318.66
 1269.79        2961.00           2300          98.00       401.49
 1269.82        2961.25           2303         192.00       811.27
 1269.85        2961.50           2307         688.00      2973.71
 1269.88        2961.75           2310        1374.00      5965.03
 1269.91        2962.00           2314        2488.00     10823.95
 1269.94        2962.25           2317        3360.00     14628.46
 1269.97        2962.50           2321        4626.00     20153.74
 1270.00        2962.75           2324        5482.00     23890.80
 1270.03        2963.00           2328        6851.00     29869.46
 1270.07        2963.25           2331        7686.00     33517.25
 1270.10        2963.50           2335        8933.00     38966.59
 1270.13        2963.75           2339       10202.00     44514.14
 1270.16        2964.00           2342       10978.00     47907.53
 1270.19        2964.25           2346       12477.00     54464.76
 1270.22        2964.50           2349       13557.00     59190.93
 1270.25        2964.75           2353       14721.00     64286.39
 1270.28        2965.00           2356       15458.00     67513.56
 1270.31        2965.25           2360       16810.00     73435.53
 1270.34        2965.50           2363       17738.00     77501.69
 1270.37        2965.75           2367       18920.00     82682.41
 1270.40        2966.00           2370       19916.00     87049.32
 1270.43        2966.25           2374       20894.00     91338.57
 1270.46        2966.50           2378       21783.00     95238.58
 1270.49        2966.75           2381       21771.00     95185.94
 1270.52        2967.00           2385       21942.00     95936.22
 1270.55        2967.25           2388       21933.00     95896.74
 1270.59        2967.50           2392       21794.00     95286.84
 1270.62        2967.75           2395       21648.00     94646.28
 1270.65        2968.00           2399       21181.00     92597.52
 1270.68        2968.25           2402       20288.00     88680.68
 1270.71        2968.50           2406       19099.00     83467.15
 1270.74        2968.75           2409       18061.00     78917.22
 1270.77        2969.00           2413       16955.00     74070.80
 1270.80        2969.25           2417       15778.00     68914.99
 1270.83        2969.50           2420       14765.00     64479.04
 1270.86        2969.75           2424       13441.00     58683.23
 1270.89        2970.00           2427       12338.00     53856.60
 1270.92        2970.25           2431       11071.00     48314.26
 1270.95        2970.50           2434       10270.00     44811.47
 1270.98        2970.75           2438        8863.00     38660.64
 1271.01        2971.00           2441        7980.00     34801.84
 1271.04        2971.25           2445        6517.00     28410.60
 1271.08        2971.50           2449        5280.00     23008.84
 1271.11        2971.75           2452        4436.00     19324.38
 1271.14        2972.00           2456        3196.00     13912.86
 1271.17        2972.25           2459        2368.00     10300.47
 1271.20        2972.50           2463        1281.00      5559.46
 1271.23        2972.75           2466         576.00      2485.39
 1271.26        2973.00           2470         169.00       711.00
 1271.29        2973.25           2473         131.00       545.35
 1271.32        2973.50           2477          93.00       379.69
 1271.35        2973.75           2481          89.00       362.25
 1271.38        2974.00           2484          86.00       349.18
 1271.41        2974.25           2488          85.00       344.82
 1271.44        2974.50           2491          83.00       336.10
 1271.47        2974.75           2495          74.00       296.86
 1271.50        2975.00           2498          83.00       336.10
 1271.53        2975.25           2502          81.00       327.38
 1271.56        2975.50           2505          74.00       296.86
 1271.60        2975.75           2509          76.00       305.58
 1271.63        2976.00           2512          70.00       279.43
 1271.66        2976.25           2516          74.00       296.86
 1271.69        2976.50           2520          74.00       296.86
 1271.72        2976.75           2523          70.00       279.43
 1271.75        2977.00           2527          70.00       279.43
 1271.78        2977.25           2530          66.00       261.99
 1271.81        2977.50           2534          66.00       261.99
 1271.84        2977.75           2537          70.00       279.43
 1271.87        2978.00           2541          71.00       283.79
 1271.90        2978.25           2544          64.00       253.27
 1271.93        2978.50           2548          58.00       227.12
 1271.96        2978.75           2552          62.00       244.55
 1271.99        2979.00           2555          63.00       248.91
 1272.02        2979.25           2559          74.00       296.86
 1272.05        2979.50           2562          61.00       240.19
 1272.08        2979.75           2566          68.00       270.71
 1272.12        2980.00           2569          62.00       244.55
 1272.15        2980.25           2573          63.00       248.91
 1272.18        2980.50           2577          71.00       283.79
 1272.21        2980.75           2580          68.00       270.71
 1272.24        2981.00           2584          56.00       218.40
 1272.27        2981.25           2587          64.00       253.27
 1272.30        2981.50           2591          58.00       227.12
 1272.33        2981.75           2594          61.00       240.19
 1272.36        2982.00           2598          59.00       231.48
 1272.39        2982.25           2601          60.00       235.83
 1272.42        2982.50           2605          54.00       209.68
 1272.45        2982.75           2609          54.00       209.68
 1272.48        2983.00           2612          67.00       266.35
 1272.51        2983.25           2616          61.00       240.19
 1272.54        2983.50           2619          57.00       222.76
 1272.57        2983.75           2623          58.00       227.12
 1272.60        2984.00           2626          56.00       218.40
HS scan finished at 21:12:50
end
