************************************************************
  HS Scan of (1) Internal mercury lamp
************************************************************
Integration time is 0.2294 seconds per sample
dh200619El Arenosillo 37.1 6.73 3.64pr1000
************************************************************
Dead Time -------------------------  3.2E-08 
Number of Cycles Used -------------  4 
Starting Wavelength (Angstroms) ---  2950 
Final Wavelength (Angstoms) -------  2984 
Wavelength Increment (Angstroms) --  .25 
Filter Wheel #1 Position ---------- (1) Ground quartz diffuser (ND=2.32)
Filter Wheel #2 Position ---------- (1) Neutral Density 0.494



************************************************************
HS scan start time = 21:27:42
Dark Count =  3.1 


Time (GMT)  Wavelength (Ang)  Step Number  Raw Counts  Counts/Second

 1288.59        2950.00           2144        1252.00      5445.15
 1288.79        2950.25           2147        1297.00      5641.38
 1288.82        2950.50           2151        1281.00      5571.61
 1288.85        2950.75           2155        1290.00      5610.86
 1288.88        2951.00           2158        1290.00      5610.86
 1288.91        2951.25           2162        1298.00      5645.75
 1288.94        2951.50           2165        1309.00      5693.71
 1288.97        2951.75           2169        1333.00      5798.37
 1289.00        2952.00           2172        1326.00      5767.85
 1289.03        2952.25           2176        1365.00      5937.92
 1289.06        2952.50           2179        1323.00      5754.77
 1289.09        2952.75           2183        1349.00      5868.15
 1289.12        2953.00           2186        1362.00      5924.84
 1289.15        2953.25           2190        1330.00      5785.29
 1289.18        2953.50           2193        1356.00      5898.67
 1289.21        2953.75           2197        1369.00      5955.36
 1289.25        2954.00           2200        1361.00      5920.48
 1289.28        2954.25           2204        1413.00      6147.24
 1289.31        2954.50           2208        1390.00      6046.94
 1289.34        2954.75           2211        1397.00      6077.47
 1289.37        2955.00           2215        1397.00      6077.47
 1289.40        2955.25           2218        1397.00      6077.47
 1289.43        2955.50           2222        1431.00      6225.74
 1289.46        2955.75           2225        1458.00      6343.49
 1289.49        2956.00           2229        1422.00      6186.49
 1289.52        2956.25           2232        1430.00      6221.38
 1289.55        2956.50           2236        1460.00      6352.21
 1289.58        2956.75           2239        1503.00      6539.73
 1289.61        2957.00           2243        1484.00      6456.87
 1289.64        2957.25           2246        1503.00      6539.73
 1289.67        2957.50           2250        1525.00      6635.67
 1289.70        2957.75           2254        1548.00      6735.98
 1289.73        2958.00           2257        1566.00      6814.48
 1289.76        2958.25           2261        1596.00      6945.31
 1289.80        2958.50           2264        1607.00      6993.28
 1289.83        2958.75           2268        1576.00      6858.09
 1289.86        2959.00           2271        1645.00      7159.01
 1289.89        2959.25           2275        1675.00      7289.84
 1289.92        2959.50           2278        1711.00      7446.85
 1289.95        2959.75           2282        1724.00      7503.55
 1289.98        2960.00           2285        1734.00      7547.16
 1290.01        2960.25           2289        1760.00      7660.55
 1290.04        2960.50           2293        1800.00      7835.01
 1290.07        2960.75           2296        1903.00      8284.24
 1290.10        2961.00           2300        2159.00      9400.82
 1290.13        2961.25           2303        3397.00     14801.69
 1290.16        2961.50           2307       11118.00     48527.35
 1290.19        2961.75           2310       25189.00    110178.10
 1290.22        2962.00           2314       51036.00    224063.30
 1290.25        2962.25           2317       72637.00    319883.30
 1290.28        2962.50           2321      100928.00    446279.70
 1290.32        2962.75           2324      121314.00    538001.30
 1290.35        2963.00           2328      148040.00    659076.80
 1290.38        2963.25           2331      169451.00    756763.00
 1290.41        2963.50           2335      197841.00    887251.20
 1290.44        2963.75           2339      223761.00   1007360.00
 1290.47        2964.00           2342      243099.00   1097584.00
 1290.50        2964.25           2346      269045.00   1219479.00
 1290.53        2964.50           2349      288361.00   1310859.00
 1290.56        2964.75           2353      315851.00   1441859.00
 1290.59        2965.00           2356      335128.00   1534396.00
 1290.62        2965.25           2360      359621.00   1652789.00
 1290.65        2965.50           2363      378762.00   1745958.00
 1290.68        2965.75           2367      404691.00   1873087.00
 1290.71        2966.00           2370      422640.00   1961719.00
 1290.74        2966.25           2374      439954.00   2047711.00
 1290.77        2966.50           2378      448111.00   2088394.00
 1290.80        2966.75           2381      448950.00   2092585.00
 1290.84        2967.00           2385      449543.00   2095548.00
 1290.87        2967.25           2388      449327.00   2094469.00
 1290.90        2967.50           2392      448911.00   2092390.00
 1290.93        2967.75           2395      446225.00   2078978.00
 1290.96        2968.00           2399      431880.00   2007550.00
 1290.99        2968.25           2402      416713.00   1932394.00
 1291.02        2968.50           2406      392137.00   1811402.00
 1291.05        2968.75           2409      369989.00   1703185.00
 1291.08        2969.00           2413      347081.00   1592059.00
 1291.11        2969.25           2417      320635.00   1464772.00
 1291.14        2969.50           2420      299748.00   1364986.00
 1291.17        2969.75           2424      274164.00   1243642.00
 1291.20        2970.00           2427      256823.00   1161939.00
 1291.23        2970.25           2431      233061.00   1050684.00
 1291.26        2970.50           2434      215178.00    967483.90
 1291.29        2970.75           2438      189769.00    850037.60
 1291.32        2971.00           2441      169745.00    758108.60
 1291.36        2971.25           2445      141094.00    627518.50
 1291.39        2971.50           2449      112358.00    497639.10
 1291.42        2971.75           2452       92947.00    410518.40
 1291.45        2972.00           2456       67707.00    297962.20
 1291.48        2972.25           2459       47717.00    209392.70
 1291.51        2972.50           2463       21416.00     93623.13
 1291.54        2972.75           2466        9008.00     39303.55
 1291.57        2973.00           2470        3220.00     14029.40
 1291.60        2973.25           2473        2266.00      9867.54
 1291.63        2973.50           2477        1969.00      8572.10
 1291.66        2973.75           2481        1878.00      8175.20
 1291.69        2974.00           2484        1882.00      8192.64
 1291.72        2974.25           2488        1803.00      7848.09
 1291.75        2974.50           2491        1771.00      7708.53
 1291.78        2974.75           2495        1737.00      7560.24
 1291.81        2975.00           2498        1721.00      7490.46
 1291.84        2975.25           2502        1694.00      7372.71
 1291.88        2975.50           2505        1649.00      7176.45
 1291.91        2975.75           2509        1642.00      7145.92
 1291.94        2976.00           2512        1639.00      7132.84
 1291.97        2976.25           2516        1565.00      6810.12
 1292.00        2976.50           2520        1575.00      6853.73
 1292.03        2976.75           2523        1558.00      6779.59
 1292.06        2977.00           2527        1527.00      6644.39
 1292.09        2977.25           2530        1503.00      6539.73
 1292.12        2977.50           2534        1528.00      6648.76
 1292.15        2977.75           2537        1468.00      6387.09
 1292.18        2978.00           2541        1472.00      6404.54
 1292.21        2978.25           2544        1411.00      6138.52
 1292.24        2978.50           2548        1413.00      6147.24
 1292.27        2978.75           2552        1407.00      6121.08
 1292.30        2979.00           2555        1382.00      6012.05
 1292.33        2979.25           2559        1391.00      6051.30
 1292.36        2979.50           2562        1367.00      5946.64
 1292.40        2979.75           2566        1366.00      5942.28
 1292.43        2980.00           2569        1358.00      5907.39
 1292.46        2980.25           2573        1363.00      5929.20
 1292.49        2980.50           2577        1342.00      5837.62
 1292.52        2980.75           2580        1320.00      5741.68
 1292.55        2981.00           2584        1327.00      5772.21
 1292.58        2981.25           2587        1312.00      5706.80
 1292.61        2981.50           2591        1349.00      5868.15
 1292.64        2981.75           2594        1288.00      5602.14
 1292.67        2982.00           2598        1306.00      5680.63
 1292.70        2982.25           2601        1280.00      5567.25
 1292.73        2982.50           2605        1269.00      5519.28
 1292.76        2982.75           2609        1260.00      5480.04
 1292.79        2983.00           2612        1251.00      5440.79
 1292.82        2983.25           2616        1256.00      5462.59
 1292.85        2983.50           2619        1293.00      5623.94
 1292.88        2983.75           2623        1274.00      5541.09
 1292.92        2984.00           2626        1254.00      5453.87
HS scan finished at 21:33:08
end
