************************************************************
  HS Scan of (1) Internal mercury lamp
************************************************************
Integration time is 0.2294 seconds per sample
dh270619El Arenosillo 37.1 6.73 3.74pr1000
************************************************************
Dead Time -------------------------  3.2E-08 
Number of Cycles Used -------------  4 
Starting Wavelength (Angstroms) ---  2950 
Final Wavelength (Angstoms) -------  2984 
Wavelength Increment (Angstroms) --  .25 
Filter Wheel #1 Position ---------- (1) Ground quartz diffuser (ND=2.32)
Filter Wheel #2 Position ---------- (1) Neutral Density 0.494



************************************************************
HS scan start time = 03:14:54
Dark Count =  4.3 


Time (GMT)  Wavelength (Ang)  Step Number  Raw Counts  Counts/Second

  195.80        2950.00           2144        1292.00      5614.35
  195.99        2950.25           2147        1277.00      5548.94
  196.02        2950.50           2151        1286.00      5588.18
  196.05        2950.75           2155        1272.00      5527.13
  196.08        2951.00           2158        1318.00      5727.73
  196.11        2951.25           2162        1328.00      5771.34
  196.14        2951.50           2165        1310.00      5692.84
  196.17        2951.75           2169        1330.00      5780.06
  196.20        2952.00           2172        1333.00      5793.14
  196.24        2952.25           2176        1302.00      5657.96
  196.27        2952.50           2179        1340.00      5823.67
  196.30        2952.75           2183        1327.00      5766.98
  196.33        2953.00           2186        1362.00      5919.60
  196.36        2953.25           2190        1362.00      5919.60
  196.39        2953.50           2193        1382.00      6006.82
  196.42        2953.75           2197        1368.00      5945.77
  196.45        2954.00           2200        1401.00      6089.68
  196.48        2954.25           2204        1373.00      5967.57
  196.51        2954.50           2208        1383.00      6011.18
  196.54        2954.75           2211        1434.00      6233.59
  196.57        2955.00           2215        1433.00      6229.23
  196.60        2955.25           2218        1442.00      6268.48
  196.63        2955.50           2222        1436.00      6242.31
  196.66        2955.75           2225        1459.00      6342.61
  196.69        2956.00           2229        1435.00      6237.95
  196.72        2956.25           2232        1465.00      6368.78
  196.76        2956.50           2236        1514.00      6582.47
  196.79        2956.75           2239        1490.00      6477.80
  196.82        2957.00           2243        1516.00      6591.19
  196.85        2957.25           2246        1510.00      6565.02
  196.88        2957.50           2250        1599.00      6953.16
  196.91        2957.75           2254        1566.00      6809.24
  196.94        2958.00           2257        1572.00      6835.41
  196.97        2958.25           2261        1630.00      7088.36
  197.00        2958.50           2264        1602.00      6966.24
  197.03        2958.75           2268        1656.00      7201.75
  197.06        2959.00           2271        1691.00      7354.39
  197.09        2959.25           2275        1710.00      7437.25
  197.12        2959.50           2278        1730.00      7524.48
  197.15        2959.75           2282        1763.00      7668.40
  197.18        2960.00           2285        1807.00      7860.30
  197.21        2960.25           2289        1828.00      7951.89
  197.24        2960.50           2293        1868.00      8126.35
  197.28        2960.75           2296        1982.00      8623.56
  197.31        2961.00           2300        2688.00     11703.16
  197.34        2961.25           2303        6075.00     26485.83
  197.37        2961.50           2307       19888.00     86918.40
  197.40        2961.75           2310       36178.00    158490.10
  197.43        2962.00           2314       62887.00    276554.80
  197.46        2962.25           2317       83897.00    370061.30
  197.49        2962.50           2321      110864.00    490910.90
  197.52        2962.75           2324      129997.00    577228.20
  197.55        2963.00           2328      158046.00    704646.10
  197.58        2963.25           2331      178572.00    798559.80
  197.61        2963.50           2335      206380.00    926710.40
  197.64        2963.75           2339      229873.00   1035813.00
  197.67        2964.00           2342      248615.00   1123412.00
  197.70        2964.25           2346      275707.00   1250928.00
  197.73        2964.50           2349      296188.00   1348038.00
  197.76        2964.75           2353      323940.00   1480615.00
  197.80        2965.00           2356      344255.00   1578400.00
  197.83        2965.25           2360      370224.00   1704323.00
  197.86        2965.50           2363      387963.00   1790942.00
  197.89        2965.75           2367      413907.00   1918525.00
  197.92        2966.00           2370      432041.00   2008344.00
  197.95        2966.25           2374      451364.00   2104643.00
  197.98        2966.50           2378      459598.00   2145866.00
  198.01        2966.75           2381      461159.00   2153694.00
  198.04        2967.00           2385      457699.00   2136349.00
  198.07        2967.25           2388      461855.00   2157186.00
  198.10        2967.50           2392      461272.00   2154261.00
  198.13        2967.75           2395      459763.00   2146694.00
  198.16        2968.00           2399      448483.00   2090246.00
  198.19        2968.25           2402      434881.00   2022459.00
  198.22        2968.50           2406      409061.00   1894612.00
  198.25        2968.75           2409      387103.00   1786731.00
  198.28        2969.00           2413      359777.00   1653540.00
  198.32        2969.25           2417      333692.00   1527477.00
  198.35        2969.50           2420      312461.00   1425638.00
  198.38        2969.75           2424      286716.00   1303050.00
  198.41        2970.00           2427      264333.00   1197264.00
  198.44        2970.25           2431      235784.00   1063387.00
  198.47        2970.50           2434      216693.00    974509.30
  198.50        2970.75           2438      189531.00    848936.10
  198.53        2971.00           2441      169612.00    757494.40
  198.56        2971.25           2445      143001.00    636170.80
  198.59        2971.50           2449      114972.00    509403.50
  198.62        2971.75           2452       91275.00    403031.60
  198.65        2972.00           2456       61300.00    269514.50
  198.68        2972.25           2459       40554.00    177772.60
  198.71        2972.50           2463       17826.00     77882.16
  198.74        2972.75           2466        8005.00     34915.63
  198.77        2973.00           2470        3047.00     13269.37
  198.80        2973.25           2473        2237.00      9735.81
  198.84        2973.50           2477        1990.00      8658.46
  198.87        2973.75           2481        1977.00      8601.76
  198.90        2974.00           2484        1871.00      8139.43
  198.93        2974.25           2488        1788.00      7777.44
  198.96        2974.50           2491        1783.00      7755.63
  198.99        2974.75           2495        1739.00      7563.73
  199.02        2975.00           2498        1733.00      7537.56
  199.05        2975.25           2502        1703.00      7406.72
  199.08        2975.50           2505        1660.00      7219.19
  199.11        2975.75           2509        1636.00      7114.52
  199.14        2976.00           2512        1645.00      7153.77
  199.17        2976.25           2516        1628.00      7079.63
  199.20        2976.50           2520        1590.00      6913.91
  199.23        2976.75           2523        1563.00      6796.16
  199.26        2977.00           2527        1524.00      6626.08
  199.29        2977.25           2530        1540.00      6695.86
  199.32        2977.50           2534        1517.00      6595.55
  199.36        2977.75           2537        1470.00      6390.58
  199.39        2978.00           2541        1492.00      6486.52
  199.42        2978.25           2544        1467.00      6377.50
  199.45        2978.50           2548        1452.00      6312.09
  199.48        2978.75           2552        1427.00      6203.06
  199.51        2979.00           2555        1418.00      6163.81
  199.54        2979.25           2559        1413.00      6142.01
  199.57        2979.50           2562        1390.00      6041.71
  199.60        2979.75           2566        1395.00      6063.51
  199.63        2980.00           2569        1359.00      5906.52
  199.66        2980.25           2573        1403.00      6098.40
  199.69        2980.50           2577        1356.00      5893.44
  199.72        2980.75           2580        1366.00      5937.05
  199.75        2981.00           2584        1337.00      5810.58
  199.79        2981.25           2587        1346.00      5849.83
  199.82        2981.50           2591        1339.00      5819.30
  199.85        2981.75           2594        1321.00      5740.81
  199.88        2982.00           2598        1321.00      5740.81
  199.91        2982.25           2601        1322.00      5745.17
  199.94        2982.50           2605        1317.00      5723.37
  199.97        2982.75           2609        1277.00      5548.94
  200.00        2983.00           2612        1298.00      5640.51
  200.03        2983.25           2616        1321.00      5740.81
  200.06        2983.50           2619        1318.00      5727.73
  200.09        2983.75           2623        1300.00      5649.23
  200.12        2984.00           2626        1250.00      5431.20
HS scan finished at 03:20:20
end
************************************************************
  HS Scan of (1) Internal mercury lamp
************************************************************
Integration time is 0.2294 seconds per sample
dh270619El Arenosillo 37.1 6.73 3.9pr1000
************************************************************
Dead Time -------------------------  3.2E-08 
Number of Cycles Used -------------  4 
Starting Wavelength (Angstroms) ---  2950 
Final Wavelength (Angstoms) -------  2984 
Wavelength Increment (Angstroms) --  .25 
Filter Wheel #1 Position ---------- (1) Ground quartz diffuser (ND=2.32)
Filter Wheel #2 Position ---------- (1) Neutral Density 0.494



************************************************************
HS scan start time = 20:36:27
Dark Count =  6.3 


Time (GMT)  Wavelength (Ang)  Step Number  Raw Counts  Counts/Second

 1237.35        2950.00           2144        1163.00      5043.10
 1237.54        2950.25           2147        1128.00      4890.48
 1237.57        2950.50           2151        1185.00      5139.03
 1237.61        2950.75           2155        1162.00      5038.74
 1237.64        2951.00           2158        1150.00      4986.41
 1237.67        2951.25           2162        1198.00      5195.72
 1237.70        2951.50           2165        1178.00      5108.51
 1237.73        2951.75           2169        1208.00      5239.33
 1237.76        2952.00           2172        1178.00      5108.51
 1237.79        2952.25           2176        1186.00      5143.39
 1237.82        2952.50           2179        1177.00      5104.15
 1237.85        2952.75           2183        1168.00      5064.90
 1237.88        2953.00           2186        1200.00      5204.44
 1237.91        2953.25           2190        1188.00      5152.11
 1237.94        2953.50           2193        1208.00      5239.33
 1237.97        2953.75           2197        1217.00      5278.57
 1238.00        2954.00           2200        1243.00      5391.95
 1238.03        2954.25           2204        1256.00      5448.64
 1238.06        2954.50           2208        1214.00      5265.49
 1238.09        2954.75           2211        1248.00      5413.75
 1238.13        2955.00           2215        1267.00      5496.61
 1238.16        2955.25           2218        1257.00      5453.00
 1238.19        2955.50           2222        1275.00      5531.49
 1238.22        2955.75           2225        1277.00      5540.22
 1238.25        2956.00           2229        1307.00      5671.04
 1238.28        2956.25           2232        1325.00      5749.53
 1238.31        2956.50           2236        1294.00      5614.35
 1238.34        2956.75           2239        1330.00      5771.34
 1238.37        2957.00           2243        1344.00      5832.39
 1238.40        2957.25           2246        1346.00      5841.11
 1238.43        2957.50           2250        1365.00      5923.97
 1238.46        2957.75           2254        1381.00      5993.74
 1238.49        2958.00           2257        1406.00      6102.76
 1238.53        2958.25           2261        1415.00      6142.01
 1238.56        2958.50           2264        1453.00      6307.72
 1238.59        2958.75           2268        1475.00      6403.67
 1238.62        2959.00           2271        1467.00      6368.78
 1238.65        2959.25           2275        1464.00      6355.70
 1238.68        2959.50           2278        1521.00      6604.27
 1238.71        2959.75           2282        1560.00      6774.35
 1238.74        2960.00           2285        1601.00      6953.16
 1238.77        2960.25           2289        1644.00      7140.69
 1238.80        2960.50           2293        1686.00      7323.86
 1238.84        2960.75           2296        1772.00      7698.93
 1238.87        2961.00           2300        2278.00      9905.93
 1238.90        2961.25           2303        4723.00     20574.57
 1238.93        2961.50           2307       15835.00     69153.30
 1238.96        2961.75           2310       30334.00    132767.30
 1238.99        2962.00           2314       54600.00    239818.10
 1239.02        2962.25           2317       74058.00    326193.20
 1239.05        2962.50           2321      100491.00    444305.10
 1239.08        2962.75           2324      117858.00    522399.20
 1239.11        2963.00           2328      141142.00    627721.90
 1239.14        2963.25           2331      159349.00    710581.60
 1239.17        2963.50           2335      184898.00    827610.00
 1239.20        2963.75           2339      210694.00    946677.80
 1239.23        2964.00           2342      229256.00   1032929.00
 1239.26        2964.25           2346      252480.00   1141529.00
 1239.29        2964.50           2349      269336.00   1220836.00
 1239.33        2964.75           2353      297353.00   1353570.00
 1239.36        2965.00           2356      315076.00   1438135.00
 1239.39        2965.25           2360      340382.00   1559700.00
 1239.42        2965.50           2363      358651.00   1648067.00
 1239.45        2965.75           2367      382537.00   1764385.00
 1239.48        2966.00           2370      398771.00   1843951.00
 1239.51        2966.25           2374      414517.00   1921527.00
 1239.54        2966.50           2378      420112.00   1949189.00
 1239.57        2966.75           2381      421134.00   1954247.00
 1239.60        2967.00           2385      422800.00   1962496.00
 1239.63        2967.25           2388      421160.00   1954376.00
 1239.66        2967.50           2392      421766.00   1957375.00
 1239.69        2967.75           2395      419235.00   1944849.00
 1239.72        2968.00           2399      408374.00   1891216.00
 1239.75        2968.25           2402      393366.00   1817414.00
 1239.78        2968.50           2406      370416.00   1705248.00
 1239.81        2968.75           2409      353449.00   1622853.00
 1239.84        2969.00           2413      329357.00   1506619.00
 1239.88        2969.25           2417      305507.00   1392419.00
 1239.91        2969.50           2420      287478.00   1306655.00
 1239.94        2969.75           2424      264315.00   1197169.00
 1239.97        2970.00           2427      247163.00   1116598.00
 1240.00        2970.25           2431      223099.00   1004266.00
 1240.03        2970.50           2434      206441.00    926983.50
 1240.06        2970.75           2438      181664.00    812747.30
 1240.09        2971.00           2441      161911.00    722277.10
 1240.12        2971.25           2445      135802.00    603503.50
 1240.15        2971.50           2449      109155.00    483215.30
 1240.18        2971.75           2452       92509.00    408543.90
 1240.21        2972.00           2456       68606.00    301943.10
 1240.24        2972.25           2459       49782.00    218504.60
 1240.27        2972.50           2463       24103.00    105397.20
 1240.30        2972.75           2466        9953.00     43419.93
 1240.33        2973.00           2470        3100.00     13491.87
 1240.36        2973.25           2473        2080.00      9042.29
 1240.40        2973.50           2477        1822.00      7917.00
 1240.43        2973.75           2481        1719.00      7467.78
 1240.46        2974.00           2484        1683.00      7310.78
 1240.49        2974.25           2488        1646.00      7149.41
 1240.52        2974.50           2491        1649.00      7162.50
 1240.55        2974.75           2495        1556.00      6756.91
 1240.58        2975.00           2498        1592.00      6913.91
 1240.61        2975.25           2502        1515.00      6578.11
 1240.64        2975.50           2505        1500.00      6512.69
 1240.67        2975.75           2509        1481.00      6429.83
 1240.70        2976.00           2512        1448.00      6285.92
 1240.73        2976.25           2516        1467.00      6368.78
 1240.76        2976.50           2520        1373.00      5958.85
 1240.79        2976.75           2523        1420.00      6163.81
 1240.82        2977.00           2527        1365.00      5923.97
 1240.85        2977.25           2530        1367.00      5932.69
 1240.88        2977.50           2534        1348.00      5849.83
 1240.92        2977.75           2537        1335.00      5793.14
 1240.95        2978.00           2541        1354.00      5876.00
 1240.98        2978.25           2544        1330.00      5771.34
 1241.01        2978.50           2548        1320.00      5727.73
 1241.04        2978.75           2552        1279.00      5548.94
 1241.07        2979.00           2555        1256.00      5448.64
 1241.10        2979.25           2559        1291.00      5601.27
 1241.13        2979.50           2562        1268.00      5500.97
 1241.16        2979.75           2566        1265.00      5487.89
 1241.19        2980.00           2569        1296.00      5623.07
 1241.22        2980.25           2573        1204.00      5221.88
 1241.25        2980.50           2577        1227.00      5322.18
 1241.28        2980.75           2580        1225.00      5313.46
 1241.31        2981.00           2584        1196.00      5187.00
 1241.34        2981.25           2587        1167.00      5060.54
 1241.37        2981.50           2591        1208.00      5239.33
 1241.40        2981.75           2594        1182.00      5125.95
 1241.44        2982.00           2598        1162.00      5038.74
 1241.47        2982.25           2601        1149.00      4982.05
 1241.50        2982.50           2605        1182.00      5125.95
 1241.53        2982.75           2609        1154.00      5003.85
 1241.56        2983.00           2612        1168.00      5064.90
 1241.59        2983.25           2616        1139.00      4938.44
 1241.62        2983.50           2619        1140.00      4942.80
 1241.65        2983.75           2623        1167.00      5060.54
 1241.68        2984.00           2626        1144.00      4960.25
HS scan finished at 20:41:54
end
