************************************************************
  HS Scan of (1) Internal mercury lamp
************************************************************
Integration time is 0.2294 seconds per sample
dh200617Reading 51.44 .94 3.96pr1000
************************************************************
Dead Time -------------------------  3.4E-08 
Number of Cycles Used -------------  4 
Starting Wavelength (Angstroms) ---  2950 
Final Wavelength (Angstoms) -------  2984 
Wavelength Increment (Angstroms) --  .25 
Filter Wheel #1 Position ---------- (1) Ground quartz diffuser (ND=2.32)
Filter Wheel #2 Position ---------- (1) Neutral Density 0.494



************************************************************
HS scan start time = 02:37:13
Dark Count =  8 


Time (GMT)  Wavelength (Ang)  Step Number  Raw Counts  Counts/Second

  158.12        2950.00           2144         357.00      1521.44
  158.31        2950.25           2147         380.00      1621.71
  158.34        2950.50           2151         354.00      1508.36
  158.38        2950.75           2155         357.00      1521.44
  158.41        2951.00           2158         364.00      1551.96
  158.44        2951.25           2162         366.00      1560.68
  158.47        2951.50           2165         349.00      1486.56
  158.50        2951.75           2169         353.00      1504.00
  158.53        2952.00           2172         352.00      1499.64
  158.56        2952.25           2176         383.00      1634.79
  158.59        2952.50           2179         336.00      1429.89
  158.62        2952.75           2183         358.00      1525.80
  158.65        2953.00           2186         357.00      1521.44
  158.68        2953.25           2190         366.00      1560.68
  158.71        2953.50           2193         377.00      1608.63
  158.74        2953.75           2197         408.00      1743.78
  158.77        2954.00           2200         383.00      1634.79
  158.80        2954.25           2204         369.00      1573.75
  158.83        2954.50           2208         392.00      1674.03
  158.86        2954.75           2211         375.00      1599.91
  158.90        2955.00           2215         397.00      1695.83
  158.93        2955.25           2218         401.00      1713.26
  158.96        2955.50           2222         388.00      1656.59
  158.99        2955.75           2225         408.00      1743.78
  159.02        2956.00           2229         420.00      1796.10
  159.05        2956.25           2232         415.00      1774.30
  159.08        2956.50           2236         419.00      1791.74
  159.11        2956.75           2239         420.00      1796.10
  159.14        2957.00           2243         421.00      1800.46
  159.17        2957.25           2246         432.00      1848.42
  159.20        2957.50           2250         436.00      1865.86
  159.23        2957.75           2254         450.00      1926.89
  159.26        2958.00           2257         421.00      1800.46
  159.29        2958.25           2261         450.00      1926.89
  159.32        2958.50           2264         451.00      1931.25
  159.35        2958.75           2268         470.00      2014.09
  159.38        2959.00           2271         458.00      1961.77
  159.41        2959.25           2275         483.00      2070.77
  159.45        2959.50           2278         493.00      2114.36
  159.48        2959.75           2282         475.00      2035.89
  159.51        2960.00           2285         502.00      2153.60
  159.54        2960.25           2289         526.00      2258.24
  159.57        2960.50           2293         536.00      2301.84
  159.60        2960.75           2296         548.00      2354.16
  159.63        2961.00           2300         725.00      3125.88
  159.66        2961.25           2303        1393.00      6038.73
  159.69        2961.50           2307        5375.00     23414.45
  159.72        2961.75           2310       10624.00     46350.23
  159.75        2962.00           2314       19348.00     84549.59
  159.78        2962.25           2317       25837.00    113027.30
  159.81        2962.50           2321       34297.00    150238.00
  159.84        2962.75           2324       40269.00    176562.40
  159.87        2963.00           2328       49386.00    216841.30
  159.90        2963.25           2331       56525.00    248458.90
  159.94        2963.50           2335       66428.00    292431.10
  159.97        2963.75           2339       75777.00    334065.00
  160.00        2964.00           2342       82718.00    365052.20
  160.03        2964.25           2346       91025.00    402224.30
  160.06        2964.50           2349       97981.00    433424.00
  160.09        2964.75           2353      107906.00    478056.30
  160.12        2965.00           2356      114712.00    508741.60
  160.15        2965.25           2360      122875.00    545630.50
  160.18        2965.50           2363      128836.00    572627.60
  160.21        2965.75           2367      137533.00    612106.00
  160.24        2966.00           2370      144056.00    641786.30
  160.27        2966.25           2374      151038.00    673622.50
  160.30        2966.50           2378      154005.00    687172.40
  160.33        2966.75           2381      154331.00    688661.90
  160.36        2967.00           2385      154534.00    689589.50
  160.39        2967.25           2388      154450.00    689205.60
  160.42        2967.50           2392      154504.00    689452.50
  160.46        2967.75           2395      153497.00    684851.50
  160.49        2968.00           2399      148814.00    663474.00
  160.52        2968.25           2402      143235.00    638047.30
  160.55        2968.50           2406      135044.00    600796.80
  160.58        2968.75           2409      128806.00    572491.60
  160.61        2969.00           2413      120089.00    533030.00
  160.64        2969.25           2417      111801.00    495609.20
  160.67        2969.50           2420      106011.00    469524.00
  160.70        2969.75           2424       97309.00    430407.00
  160.73        2970.00           2427       90408.00    399460.10
  160.76        2970.25           2431       80940.00    357108.30
  160.79        2970.50           2434       73496.00    323896.10
  160.82        2970.75           2438       63944.00    281389.00
  160.85        2971.00           2441       57170.00    251318.80
  160.88        2971.25           2445       48388.00    212426.70
  160.91        2971.50           2449       40008.00    175411.00
  160.94        2971.75           2452       34084.00    149300.00
  160.97        2972.00           2456       25511.00    111595.20
  161.01        2972.25           2459       19193.00     83870.03
  161.04        2972.50           2463       10214.00     44557.43
  161.07        2972.75           2466        4792.00     20869.21
  161.10        2973.00           2470        1409.00      6108.50
  161.13        2973.25           2473         828.00      3574.98
  161.16        2973.50           2477         641.00      2759.63
  161.19        2973.75           2481         570.00      2450.07
  161.22        2974.00           2484         557.00      2393.39
  161.25        2974.25           2488         537.00      2306.20
  161.28        2974.50           2491         512.00      2197.20
  161.31        2974.75           2495         509.00      2184.12
  161.34        2975.00           2498         522.00      2240.80
  161.37        2975.25           2502         487.00      2088.20
  161.40        2975.50           2505         490.00      2101.28
  161.43        2975.75           2509         458.00      1961.77
  161.46        2976.00           2512         485.00      2079.48
  161.49        2976.25           2516         447.00      1913.81
  161.53        2976.50           2520         448.00      1918.17
  161.56        2976.75           2523         436.00      1865.86
  161.59        2977.00           2527         433.00      1852.78
  161.62        2977.25           2530         441.00      1887.65
  161.65        2977.50           2534         435.00      1861.50
  161.68        2977.75           2537         419.00      1791.74
  161.71        2978.00           2541         430.00      1839.70
  161.74        2978.25           2544         414.00      1769.94
  161.77        2978.50           2548         409.00      1748.14
  161.80        2978.75           2552         398.00      1700.19
  161.83        2979.00           2555         418.00      1787.38
  161.86        2979.25           2559         410.00      1752.50
  161.89        2979.50           2562         416.00      1778.66
  161.92        2979.75           2566         424.00      1813.54
  161.95        2980.00           2569         395.00      1687.11
  161.98        2980.25           2573         399.00      1704.55
  162.01        2980.50           2577         369.00      1573.75
  162.05        2980.75           2580         395.00      1687.11
  162.08        2981.00           2584         374.00      1595.55
  162.11        2981.25           2587         366.00      1560.68
  162.14        2981.50           2591         363.00      1547.60
  162.17        2981.75           2594         357.00      1521.44
  162.20        2982.00           2598         370.00      1578.11
  162.23        2982.25           2601         377.00      1608.63
  162.26        2982.50           2605         359.00      1530.16
  162.29        2982.75           2609         350.00      1490.92
  162.32        2983.00           2612         362.00      1543.24
  162.35        2983.25           2616         351.00      1495.28
  162.38        2983.50           2619         372.00      1586.83
  162.41        2983.75           2623         350.00      1490.92
  162.44        2984.00           2626         341.00      1451.68
HS scan finished at 02:42:40
end
************************************************************
  HS Scan of (1) Internal mercury lamp
************************************************************
Integration time is 0.2294 seconds per sample
dh200617Reading 51.44 .94 4.09pr1000
************************************************************
Dead Time -------------------------  3.4E-08 
Number of Cycles Used -------------  4 
Starting Wavelength (Angstroms) ---  2950 
Final Wavelength (Angstoms) -------  2984 
Wavelength Increment (Angstroms) --  .25 
Filter Wheel #1 Position ---------- (1) Ground quartz diffuser (ND=2.32)
Filter Wheel #2 Position ---------- (1) Neutral Density 0.494



************************************************************
HS scan start time = 21:07:25
Dark Count =  12.9 


Time (GMT)  Wavelength (Ang)  Step Number  Raw Counts  Counts/Second

 1268.31        2950.00           2144         244.00      1007.45
 1268.50        2950.25           2147         268.00      1112.07
 1268.53        2950.50           2151         248.00      1024.88
 1268.56        2950.75           2155         271.00      1125.15
 1268.59        2951.00           2158         263.00      1090.28
 1268.63        2951.25           2162         257.00      1064.12
 1268.66        2951.50           2165         270.00      1120.79
 1268.69        2951.75           2169         259.00      1072.84
 1268.72        2952.00           2172         263.00      1090.28
 1268.75        2952.25           2176         268.00      1112.07
 1268.78        2952.50           2179         272.00      1129.51
 1268.81        2952.75           2183         258.00      1068.48
 1268.84        2953.00           2186         292.00      1216.70
 1268.87        2953.25           2190         254.00      1051.04
 1268.90        2953.50           2193         286.00      1190.55
 1268.93        2953.75           2197         261.00      1081.56
 1268.96        2954.00           2200         270.00      1120.79
 1268.99        2954.25           2204         268.00      1112.07
 1269.02        2954.50           2208         269.00      1116.43
 1269.05        2954.75           2211         292.00      1216.70
 1269.08        2955.00           2215         278.00      1155.67
 1269.11        2955.25           2218         287.00      1194.90
 1269.15        2955.50           2222         273.00      1133.87
 1269.18        2955.75           2225         279.00      1160.03
 1269.21        2956.00           2229         295.00      1229.78
 1269.24        2956.25           2232         299.00      1247.22
 1269.27        2956.50           2236         282.00      1173.11
 1269.30        2956.75           2239         287.00      1194.90
 1269.33        2957.00           2243         301.00      1255.94
 1269.36        2957.25           2246         305.00      1273.38
 1269.39        2957.50           2250         301.00      1255.94
 1269.42        2957.75           2254         312.00      1303.89
 1269.45        2958.00           2257         320.00      1338.77
 1269.48        2958.25           2261         316.00      1321.33
 1269.51        2958.50           2264         324.00      1356.21
 1269.54        2958.75           2268         319.00      1334.41
 1269.57        2959.00           2271         317.00      1325.69
 1269.60        2959.25           2275         325.00      1360.57
 1269.64        2959.50           2278         336.00      1408.52
 1269.67        2959.75           2282         327.00      1369.29
 1269.70        2960.00           2285         359.00      1508.80
 1269.73        2960.25           2289         363.00      1526.23
 1269.76        2960.50           2293         363.00      1526.23
 1269.79        2960.75           2296         397.00      1674.46
 1269.82        2961.00           2300         450.00      1905.53
 1269.85        2961.25           2303         783.00      3357.40
 1269.88        2961.50           2307        2880.00     12503.57
 1269.91        2961.75           2310        5859.00     25506.42
 1269.94        2962.00           2314       10959.00     47793.82
 1269.97        2962.25           2317       14948.00     65249.66
 1270.00        2962.50           2321       21065.00     92057.96
 1270.03        2962.75           2324       25902.00    113291.30
 1270.06        2963.00           2328       31938.00    139831.10
 1270.09        2963.25           2331       36590.00    160318.30
 1270.12        2963.50           2335       43071.00    188908.20
 1270.15        2963.75           2339       49351.00    216664.80
 1270.19        2964.00           2342       53876.00    236697.10
 1270.22        2964.25           2346       60205.00    264762.00
 1270.25        2964.50           2349       65115.00    286571.60
 1270.28        2964.75           2353       71518.00    315061.90
 1270.31        2965.00           2356       76176.00    335822.70
 1270.35        2965.25           2360       82206.00    362742.30
 1270.38        2965.50           2363       85911.00    379307.20
 1270.41        2965.75           2367       92352.00    408149.30
 1270.44        2966.00           2370       96501.00    426758.20
 1270.47        2966.25           2374      102305.00    452830.00
 1270.50        2966.50           2378      104887.00    464443.50
 1270.53        2966.75           2381      106075.00    469790.00
 1270.56        2967.00           2385      106160.00    470172.70
 1270.59        2967.25           2388      106444.00    471451.10
 1270.62        2967.50           2392      106093.00    469871.00
 1270.65        2967.75           2395      105670.00    467967.10
 1270.68        2968.00           2399      102325.00    452919.90
 1270.71        2968.25           2402       98846.00    437286.40
 1270.74        2968.50           2406       92822.00    410256.10
 1270.79        2968.75           2409       88455.00    390692.10
 1270.82        2969.00           2413       82424.00    363716.50
 1270.85        2969.25           2417       77563.00    342010.20
 1270.88        2969.50           2420       73263.00    322835.90
 1270.91        2969.75           2424       67491.00    297137.20
 1270.94        2970.00           2427       62176.00    273513.00
 1270.97        2970.25           2431       54944.00    241429.20
 1271.00        2970.50           2434       50066.00    219828.30
 1271.03        2970.75           2438       43764.00    191968.60
 1271.06        2971.00           2441       38924.00    170608.00
 1271.09        2971.25           2445       32848.00    143836.40
 1271.13        2971.50           2449       26375.00    115369.30
 1271.16        2971.75           2452       21947.00     95927.44
 1271.19        2972.00           2456       16132.00     70434.82
 1271.22        2972.25           2459       11778.00     51376.07
 1271.25        2972.50           2463        6556.00     28550.37
 1271.28        2972.75           2466        3366.00     14624.10
 1271.31        2973.00           2470        1160.00      5001.29
 1271.34        2973.25           2473         586.00      2498.47
 1271.37        2973.50           2477         427.00      1805.25
 1271.40        2973.75           2481         411.00      1735.50
 1271.43        2974.00           2484         395.00      1665.74
 1271.46        2974.25           2488         362.00      1521.87
 1271.49        2974.50           2491         375.00      1578.55
 1271.52        2974.75           2495         373.00      1569.83
 1271.55        2975.00           2498         381.00      1604.71
 1271.58        2975.25           2502         359.00      1508.80
 1271.61        2975.50           2505         347.00      1456.48
 1271.65        2975.75           2509         341.00      1430.32
 1271.68        2976.00           2512         335.00      1404.16
 1271.71        2976.25           2516         324.00      1356.21
 1271.74        2976.50           2520         333.00      1395.45
 1271.77        2976.75           2523         338.00      1417.24
 1271.80        2977.00           2527         328.00      1373.65
 1271.83        2977.25           2530         312.00      1303.89
 1271.86        2977.50           2534         308.00      1286.46
 1271.89        2977.75           2537         306.00      1277.74
 1271.92        2978.00           2541         286.00      1190.55
 1271.95        2978.25           2544         314.00      1312.61
 1271.98        2978.50           2548         297.00      1238.50
 1272.01        2978.75           2552         279.00      1160.03
 1272.04        2979.00           2555         291.00      1212.34
 1272.07        2979.25           2559         296.00      1234.14
 1272.10        2979.50           2562         303.00      1264.66
 1272.13        2979.75           2566         289.00      1203.62
 1272.17        2980.00           2569         286.00      1190.55
 1272.20        2980.25           2573         268.00      1112.07
 1272.23        2980.50           2577         262.00      1085.92
 1272.26        2980.75           2580         277.00      1151.31
 1272.29        2981.00           2584         281.00      1168.75
 1272.32        2981.25           2587         280.00      1164.39
 1272.35        2981.50           2591         264.00      1094.64
 1272.38        2981.75           2594         265.00      1098.99
 1272.41        2982.00           2598         276.00      1146.95
 1272.44        2982.25           2601         282.00      1173.11
 1272.47        2982.50           2605         270.00      1120.79
 1272.50        2982.75           2609         288.00      1199.26
 1272.53        2983.00           2612         283.00      1177.47
 1272.56        2983.25           2616         260.00      1077.20
 1272.59        2983.50           2619         246.00      1016.16
 1272.62        2983.75           2623         272.00      1129.51
 1272.65        2984.00           2626         263.00      1090.28
HS scan finished at 21:12:53
end
