************************************************************
  HS Scan of (1) Internal mercury lamp
************************************************************
Integration time is 0.2294 seconds per sample
dh210617Reading 51.44 .94 3.72pr1000
************************************************************
Dead Time -------------------------  3.4E-08 
Number of Cycles Used -------------  4 
Starting Wavelength (Angstroms) ---  2950 
Final Wavelength (Angstoms) -------  2984 
Wavelength Increment (Angstroms) --  .25 
Filter Wheel #1 Position ---------- (1) Ground quartz diffuser (ND=2.32)
Filter Wheel #2 Position ---------- (1) Neutral Density 0.494



************************************************************
HS scan start time = 01:32:12
Dark Count =  4.5 


Time (GMT)  Wavelength (Ang)  Step Number  Raw Counts  Counts/Second

   93.10        2950.00           2144         294.00      1262.04
   93.29        2950.25           2147         310.00      1331.80
   93.32        2950.50           2151         313.00      1344.87
   93.35        2950.75           2155         296.00      1270.76
   93.38        2951.00           2158         293.00      1257.68
   93.42        2951.25           2162         312.00      1340.51
   93.45        2951.50           2165         310.00      1331.80
   93.48        2951.75           2169         320.00      1375.39
   93.51        2952.00           2172         309.00      1327.44
   93.54        2952.25           2176         303.00      1301.28
   93.57        2952.50           2179         313.00      1344.87
   93.60        2952.75           2183         321.00      1379.75
   93.63        2953.00           2186         342.00      1471.30
   93.66        2953.25           2190         321.00      1379.75
   93.69        2953.50           2193         313.00      1344.87
   93.72        2953.75           2197         315.00      1353.59
   93.75        2954.00           2200         330.00      1418.99
   93.78        2954.25           2204         313.00      1344.87
   93.81        2954.50           2208         325.00      1397.19
   93.84        2954.75           2211         337.00      1449.50
   93.87        2955.00           2215         325.00      1397.19
   93.90        2955.25           2218         312.00      1340.51
   93.94        2955.50           2222         339.00      1458.22
   93.97        2955.75           2225         363.00      1562.86
   94.00        2956.00           2229         350.00      1506.18
   94.03        2956.25           2232         355.00      1527.98
   94.06        2956.50           2236         356.00      1532.34
   94.09        2956.75           2239         354.00      1523.62
   94.12        2957.00           2243         340.00      1462.58
   94.15        2957.25           2246         371.00      1597.73
   94.18        2957.50           2250         391.00      1684.93
   94.21        2957.75           2254         349.00      1501.82
   94.24        2958.00           2257         383.00      1650.05
   94.27        2958.25           2261         390.00      1680.57
   94.30        2958.50           2264         394.00      1698.01
   94.33        2958.75           2268         399.00      1719.80
   94.36        2959.00           2271         403.00      1737.24
   94.39        2959.25           2275         428.00      1846.24
   94.42        2959.50           2278         424.00      1828.80
   94.46        2959.75           2282         418.00      1802.64
   94.49        2960.00           2285         435.00      1876.75
   94.52        2960.25           2289         435.00      1876.75
   94.55        2960.50           2293         438.00      1889.83
   94.58        2960.75           2296         484.00      2090.38
   94.61        2961.00           2300         595.00      2574.33
   94.64        2961.25           2303        1045.00      4536.45
   94.67        2961.50           2307        3611.00     15729.86
   94.70        2961.75           2310        7118.00     31041.90
   94.73        2962.00           2314       14214.00     62072.89
   94.76        2962.25           2317       19865.00     86831.82
   94.79        2962.50           2321       27326.00    119585.10
   94.82        2962.75           2324       32826.00    143776.50
   94.85        2963.00           2328       39981.00    175307.30
   94.88        2963.25           2331       45331.00    198928.10
   94.91        2963.50           2335       53157.00    233549.50
   94.94        2963.75           2339       60128.00    264457.50
   94.98        2964.00           2342       66323.00    291979.70
   95.01        2964.25           2346       74448.00    328155.00
   95.04        2964.50           2349       80208.00    353854.70
   95.07        2964.75           2353       88515.00    390998.30
   95.10        2965.00           2356       94194.00    416445.60
   95.13        2965.25           2360      100513.00    444813.10
   95.16        2965.50           2363      105220.00    465979.70
   95.19        2965.75           2367      112511.00    498827.00
   95.22        2966.00           2370      119345.00    529682.70
   95.25        2966.25           2374      126263.00    560984.30
   95.28        2966.50           2378      128908.00    572969.80
   95.31        2966.75           2381      129675.00    576447.30
   95.34        2967.00           2385      129884.00    577395.00
   95.37        2967.25           2388      129959.00    577735.10
   95.40        2967.50           2392      129979.00    577825.80
   95.43        2967.75           2395      128441.00    570853.00
   95.46        2968.00           2399      123964.00    550574.60
   95.50        2968.25           2402      119821.00    531834.30
   95.53        2968.50           2406      113290.00    502340.80
   95.56        2968.75           2409      107936.00    478207.20
   95.59        2969.00           2413      100758.00    445914.00
   95.62        2969.25           2417       93968.00    415432.10
   95.65        2969.50           2420       88766.00    392122.10
   95.68        2969.75           2424       79918.00    352559.70
   95.71        2970.00           2427       73826.00    325382.40
   95.74        2970.25           2431       65933.00    290245.60
   95.77        2970.50           2434       60314.00    265283.00
   95.80        2970.75           2438       52889.00    232362.50
   95.83        2971.00           2441       47659.00    209218.40
   95.86        2971.25           2445       39571.00    173498.60
   95.89        2971.50           2449       31710.00    138864.60
   95.92        2971.75           2452       25840.00    113055.80
   95.95        2972.00           2456       18585.00     81220.06
   95.98        2972.25           2459       13361.00     58339.24
   96.01        2972.50           2463        7158.00     31216.64
   96.05        2972.75           2466        3531.00     15380.75
   96.08        2973.00           2470         939.00      4074.23
   96.11        2973.25           2473         581.00      2513.29
   96.14        2973.50           2477         517.00      2234.26
   96.17        2973.75           2481         494.00      2133.98
   96.20        2974.00           2484         472.00      2038.07
   96.23        2974.25           2488         488.00      2107.82
   96.26        2974.50           2491         450.00      1942.15
   96.29        2974.75           2495         435.00      1876.75
   96.32        2975.00           2498         442.00      1907.27
   96.35        2975.25           2502         427.00      1841.88
   96.38        2975.50           2505         428.00      1846.24
   96.41        2975.75           2509         423.00      1824.44
   96.44        2976.00           2512         413.00      1780.84
   96.47        2976.25           2516         409.00      1763.40
   96.50        2976.50           2520         379.00      1632.61
   96.53        2976.75           2523         457.00      1972.67
   96.57        2977.00           2527         375.00      1615.17
   96.60        2977.25           2530         374.00      1610.81
   96.63        2977.50           2534         352.00      1514.90
   96.66        2977.75           2537         379.00      1632.61
   96.69        2978.00           2541         376.00      1619.53
   96.72        2978.25           2544         402.00      1732.88
   96.75        2978.50           2548         405.00      1745.96
   96.78        2978.75           2552         378.00      1628.25
   96.81        2979.00           2555         375.00      1615.17
   96.84        2979.25           2559         341.00      1466.94
   96.87        2979.50           2562         349.00      1501.82
   96.90        2979.75           2566         365.00      1571.57
   96.93        2980.00           2569         356.00      1532.34
   96.96        2980.25           2573         346.00      1488.74
   96.99        2980.50           2577         325.00      1397.19
   97.02        2980.75           2580         336.00      1445.15
   97.06        2981.00           2584         330.00      1418.99
   97.09        2981.25           2587         324.00      1392.83
   97.12        2981.50           2591         317.00      1362.31
   97.15        2981.75           2594         325.00      1397.19
   97.18        2982.00           2598         327.00      1405.91
   97.21        2982.25           2601         344.00      1480.02
   97.24        2982.50           2605         320.00      1375.39
   97.27        2982.75           2609         314.00      1349.23
   97.30        2983.00           2612         315.00      1353.59
   97.33        2983.25           2616         315.00      1353.59
   97.36        2983.50           2619         333.00      1432.07
   97.39        2983.75           2623         298.00      1279.48
   97.42        2984.00           2626         316.00      1357.95
HS scan finished at 01:37:39
end
