************************************************************
  HS Scan of (1) Internal mercury lamp
************************************************************
Integration time is 0.2294 seconds per sample
dh060718Reading 51.44 .94 3.74pr1000
************************************************************
Dead Time -------------------------  3.4E-08 
Number of Cycles Used -------------  4 
Starting Wavelength (Angstroms) ---  2950 
Final Wavelength (Angstoms) -------  2984 
Wavelength Increment (Angstroms) --  .25 
Filter Wheel #1 Position ---------- (1) Ground quartz diffuser (ND=2.32)
Filter Wheel #2 Position ---------- (1) Neutral Density 0.494



************************************************************
HS scan start time = 01:12:43
Dark Count =  4.2 


Time (GMT)  Wavelength (Ang)  Step Number  Raw Counts  Counts/Second

   73.61        2950.00           2144          78.00       321.71
   73.81        2950.25           2147          84.00       347.87
   73.84        2950.50           2151          84.00       347.87
   73.87        2950.75           2155          80.00       330.43
   73.90        2951.00           2158          72.00       295.56
   73.93        2951.25           2162          78.00       321.71
   73.96        2951.50           2165          82.00       339.15
   73.99        2951.75           2169          72.00       295.56
   74.02        2952.00           2172          75.00       308.63
   74.05        2952.25           2176          80.00       330.43
   74.08        2952.50           2179          77.00       317.35
   74.11        2952.75           2183          86.00       356.59
   74.14        2953.00           2186          80.00       330.43
   74.17        2953.25           2190          82.00       339.15
   74.20        2953.50           2193          92.00       382.74
   74.23        2953.75           2197          80.00       330.43
   74.26        2954.00           2200          83.00       343.51
   74.29        2954.25           2204          89.00       369.66
   74.33        2954.50           2208          85.00       352.23
   74.36        2954.75           2211          91.00       378.38
   74.39        2955.00           2215          82.00       339.15
   74.42        2955.25           2218          83.00       343.51
   74.45        2955.50           2222          84.00       347.87
   74.48        2955.75           2225          84.00       347.87
   74.51        2956.00           2229          85.00       352.23
   74.54        2956.25           2232          88.00       365.31
   74.57        2956.50           2236          97.00       404.54
   74.60        2956.75           2239         115.00       483.01
   74.63        2957.00           2243          94.00       391.46
   74.66        2957.25           2246         100.00       417.62
   74.69        2957.50           2250          94.00       391.46
   74.72        2957.75           2254         120.00       504.80
   74.75        2958.00           2257          93.00       387.10
   74.78        2958.25           2261         104.00       435.05
   74.81        2958.50           2264         120.00       504.80
   74.85        2958.75           2268         111.00       465.57
   74.88        2959.00           2271         111.00       465.57
   74.91        2959.25           2275         127.00       535.32
   74.94        2959.50           2278         134.00       565.83
   74.97        2959.75           2282         132.00       557.12
   75.00        2960.00           2285         110.00       461.21
   75.03        2960.25           2289         114.00       478.65
   75.06        2960.50           2293         118.00       496.09
   75.09        2960.75           2296         126.00       530.96
   75.12        2961.00           2300         153.00       648.66
   75.15        2961.25           2303         287.00      1232.83
   75.18        2961.50           2307        1183.00      5139.52
   75.21        2961.75           2310        2300.00     10011.25
   75.24        2962.00           2314        4043.00     17616.48
   75.27        2962.25           2317        5350.00     23321.89
   75.30        2962.50           2321        7621.00     33240.68
   75.33        2962.75           2324        9451.00     41238.26
   75.37        2963.00           2328       11632.00     50775.46
   75.40        2963.25           2331       13297.00     58060.45
   75.43        2963.50           2335       15604.00     68160.40
   75.46        2963.75           2339       17516.00     76536.31
   75.49        2964.00           2342       19657.00     85921.09
   75.52        2964.25           2346       21932.00     95899.80
   75.55        2964.50           2349       23240.00    101640.10
   75.59        2964.75           2353       25806.00    112907.80
   75.62        2965.00           2356       27700.00    121230.10
   75.65        2965.25           2360       29692.00    129988.20
   75.68        2965.50           2363       31592.00    138346.70
   75.71        2965.75           2367       33480.00    146657.10
   75.74        2966.00           2370       34766.00    152320.40
   75.77        2966.25           2374       36002.00    157765.60
   75.80        2966.50           2378       37113.00    162661.70
   75.83        2966.75           2381       37187.00    162987.90
   75.86        2967.00           2385       36956.00    161969.70
   75.89        2967.25           2388       36936.00    161881.60
   75.92        2967.50           2392       37042.00    162348.80
   75.95        2967.75           2395       36488.00    159907.10
   75.98        2968.00           2399       35332.00    154813.60
   76.01        2968.25           2402       33887.00    148449.20
   76.04        2968.50           2406       31460.00    137765.90
   76.08        2968.75           2409       29895.00    130881.00
   76.11        2969.00           2413       27917.00    122184.00
   76.14        2969.25           2417       25860.00    113145.00
   76.17        2969.50           2420       24184.00    105784.30
   76.20        2969.75           2424       22034.00     96347.37
   76.23        2970.00           2427       20608.00     90091.59
   76.26        2970.25           2431       18328.00     80094.90
   76.29        2970.50           2434       16540.00     72260.15
   76.32        2970.75           2438       14233.00     62157.38
   76.35        2971.00           2441       12692.00     55412.94
   76.38        2971.25           2445       10545.00     46021.39
   76.41        2971.50           2449        8657.00     37767.74
   76.44        2971.75           2452        7019.00     30610.75
   76.47        2972.00           2456        4871.00     21230.66
   76.50        2972.25           2459        3475.00     15137.69
   76.53        2972.50           2463        1735.00      7546.84
   76.56        2972.75           2466         814.00      3530.50
   76.60        2973.00           2470         269.00      1154.36
   76.63        2973.25           2473         175.00       744.57
   76.66        2973.50           2477         157.00       666.10
   76.69        2973.75           2481         151.00       639.94
   76.72        2974.00           2484         151.00       639.94
   76.75        2974.25           2488         125.00       526.60
   76.78        2974.50           2491         146.00       618.15
   76.81        2974.75           2495         145.00       613.79
   76.84        2975.00           2498         134.00       565.83
   76.87        2975.25           2502         149.00       631.23
   76.90        2975.50           2505         108.00       452.49
   76.93        2975.75           2509         121.00       509.16
   76.96        2976.00           2512         125.00       526.60
   76.99        2976.25           2516          98.00       408.90
   77.02        2976.50           2520         121.00       509.16
   77.05        2976.75           2523         101.00       421.98
   77.08        2977.00           2527         120.00       504.80
   77.12        2977.25           2530         139.00       587.63
   77.15        2977.50           2534         115.00       483.01
   77.18        2977.75           2537          96.00       400.18
   77.21        2978.00           2541         119.00       500.44
   77.24        2978.25           2544          98.00       408.90
   77.27        2978.50           2548         113.00       474.29
   77.30        2978.75           2552          91.00       378.38
   77.33        2979.00           2555          88.00       365.31
   77.36        2979.25           2559          92.00       382.74
   77.39        2979.50           2562          90.00       374.02
   77.42        2979.75           2566          94.00       391.46
   77.45        2980.00           2569          91.00       378.38
   77.48        2980.25           2573          97.00       404.54
   77.51        2980.50           2577          93.00       387.10
   77.54        2980.75           2580          85.00       352.23
   77.57        2981.00           2584          86.00       356.59
   77.61        2981.25           2587          86.00       356.59
   77.64        2981.50           2591          80.00       330.43
   77.67        2981.75           2594          78.00       321.71
   77.70        2982.00           2598          86.00       356.59
   77.73        2982.25           2601          83.00       343.51
   77.76        2982.50           2605          81.00       334.79
   77.79        2982.75           2609          80.00       330.43
   77.82        2983.00           2612          78.00       321.71
   77.85        2983.25           2616          86.00       356.59
   77.88        2983.50           2619          78.00       321.71
   77.91        2983.75           2623          78.00       321.71
   77.94        2984.00           2626          76.00       312.99
HS scan finished at 01:18:10
end
************************************************************
  HS Scan of (1) Internal mercury lamp
************************************************************
Integration time is 0.2294 seconds per sample
dh060718Reading 51.44 .94 4.25pr1000
************************************************************
Dead Time -------------------------  3.4E-08 
Number of Cycles Used -------------  4 
Starting Wavelength (Angstroms) ---  2950 
Final Wavelength (Angstoms) -------  2984 
Wavelength Increment (Angstroms) --  .25 
Filter Wheel #1 Position ---------- (1) Ground quartz diffuser (ND=2.32)
Filter Wheel #2 Position ---------- (1) Neutral Density 0.494



************************************************************
HS scan start time = 21:07:25
Dark Count =  17.2 


Time (GMT)  Wavelength (Ang)  Step Number  Raw Counts  Counts/Second

 1268.32        2950.00           2144          87.00       304.28
 1268.51        2950.25           2147          84.00       291.20
 1268.55        2950.50           2151          78.00       265.04
 1268.58        2950.75           2155          77.00       260.68
 1268.61        2951.00           2158          82.00       282.48
 1268.64        2951.25           2162          88.00       308.63
 1268.67        2951.50           2165          78.00       265.04
 1268.70        2951.75           2169          84.00       291.20
 1268.73        2952.00           2172          90.00       317.35
 1268.76        2952.25           2176          79.00       269.40
 1268.79        2952.50           2179          82.00       282.48
 1268.82        2952.75           2183          85.00       295.56
 1268.85        2953.00           2186          85.00       295.56
 1268.89        2953.25           2190          83.00       286.84
 1268.92        2953.50           2193          93.00       330.43
 1268.95        2953.75           2197          79.00       269.40
 1268.98        2954.00           2200          85.00       295.56
 1269.01        2954.25           2204          87.00       304.28
 1269.04        2954.50           2208          91.00       321.71
 1269.07        2954.75           2211          94.00       334.79
 1269.10        2955.00           2215          84.00       291.20
 1269.13        2955.25           2218          84.00       291.20
 1269.16        2955.50           2222          93.00       330.43
 1269.19        2955.75           2225          91.00       321.71
 1269.22        2956.00           2229         106.00       387.10
 1269.25        2956.25           2232         111.00       408.90
 1269.28        2956.50           2236         100.00       360.95
 1269.31        2956.75           2239          95.00       339.15
 1269.34        2957.00           2243          97.00       347.87
 1269.37        2957.25           2246          91.00       321.71
 1269.41        2957.50           2250         100.00       360.95
 1269.44        2957.75           2254         106.00       387.10
 1269.47        2958.00           2257         122.00       456.85
 1269.50        2958.25           2261          99.00       356.59
 1269.53        2958.50           2264         103.00       374.02
 1269.56        2958.75           2268         101.00       365.31
 1269.59        2959.00           2271         106.00       387.10
 1269.62        2959.25           2275         121.00       452.49
 1269.65        2959.50           2278         113.00       417.62
 1269.68        2959.75           2282         130.00       491.73
 1269.71        2960.00           2285         149.00       574.55
 1269.74        2960.25           2289         124.00       465.57
 1269.77        2960.50           2293         144.00       552.76
 1269.80        2960.75           2296         151.00       583.27
 1269.83        2961.00           2300         249.00      1010.50
 1269.86        2961.25           2303         622.00      2636.68
 1269.89        2961.50           2307        1754.00      7573.01
 1269.92        2961.75           2310        2933.00     12716.05
 1269.96        2962.00           2314        4651.00     20213.54
 1269.99        2962.25           2317        6010.00     26147.04
 1270.02        2962.50           2321        7967.00     34695.65
 1270.05        2962.75           2324        9483.00     41321.31
 1270.08        2963.00           2328       11457.00     49953.12
 1270.11        2963.25           2331       12773.00     55710.48
 1270.14        2963.50           2335       14637.00     63869.15
 1270.17        2963.75           2339       16632.00     72606.22
 1270.20        2964.00           2342       18303.00     79928.35
 1270.23        2964.25           2346       20230.00     88376.76
 1270.26        2964.50           2349       21583.00     94311.53
 1270.29        2964.75           2353       23469.00    102588.30
 1270.32        2965.00           2356       24692.00    107957.90
 1270.35        2965.25           2360       26407.00    115491.00
 1270.38        2965.50           2363       27736.00    121331.20
 1270.41        2965.75           2367       29921.00    130938.20
 1270.44        2966.00           2370       31025.00    135794.70
 1270.48        2966.25           2374       32427.00    141964.30
 1270.51        2966.50           2378       32932.00    144187.30
 1270.54        2966.75           2381       32912.00    144099.20
 1270.57        2967.00           2385       33199.00    145362.70
 1270.60        2967.25           2388       33048.00    144697.90
 1270.63        2967.50           2392       32921.00    144138.90
 1270.67        2967.75           2395       32915.00    144112.40
 1270.70        2968.00           2399       31523.00    137985.90
 1270.74        2968.25           2402       30212.00    132218.10
 1270.77        2968.50           2406       28672.00    125445.90
 1270.80        2968.75           2409       27385.00    119788.60
 1270.83        2969.00           2413       25436.00    111225.40
 1270.86        2969.25           2417       23489.00    102676.10
 1270.89        2969.50           2420       22078.00     96483.38
 1270.92        2969.75           2424       20039.00     87539.14
 1270.95        2970.00           2427       18719.00     81751.77
 1270.98        2970.25           2431       16611.00     72514.22
 1271.01        2970.50           2434       15177.00     66233.56
 1271.04        2970.75           2438       13328.00     58139.23
 1271.07        2971.00           2441       11846.00     51654.73
 1271.10        2971.25           2445        9843.00     42895.12
 1271.13        2971.50           2449        7913.00     34459.70
 1271.16        2971.75           2452        6389.00     27802.21
 1271.19        2972.00           2456        4467.00     19410.36
 1271.22        2972.25           2459        3162.00     13715.20
 1271.26        2972.50           2463        1613.00      6958.05
 1271.29        2972.75           2466         775.00      3303.77
 1271.32        2973.00           2470         249.00      1010.50
 1271.35        2973.25           2473         166.00       648.66
 1271.38        2973.50           2477         147.00       565.83
 1271.41        2973.75           2481         144.00       552.76
 1271.44        2974.00           2484         127.00       478.65
 1271.47        2974.25           2488         120.00       448.13
 1271.50        2974.50           2491         113.00       417.62
 1271.53        2974.75           2495         172.00       674.82
 1271.56        2975.00           2498         114.00       421.98
 1271.59        2975.25           2502         112.00       413.26
 1271.62        2975.50           2505         114.00       421.98
 1271.65        2975.75           2509         114.00       421.98
 1271.68        2976.00           2512         104.00       378.38
 1271.71        2976.25           2516         107.00       391.46
 1271.74        2976.50           2520         101.00       365.31
 1271.78        2976.75           2523         128.00       483.01
 1271.81        2977.00           2527          98.00       352.23
 1271.84        2977.25           2530         103.00       374.02
 1271.87        2977.50           2534         118.00       439.41
 1271.90        2977.75           2537          96.00       343.51
 1271.93        2978.00           2541          94.00       334.79
 1271.96        2978.25           2544          97.00       347.87
 1271.99        2978.50           2548         100.00       360.95
 1272.02        2978.75           2552          87.00       304.28
 1272.05        2979.00           2555          99.00       356.59
 1272.08        2979.25           2559          93.00       330.43
 1272.11        2979.50           2562          90.00       317.35
 1272.14        2979.75           2566          81.00       278.12
 1272.17        2980.00           2569          88.00       308.63
 1272.20        2980.25           2573          86.00       299.92
 1272.23        2980.50           2577          86.00       299.92
 1272.26        2980.75           2580          84.00       291.20
 1272.30        2981.00           2584          92.00       326.07
 1272.33        2981.25           2587          99.00       356.59
 1272.36        2981.50           2591          91.00       321.71
 1272.39        2981.75           2594          92.00       326.07
 1272.42        2982.00           2598          83.00       286.84
 1272.45        2982.25           2601          83.00       286.84
 1272.48        2982.50           2605          91.00       321.71
 1272.51        2982.75           2609         111.00       408.90
 1272.54        2983.00           2612          85.00       295.56
 1272.57        2983.25           2616          75.00       251.96
 1272.60        2983.50           2619          87.00       304.28
 1272.63        2983.75           2623          84.00       291.20
 1272.66        2984.00           2626          85.00       295.56
HS scan finished at 21:12:53
end
