************************************************************
  HS Scan of (1) Internal mercury lamp
************************************************************
Integration time is 0.2294 seconds per sample
dh030718Reading 51.44 .94 3.52pr1000
************************************************************
Dead Time -------------------------  3.4E-08 
Number of Cycles Used -------------  4 
Starting Wavelength (Angstroms) ---  2950 
Final Wavelength (Angstoms) -------  2984 
Wavelength Increment (Angstroms) --  .25 
Filter Wheel #1 Position ---------- (1) Ground quartz diffuser (ND=2.32)
Filter Wheel #2 Position ---------- (1) Neutral Density 0.494



************************************************************
HS scan start time = 01:20:14
Dark Count =  2.7 


Time (GMT)  Wavelength (Ang)  Step Number  Raw Counts  Counts/Second

   81.14        2950.00           2144          80.00       336.97
   81.33        2950.25           2147          74.00       310.81
   81.36        2950.50           2151          72.00       302.10
   81.39        2950.75           2155          74.00       310.81
   81.42        2951.00           2158          67.00       280.30
   81.45        2951.25           2162          74.00       310.81
   81.48        2951.50           2165          71.00       297.74
   81.51        2951.75           2169          75.00       315.17
   81.55        2952.00           2172          83.00       350.05
   81.58        2952.25           2176          80.00       336.97
   81.61        2952.50           2179          83.00       350.05
   81.64        2952.75           2183          77.00       323.89
   81.67        2953.00           2186          79.00       332.61
   81.70        2953.25           2190          77.00       323.89
   81.73        2953.50           2193          87.00       367.49
   81.76        2953.75           2197          79.00       332.61
   81.79        2954.00           2200          84.00       354.41
   81.82        2954.25           2204          75.00       315.17
   81.85        2954.50           2208          79.00       332.61
   81.88        2954.75           2211          79.00       332.61
   81.91        2955.00           2215          86.00       363.13
   81.94        2955.25           2218          81.00       341.33
   81.97        2955.50           2222          89.00       376.20
   82.00        2955.75           2225          90.00       380.56
   82.04        2956.00           2229          91.00       384.92
   82.07        2956.25           2232          80.00       336.97
   82.10        2956.50           2236          86.00       363.13
   82.13        2956.75           2239          99.00       419.80
   82.16        2957.00           2243          89.00       376.20
   82.19        2957.25           2246          95.00       402.36
   82.22        2957.50           2250          97.00       411.08
   82.25        2957.75           2254          95.00       402.36
   82.28        2958.00           2257          94.00       398.00
   82.31        2958.25           2261          95.00       402.36
   82.34        2958.50           2264         115.00       489.55
   82.37        2958.75           2268          97.00       411.08
   82.40        2959.00           2271         126.00       537.50
   82.43        2959.25           2275         108.00       459.03
   82.46        2959.50           2278         107.00       454.67
   82.49        2959.75           2282         105.00       445.95
   82.52        2960.00           2285         115.00       489.55
   82.56        2960.25           2289         116.00       493.91
   82.59        2960.50           2293         145.00       620.33
   82.62        2960.75           2296         134.00       572.37
   82.65        2961.00           2300         201.00       864.45
   82.68        2961.25           2303         598.00      2595.26
   82.71        2961.50           2307        1811.00      7884.85
   82.74        2961.75           2310        3098.00     13499.22
   82.77        2962.00           2314        4971.00     21673.77
   82.80        2962.25           2317        6452.00     28140.69
   82.83        2962.50           2321        8282.00     36135.48
   82.86        2962.75           2324        9616.00     41966.12
   82.89        2963.00           2328       11658.00     50895.76
   82.92        2963.25           2331       13378.00     58421.51
   82.95        2963.50           2335       15523.00     67812.23
   82.98        2963.75           2339       17862.00     78059.13
   83.01        2964.00           2342       19175.00     83814.36
   83.04        2964.25           2346       21243.00     92883.54
   83.08        2964.50           2349       22926.00    100268.50
   83.11        2964.75           2353       24976.00    109268.80
   83.14        2965.00           2356       26386.00    115462.40
   83.17        2965.25           2360       28366.00    124164.30
   83.20        2965.50           2363       29700.00    130030.00
   83.23        2965.75           2367       31438.00    137675.70
   83.26        2966.00           2370       32981.00    144466.80
   83.29        2966.25           2374       34591.00    151556.20
   83.32        2966.50           2378       35467.00    155415.00
   83.35        2966.75           2381       35619.00    156084.70
   83.38        2967.00           2385       35641.00    156181.60
   83.41        2967.25           2388       35496.00    155542.70
   83.44        2967.50           2392       35250.00    154459.00
   83.47        2967.75           2395       35025.00    153467.80
   83.50        2968.00           2399       33951.00    148737.60
   83.53        2968.25           2402       32684.00    143159.40
   83.56        2968.50           2406       30787.00    134811.40
   83.60        2968.75           2409       28903.00    126525.30
   83.63        2969.00           2413       27004.00    118177.90
   83.66        2969.25           2417       24686.00    107995.20
   83.69        2969.50           2420       23145.00    101229.70
   83.72        2969.75           2424       21155.00     92497.51
   83.75        2970.00           2427       19357.00     84612.29
   83.78        2970.25           2431       17234.00     75307.22
   83.81        2970.50           2434       15676.00     68482.28
   83.84        2970.75           2438       13517.00     59029.87
   83.87        2971.00           2441       12085.00     52763.71
   83.90        2971.25           2445       10101.00     44086.52
   83.93        2971.50           2449        8152.00     35567.40
   83.96        2971.75           2452        6678.00     29127.79
   83.99        2972.00           2456        4593.00     20023.65
   84.02        2972.25           2459        3042.00     13254.88
   84.05        2972.50           2463        1384.00      6022.59
   84.08        2972.75           2466         585.00      2538.58
   84.11        2973.00           2470         204.00       877.53
   84.15        2973.25           2473         159.00       681.36
   84.18        2973.50           2477         127.00       541.86
   84.21        2973.75           2481         154.00       659.56
   84.24        2974.00           2484         118.00       502.62
   84.27        2974.25           2488         138.00       589.81
   84.30        2974.50           2491         149.00       637.76
   84.33        2974.75           2495         166.00       711.87
   84.36        2975.00           2498         119.00       506.98
   84.39        2975.25           2502         124.00       528.78
   84.42        2975.50           2505         106.00       450.31
   84.45        2975.75           2509         128.00       546.22
   84.49        2976.00           2512         112.00       476.47
   84.52        2976.25           2516         121.00       515.70
   84.55        2976.50           2520         101.00       428.52
   84.58        2976.75           2523          92.00       389.28
   84.61        2977.00           2527         118.00       502.62
   84.64        2977.25           2530          93.00       393.64
   84.67        2977.50           2534          92.00       389.28
   84.70        2977.75           2537          95.00       402.36
   84.73        2978.00           2541          87.00       367.49
   84.76        2978.25           2544          80.00       336.97
   84.79        2978.50           2548          92.00       389.28
   84.83        2978.75           2552          92.00       389.28
   84.86        2979.00           2555          95.00       402.36
   84.89        2979.25           2559          86.00       363.13
   84.92        2979.50           2562          84.00       354.41
   84.95        2979.75           2566          84.00       354.41
   84.98        2980.00           2569          81.00       341.33
   85.01        2980.25           2573          83.00       350.05
   85.04        2980.50           2577          76.00       319.53
   85.07        2980.75           2580          85.00       358.77
   85.10        2981.00           2584          83.00       350.05
   85.13        2981.25           2587          77.00       323.89
   85.16        2981.50           2591          76.00       319.53
   85.19        2981.75           2594          81.00       341.33
   85.22        2982.00           2598          76.00       319.53
   85.25        2982.25           2601          85.00       358.77
   85.28        2982.50           2605          78.00       328.25
   85.31        2982.75           2609          83.00       350.05
   85.34        2983.00           2612          77.00       323.89
   85.38        2983.25           2616          75.00       315.17
   85.41        2983.50           2619          77.00       323.89
   85.44        2983.75           2623          75.00       315.17
   85.47        2984.00           2626          75.00       315.17
HS scan finished at 01:25:41
end
************************************************************
  HS Scan of (1) Internal mercury lamp
************************************************************
Integration time is 0.2294 seconds per sample
dh030718Reading 51.44 .94 3.86pr1000
************************************************************
Dead Time -------------------------  3.4E-08 
Number of Cycles Used -------------  4 
Starting Wavelength (Angstroms) ---  2950 
Final Wavelength (Angstoms) -------  2984 
Wavelength Increment (Angstroms) --  .25 
Filter Wheel #1 Position ---------- (1) Ground quartz diffuser (ND=2.32)
Filter Wheel #2 Position ---------- (1) Neutral Density 0.494



************************************************************
HS scan start time = 21:07:27
Dark Count =  6.6 


Time (GMT)  Wavelength (Ang)  Step Number  Raw Counts  Counts/Second

 1268.35        2950.00           2144          71.00       280.74
 1268.55        2950.25           2147          66.00       258.94
 1268.58        2950.50           2151          67.00       263.30
 1268.61        2950.75           2155          72.00       285.09
 1268.64        2951.00           2158          70.00       276.38
 1268.67        2951.25           2162          65.00       254.58
 1268.70        2951.50           2165          66.00       258.94
 1268.73        2951.75           2169          65.00       254.58
 1268.76        2952.00           2172          67.00       263.30
 1268.79        2952.25           2176          73.00       289.45
 1268.82        2952.50           2179          78.00       311.25
 1268.85        2952.75           2183          65.00       254.58
 1268.88        2953.00           2186          76.00       302.53
 1268.91        2953.25           2190          67.00       263.30
 1268.95        2953.50           2193          67.00       263.30
 1268.98        2953.75           2197          71.00       280.74
 1269.01        2954.00           2200          74.00       293.81
 1269.04        2954.25           2204          69.00       272.02
 1269.07        2954.50           2208          72.00       285.09
 1269.10        2954.75           2211          69.00       272.02
 1269.13        2955.00           2215          75.00       298.17
 1269.16        2955.25           2218          72.00       285.09
 1269.19        2955.50           2222          79.00       315.61
 1269.22        2955.75           2225          77.00       306.89
 1269.25        2956.00           2229          75.00       298.17
 1269.28        2956.25           2232          83.00       333.05
 1269.31        2956.50           2236          81.00       324.33
 1269.34        2956.75           2239          74.00       293.81
 1269.37        2957.00           2243          82.00       328.69
 1269.40        2957.25           2246          71.00       280.74
 1269.43        2957.50           2250          81.00       324.33
 1269.46        2957.75           2254          79.00       315.61
 1269.50        2958.00           2257          83.00       333.05
 1269.53        2958.25           2261          86.00       346.12
 1269.56        2958.50           2264          92.00       372.28
 1269.59        2958.75           2268          82.00       328.69
 1269.62        2959.00           2271          89.00       359.20
 1269.65        2959.25           2275          89.00       359.20
 1269.68        2959.50           2278          91.00       367.92
 1269.71        2959.75           2282         102.00       415.87
 1269.74        2960.00           2285         102.00       415.87
 1269.77        2960.25           2289         142.00       590.25
 1269.80        2960.50           2293         122.00       503.06
 1269.83        2960.75           2296         112.00       459.47
 1269.86        2961.00           2300         158.00       660.00
 1269.89        2961.25           2303         378.00      1619.10
 1269.92        2961.50           2307        1177.00      5102.89
 1269.95        2961.75           2310        2035.00      8844.86
 1269.98        2962.00           2314        3693.00     16078.53
 1270.02        2962.25           2317        4913.00     21403.54
 1270.05        2962.50           2321        6742.00     29390.30
 1270.08        2962.75           2324        7951.00     34672.06
 1270.11        2963.00           2328        9649.00     42093.33
 1270.14        2963.25           2331       10860.00     47388.42
 1270.17        2963.50           2335       12484.00     54492.33
 1270.20        2963.75           2339       14171.00     61875.46
 1270.23        2964.00           2342       15577.00     68031.65
 1270.26        2964.25           2346       17245.00     75338.34
 1270.29        2964.50           2349       18657.00     81526.46
 1270.32        2964.75           2353       20309.00     88769.71
 1270.35        2965.00           2356       21440.00     93730.68
 1270.38        2965.25           2360       22836.00     99856.33
 1270.41        2965.50           2363       24242.00    106028.50
 1270.44        2965.75           2367       26104.00    114206.30
 1270.47        2966.00           2370       27058.00    118398.10
 1270.50        2966.25           2374       28169.00    123281.10
 1270.54        2966.50           2378       28567.00    125030.80
 1270.57        2966.75           2381       28920.00    126582.90
 1270.60        2967.00           2385       28876.00    126389.40
 1270.63        2967.25           2388       28866.00    126345.40
 1270.66        2967.50           2392       28751.00    125839.80
 1270.69        2967.75           2395       28647.00    125382.60
 1270.72        2968.00           2399       27744.00    121413.00
 1270.75        2968.25           2402       26571.00    116258.10
 1270.78        2968.50           2406       24936.00    109076.00
 1270.81        2968.75           2409       23984.00    104895.70
 1270.84        2969.00           2413       22279.00     97411.90
 1270.87        2969.25           2417       20785.00     90857.41
 1270.90        2969.50           2420       19673.00     85980.72
 1270.93        2969.75           2424       17927.00     78326.90
 1270.96        2970.00           2427       16589.00     72464.28
 1270.99        2970.25           2431       14890.00     65023.29
 1271.02        2970.50           2434       13762.00     60085.14
 1271.06        2970.75           2438       11747.00     51268.02
 1271.09        2971.00           2441       10262.00     44773.43
 1271.12        2971.25           2445        8589.00     37460.06
 1271.15        2971.50           2449        6874.00     29966.87
 1271.18        2971.75           2452        5724.00     24944.43
 1271.21        2972.00           2456        4129.00     17981.35
 1271.24        2972.25           2459        2963.00     12893.18
 1271.27        2972.50           2463        1552.00      6738.25
 1271.30        2972.75           2466         710.00      3066.58
 1271.33        2973.00           2470         216.00       912.84
 1271.36        2973.25           2473         143.00       594.61
 1271.39        2973.50           2477         116.00       476.90
 1271.42        2973.75           2481         111.00       455.11
 1271.45        2974.00           2484          98.00       398.44
 1271.48        2974.25           2488          96.00       389.72
 1271.51        2974.50           2491         114.00       468.19
 1271.54        2974.75           2495          93.00       376.64
 1271.58        2975.00           2498          94.00       381.00
 1271.61        2975.25           2502          97.00       394.08
 1271.64        2975.50           2505          94.00       381.00
 1271.67        2975.75           2509          85.00       341.77
 1271.70        2976.00           2512          89.00       359.20
 1271.73        2976.25           2516          88.00       354.84
 1271.76        2976.50           2520          83.00       333.05
 1271.79        2976.75           2523          81.00       324.33
 1271.82        2977.00           2527          83.00       333.05
 1271.85        2977.25           2530          81.00       324.33
 1271.88        2977.50           2534          76.00       302.53
 1271.91        2977.75           2537          82.00       328.69
 1271.94        2978.00           2541          79.00       315.61
 1271.97        2978.25           2544          82.00       328.69
 1272.00        2978.50           2548          78.00       311.25
 1272.03        2978.75           2552          74.00       293.81
 1272.06        2979.00           2555          80.00       319.97
 1272.09        2979.25           2559          81.00       324.33
 1272.13        2979.50           2562          75.00       298.17
 1272.16        2979.75           2566          83.00       333.05
 1272.19        2980.00           2569          75.00       298.17
 1272.22        2980.25           2573          69.00       272.02
 1272.25        2980.50           2577          69.00       272.02
 1272.28        2980.75           2580          69.00       272.02
 1272.31        2981.00           2584          72.00       285.09
 1272.34        2981.25           2587          69.00       272.02
 1272.37        2981.50           2591          75.00       298.17
 1272.40        2981.75           2594          70.00       276.38
 1272.43        2982.00           2598          71.00       280.74
 1272.47        2982.25           2601          71.00       280.74
 1272.50        2982.50           2605          65.00       254.58
 1272.53        2982.75           2609          66.00       258.94
 1272.56        2983.00           2612          60.00       232.78
 1272.59        2983.25           2616          67.00       263.30
 1272.62        2983.50           2619          64.00       250.22
 1272.65        2983.75           2623          74.00       293.81
 1272.68        2984.00           2626          66.00       258.94
HS scan finished at 21:12:54
end
