************************************************************
  HS Scan of (1) Internal mercury lamp
************************************************************
Integration time is 0.2294 seconds per sample
dh020718Reading 51.44 .94 3.86pr1000
************************************************************
Dead Time -------------------------  3.4E-08 
Number of Cycles Used -------------  4 
Starting Wavelength (Angstroms) ---  2950 
Final Wavelength (Angstoms) -------  2984 
Wavelength Increment (Angstroms) --  .25 
Filter Wheel #1 Position ---------- (1) Ground quartz diffuser (ND=2.32)
Filter Wheel #2 Position ---------- (1) Neutral Density 0.494



************************************************************
HS scan start time = 01:20:01
Dark Count =  5.7 


Time (GMT)  Wavelength (Ang)  Step Number  Raw Counts  Counts/Second

   80.91        2950.00           2144          77.00       310.81
   81.10        2950.25           2147          73.00       293.38
   81.13        2950.50           2151          80.00       323.89
   81.16        2950.75           2155          73.00       293.38
   81.20        2951.00           2158          69.00       275.94
   81.23        2951.25           2162          70.00       280.30
   81.26        2951.50           2165          69.00       275.94
   81.29        2951.75           2169          78.00       315.17
   81.32        2952.00           2172          78.00       315.17
   81.35        2952.25           2176          71.00       284.66
   81.38        2952.50           2179          72.00       289.02
   81.41        2952.75           2183          76.00       306.45
   81.44        2953.00           2186          76.00       306.45
   81.47        2953.25           2190          73.00       293.38
   81.50        2953.50           2193          69.00       275.94
   81.53        2953.75           2197          84.00       341.33
   81.56        2954.00           2200          83.00       336.97
   81.59        2954.25           2204          86.00       350.05
   81.62        2954.50           2208          85.00       345.69
   81.65        2954.75           2211          93.00       380.56
   81.68        2955.00           2215          78.00       315.17
   81.72        2955.25           2218          86.00       350.05
   81.75        2955.50           2222          84.00       341.33
   81.78        2955.75           2225          89.00       363.13
   81.81        2956.00           2229          88.00       358.77
   81.84        2956.25           2232          98.00       402.36
   81.87        2956.50           2236          87.00       354.41
   81.90        2956.75           2239          90.00       367.49
   81.93        2957.00           2243          84.00       341.33
   81.96        2957.25           2246          98.00       402.36
   81.99        2957.50           2250          93.00       380.56
   82.02        2957.75           2254          94.00       384.92
   82.05        2958.00           2257          97.00       398.00
   82.08        2958.25           2261         121.00       502.62
   82.11        2958.50           2264         106.00       437.23
   82.14        2958.75           2268          98.00       402.36
   82.17        2959.00           2271          99.00       406.72
   82.20        2959.25           2275         124.00       515.70
   82.24        2959.50           2278          95.00       389.28
   82.27        2959.75           2282         138.00       576.73
   82.30        2960.00           2285         124.00       515.70
   82.33        2960.25           2289         113.00       467.75
   82.36        2960.50           2293         107.00       441.59
   82.39        2960.75           2296         123.00       511.34
   82.42        2961.00           2300         161.00       677.00
   82.45        2961.25           2303         333.00      1426.83
   82.48        2961.50           2307        1260.00      5468.76
   82.51        2961.75           2310        2461.00     10707.04
   82.54        2962.00           2314        4350.00     18949.87
   82.57        2962.25           2317        5844.00     25472.36
   82.60        2962.50           2321        7701.00     33583.66
   82.63        2962.75           2324        9084.00     39627.46
   82.66        2963.00           2328       10872.00     47444.83
   82.69        2963.25           2331       12261.00     53520.58
   82.72        2963.50           2335       14313.00     62501.03
   82.75        2963.75           2339       16513.00     72135.30
   82.79        2964.00           2342       18353.00     80197.90
   82.82        2964.25           2346       20482.00     89532.38
   82.85        2964.50           2349       22163.00     96906.83
   82.88        2964.75           2353       24089.00    105360.60
   82.91        2965.00           2356       25591.00    111956.70
   82.94        2965.25           2360       27619.00    120867.50
   82.97        2965.50           2363       29055.00    127180.40
   83.00        2965.75           2367       31392.00    137460.00
   83.03        2966.00           2370       32575.00    142666.40
   83.06        2966.25           2374       34114.00    149442.20
   83.09        2966.50           2378       34879.00    152811.50
   83.12        2966.75           2381       34860.00    152727.80
   83.15        2967.00           2385       34953.00    153137.50
   83.18        2967.25           2388       34928.00    153027.40
   83.21        2967.50           2392       34690.00    151979.00
   83.24        2967.75           2395       34145.00    149578.70
   83.27        2968.00           2399       32709.00    143256.20
   83.31        2968.25           2402       31601.00    138379.70
   83.34        2968.50           2406       29680.00    129928.90
   83.37        2968.75           2409       28543.00    124929.30
   83.40        2969.00           2413       26443.00    115699.70
   83.43        2969.25           2417       24487.00    107108.20
   83.46        2969.50           2420       22856.00     99948.06
   83.49        2969.75           2424       20738.00     90655.19
   83.52        2970.00           2427       19417.00     84862.21
   83.55        2970.25           2431       17206.00     75171.40
   83.58        2970.50           2434       15669.00     68438.49
   83.61        2970.75           2438       13550.00     59161.17
   83.64        2971.00           2441       11945.00     52138.12
   83.67        2971.25           2445        9952.00     43421.95
   83.70        2971.50           2449        7931.00     34588.61
   83.73        2971.75           2452        6555.00     28577.45
   83.76        2972.00           2456        4819.00     20997.11
   83.79        2972.25           2459        3503.00     15253.33
   83.83        2972.50           2463        1878.00      8163.99
   83.86        2972.75           2466         856.00      3707.09
   83.89        2973.00           2470         225.00       956.00
   83.92        2973.25           2473         155.00       650.84
   83.95        2973.50           2477         174.00       733.67
   83.98        2973.75           2481         159.00       668.28
   84.01        2974.00           2484         143.00       598.53
   84.04        2974.25           2488         132.00       550.58
   84.07        2974.50           2491         134.00       559.30
   84.10        2974.75           2495         117.00       485.19
   84.13        2975.00           2498         114.00       472.11
   84.16        2975.25           2502         106.00       437.23
   84.19        2975.50           2505         123.00       511.34
   84.22        2975.75           2509         112.00       463.39
   84.25        2976.00           2512         100.00       411.08
   84.28        2976.25           2516         100.00       411.08
   84.31        2976.50           2520          97.00       398.00
   84.35        2976.75           2523          98.00       402.36
   84.38        2977.00           2527         120.00       498.26
   84.41        2977.25           2530          98.00       402.36
   84.44        2977.50           2534         110.00       454.67
   84.47        2977.75           2537          99.00       406.72
   84.50        2978.00           2541          96.00       393.64
   84.53        2978.25           2544          93.00       380.56
   84.56        2978.50           2548          94.00       384.92
   84.59        2978.75           2552          82.00       332.61
   84.62        2979.00           2555          88.00       358.77
   84.65        2979.25           2559          83.00       336.97
   84.68        2979.50           2562          87.00       354.41
   84.71        2979.75           2566          94.00       384.92
   84.74        2980.00           2569          86.00       350.05
   84.77        2980.25           2573          85.00       345.69
   84.80        2980.50           2577          79.00       319.53
   84.83        2980.75           2580          80.00       323.89
   84.86        2981.00           2584          83.00       336.97
   84.90        2981.25           2587          83.00       336.97
   84.93        2981.50           2591          77.00       310.81
   84.96        2981.75           2594          83.00       336.97
   84.99        2982.00           2598          86.00       350.05
   85.02        2982.25           2601          81.00       328.25
   85.05        2982.50           2605          80.00       323.89
   85.08        2982.75           2609          70.00       280.30
   85.11        2983.00           2612          82.00       332.61
   85.14        2983.25           2616          73.00       293.38
   85.17        2983.50           2619          75.00       302.10
   85.20        2983.75           2623          70.00       280.30
   85.23        2984.00           2626          78.00       315.17
HS scan finished at 01:25:27
end
************************************************************
  HS Scan of (1) Internal mercury lamp
************************************************************
Integration time is 0.2294 seconds per sample
dh020718Reading 51.44 .94 3.96pr1000
************************************************************
Dead Time -------------------------  3.4E-08 
Number of Cycles Used -------------  4 
Starting Wavelength (Angstroms) ---  2950 
Final Wavelength (Angstoms) -------  2984 
Wavelength Increment (Angstroms) --  .25 
Filter Wheel #1 Position ---------- (1) Ground quartz diffuser (ND=2.32)
Filter Wheel #2 Position ---------- (1) Neutral Density 0.494



************************************************************
HS scan start time = 21:07:24
Dark Count =  7.9 


Time (GMT)  Wavelength (Ang)  Step Number  Raw Counts  Counts/Second

 1268.30        2950.00           2144          55.00       205.32
 1268.50        2950.25           2147          41.00       144.29
 1268.53        2950.50           2151          53.00       196.60
 1268.56        2950.75           2155          48.00       174.80
 1268.59        2951.00           2158          49.00       179.16
 1268.62        2951.25           2162          52.00       192.24
 1268.65        2951.50           2165          44.00       157.37
 1268.68        2951.75           2169          46.00       166.09
 1268.71        2952.00           2172          55.00       205.32
 1268.74        2952.25           2176          52.00       192.24
 1268.77        2952.50           2179          53.00       196.60
 1268.80        2952.75           2183          48.00       174.80
 1268.83        2953.00           2186          47.00       170.45
 1268.87        2953.25           2190          50.00       183.52
 1268.90        2953.50           2193          55.00       205.32
 1268.93        2953.75           2197          48.00       174.80
 1268.96        2954.00           2200          54.00       200.96
 1268.99        2954.25           2204          50.00       183.52
 1269.02        2954.50           2208          52.00       192.24
 1269.05        2954.75           2211          53.00       196.60
 1269.08        2955.00           2215          49.00       179.16
 1269.11        2955.25           2218          53.00       196.60
 1269.14        2955.50           2222          58.00       218.40
 1269.17        2955.75           2225          56.00       209.68
 1269.20        2956.00           2229          54.00       200.96
 1269.23        2956.25           2232          57.00       214.04
 1269.26        2956.50           2236          61.00       231.48
 1269.29        2956.75           2239          53.00       196.60
 1269.32        2957.00           2243          63.00       240.19
 1269.35        2957.25           2246          62.00       235.83
 1269.39        2957.50           2250          52.00       192.24
 1269.42        2957.75           2254          62.00       235.83
 1269.45        2958.00           2257          57.00       214.04
 1269.48        2958.25           2261          60.00       227.12
 1269.51        2958.50           2264          65.00       248.91
 1269.54        2958.75           2268          65.00       248.91
 1269.57        2959.00           2271          64.00       244.55
 1269.60        2959.25           2275          72.00       279.43
 1269.63        2959.50           2278          69.00       266.35
 1269.66        2959.75           2282          72.00       279.43
 1269.69        2960.00           2285          69.00       266.35
 1269.72        2960.25           2289          74.00       288.15
 1269.75        2960.50           2293          70.00       270.71
 1269.78        2960.75           2296          82.00       323.02
 1269.81        2961.00           2300         130.00       532.27
 1269.84        2961.25           2303         285.00      1207.98
 1269.87        2961.50           2307         982.00      4246.91
 1269.90        2961.75           2310        1719.00      7460.92
 1269.94        2962.00           2314        2773.00     12058.56
 1269.97        2962.25           2317        3510.00     15274.28
 1270.00        2962.50           2321        4579.00     19939.84
 1270.03        2962.75           2324        5391.00     23484.75
 1270.06        2963.00           2328        6687.00     29144.38
 1270.09        2963.25           2331        7524.00     32800.73
 1270.12        2963.50           2335        8764.00     38219.20
 1270.15        2963.75           2339        9671.00     42183.82
 1270.18        2964.00           2342       10523.00     45909.01
 1270.21        2964.25           2346       11727.00     51174.84
 1270.24        2964.50           2349       12608.00     55029.19
 1270.27        2964.75           2353       13731.00     59943.75
 1270.30        2965.00           2356       14620.00     63835.43
 1270.33        2965.25           2360       15671.00     68437.62
 1270.36        2965.50           2363       16463.00     71906.63
 1270.39        2965.75           2367       17753.00     77558.66
 1270.42        2966.00           2370       18300.00     79955.95
 1270.46        2966.25           2374       19145.00     83660.03
 1270.49        2966.50           2378       19575.00     85545.31
 1270.52        2966.75           2381       19421.00     84870.09
 1270.55        2967.00           2385       19458.00     85032.31
 1270.58        2967.25           2388       19320.00     84427.27
 1270.61        2967.50           2392       19331.00     84475.50
 1270.64        2967.75           2395       18821.00     82239.66
 1270.67        2968.00           2399       18234.00     79666.68
 1270.70        2968.25           2402       17441.00     76191.46
 1270.73        2968.50           2406       16646.00     72708.29
 1270.76        2968.75           2409       15853.00     69234.72
 1270.79        2969.00           2413       14724.00     64290.78
 1270.82        2969.25           2417       13796.00     60228.26
 1270.85        2969.50           2420       12994.00     56718.25
 1270.88        2969.75           2424       11731.00     51192.34
 1270.91        2970.00           2427       10853.00     47352.11
 1270.95        2970.25           2431        9776.00     42642.87
 1270.98        2970.50           2434        8891.00     38774.27
 1271.01        2970.75           2438        7634.00     33281.32
 1271.04        2971.00           2441        6833.00     29782.11
 1271.07        2971.25           2445        5645.00     24593.79
 1271.10        2971.50           2449        4358.00     18975.19
 1271.13        2971.75           2452        3571.00     15540.47
 1271.16        2972.00           2456        2460.00     10693.08
 1271.19        2972.25           2459        1657.00      7190.51
 1271.22        2972.50           2463         861.00      3719.30
 1271.25        2972.75           2466         419.00      1792.18
 1271.28        2973.00           2470         141.00       580.22
 1271.31        2973.25           2473         113.00       458.16
 1271.34        2973.50           2477          75.00       292.51
 1271.37        2973.75           2481          76.00       296.86
 1271.40        2974.00           2484          69.00       266.35
 1271.43        2974.25           2488          72.00       279.43
 1271.46        2974.50           2491          69.00       266.35
 1271.50        2974.75           2495          76.00       296.86
 1271.53        2975.00           2498          65.00       248.91
 1271.56        2975.25           2502          58.00       218.40
 1271.59        2975.50           2505          67.00       257.63
 1271.62        2975.75           2509          57.00       214.04
 1271.65        2976.00           2512          70.00       270.71
 1271.68        2976.25           2516          61.00       231.48
 1271.71        2976.50           2520          70.00       270.71
 1271.74        2976.75           2523          56.00       209.68
 1271.77        2977.00           2527          64.00       244.55
 1271.80        2977.25           2530          61.00       231.48
 1271.83        2977.50           2534          50.00       183.52
 1271.86        2977.75           2537          61.00       231.48
 1271.89        2978.00           2541          64.00       244.55
 1271.92        2978.25           2544          57.00       214.04
 1271.95        2978.50           2548          47.00       170.45
 1271.98        2978.75           2552          61.00       231.48
 1272.02        2979.00           2555          53.00       196.60
 1272.05        2979.25           2559          49.00       179.16
 1272.08        2979.50           2562          47.00       170.45
 1272.11        2979.75           2566          48.00       174.80
 1272.14        2980.00           2569          51.00       187.88
 1272.17        2980.25           2573          56.00       209.68
 1272.20        2980.50           2577          52.00       192.24
 1272.23        2980.75           2580          57.00       214.04
 1272.26        2981.00           2584          52.00       192.24
 1272.29        2981.25           2587          48.00       174.80
 1272.32        2981.50           2591          45.00       161.73
 1272.35        2981.75           2594          48.00       174.80
 1272.38        2982.00           2598          44.00       157.37
 1272.41        2982.25           2601          55.00       205.32
 1272.44        2982.50           2605          46.00       166.09
 1272.47        2982.75           2609          52.00       192.24
 1272.50        2983.00           2612          49.00       179.16
 1272.54        2983.25           2616          50.00       183.52
 1272.57        2983.50           2619          46.00       166.09
 1272.60        2983.75           2623          49.00       179.16
 1272.63        2984.00           2626          48.00       174.80
HS scan finished at 21:12:51
end
