************************************************************
  HS Scan of (1) Internal mercury lamp
************************************************************
Integration time is 0.2294 seconds per sample
dh080718Reading 51.44 .94 3.74pr1000
************************************************************
Dead Time -------------------------  3.4E-08 
Number of Cycles Used -------------  4 
Starting Wavelength (Angstroms) ---  2950 
Final Wavelength (Angstoms) -------  2984 
Wavelength Increment (Angstroms) --  .25 
Filter Wheel #1 Position ---------- (1) Ground quartz diffuser (ND=2.32)
Filter Wheel #2 Position ---------- (1) Neutral Density 0.494



************************************************************
HS scan start time = 01:17:42
Dark Count =  4.9 


Time (GMT)  Wavelength (Ang)  Step Number  Raw Counts  Counts/Second

   78.60        2950.00           2144          81.00       331.74
   78.79        2950.25           2147          70.00       283.79
   78.82        2950.50           2151          75.00       305.58
   78.85        2950.75           2155          79.00       323.02
   78.88        2951.00           2158          70.00       283.79
   78.91        2951.25           2162          78.00       318.66
   78.94        2951.50           2165          77.00       314.30
   78.97        2951.75           2169          79.00       323.02
   79.00        2952.00           2172          82.00       336.10
   79.04        2952.25           2176          80.00       327.38
   79.07        2952.50           2179          81.00       331.74
   79.10        2952.75           2183          78.00       318.66
   79.13        2953.00           2186          81.00       331.74
   79.16        2953.25           2190          86.00       353.54
   79.19        2953.50           2193          92.00       379.69
   79.22        2953.75           2197          95.00       392.77
   79.25        2954.00           2200          81.00       331.74
   79.28        2954.25           2204          79.00       323.02
   79.31        2954.50           2208          80.00       327.38
   79.34        2954.75           2211          99.00       410.21
   79.37        2955.00           2215          89.00       366.61
   79.40        2955.25           2218          88.00       362.25
   79.43        2955.50           2222          89.00       366.61
   79.46        2955.75           2225          86.00       353.54
   79.49        2956.00           2229          82.00       336.10
   79.52        2956.25           2232          85.00       349.18
   79.55        2956.50           2236          96.00       397.13
   79.59        2956.75           2239          95.00       392.77
   79.62        2957.00           2243         100.00       414.57
   79.65        2957.25           2246          97.00       401.49
   79.68        2957.50           2250          99.00       410.21
   79.71        2957.75           2254         114.00       475.60
   79.74        2958.00           2257          99.00       410.21
   79.77        2958.25           2261          94.00       388.41
   79.80        2958.50           2264         111.00       462.52
   79.83        2958.75           2268          96.00       397.13
   79.86        2959.00           2271         136.00       571.50
   79.89        2959.25           2275         121.00       506.11
   79.92        2959.50           2278         112.00       466.88
   79.95        2959.75           2282         104.00       432.00
   79.98        2960.00           2285         149.00       628.17
   80.01        2960.25           2289         139.00       584.58
   80.04        2960.50           2293         130.00       545.35
   80.07        2960.75           2296         133.00       558.42
   80.11        2961.00           2300         191.00       811.27
   80.14        2961.25           2303         488.00      2106.08
   80.17        2961.50           2307        1811.00      7875.26
   80.20        2961.75           2310        3163.00     13773.23
   80.23        2962.00           2314        4788.00     20865.28
   80.26        2962.25           2317        6119.00     26676.76
   80.29        2962.50           2321        8065.00     35177.62
   80.32        2962.75           2324        9653.00     42118.25
   80.35        2963.00           2328       11949.00     52159.12
   80.38        2963.25           2331       13450.00     58726.99
   80.41        2963.50           2335       15563.00     67977.78
   80.44        2963.75           2339       17828.00     77900.49
   80.47        2964.00           2342       19489.00     85181.39
   80.50        2964.25           2346       21657.00     94690.15
   80.53        2964.50           2349       23159.00    101281.50
   80.56        2964.75           2353       25172.00    110119.90
   80.59        2965.00           2356       26812.00    117324.50
   80.63        2965.25           2360       28878.00    126405.70
   80.66        2965.50           2363       30481.00    133455.60
   80.69        2965.75           2367       32153.00    140812.50
   80.72        2966.00           2370       33695.00    147600.70
   80.75        2966.25           2374       34964.00    153189.50
   80.78        2966.50           2378       35730.00    156564.00
   80.81        2966.75           2381       35710.00    156475.90
   80.84        2967.00           2385       35734.00    156581.60
   80.87        2967.25           2388       35790.00    156828.40
   80.90        2967.50           2392       36036.00    157912.30
   80.93        2967.75           2395       35793.00    156841.60
   80.96        2968.00           2399       34208.00    149859.70
   80.99        2968.25           2402       32541.00    142520.20
   81.02        2968.50           2406       30358.00    132914.50
   81.05        2968.75           2409       29048.00    127153.10
   81.08        2969.00           2413       26949.00    117926.60
   81.11        2969.25           2417       25056.00    109610.40
   81.15        2969.50           2420       23603.00    103230.50
   81.18        2969.75           2424       21410.00     93606.51
   81.21        2970.00           2427       19938.00     87150.18
   81.24        2970.25           2431       17849.00     77992.50
   81.27        2970.50           2434       16152.00     70557.47
   81.30        2970.75           2438       14264.00     62290.03
   81.33        2971.00           2441       12549.00     54784.17
   81.36        2971.25           2445       10565.00     46105.78
   81.39        2971.50           2449        8693.00     37922.01
   81.42        2971.75           2452        7014.00     30585.85
   81.45        2972.00           2456        4846.00     21118.47
   81.48        2972.25           2459        3453.00     15038.64
   81.51        2972.50           2463        1855.00      8067.16
   81.54        2972.75           2466         910.00      3946.04
   81.57        2973.00           2470         290.00      1242.86
   81.60        2973.25           2473         168.00       711.00
   81.63        2973.50           2477         158.00       667.41
   81.67        2973.75           2481         134.00       562.78
   81.70        2974.00           2484         141.00       593.30
   81.73        2974.25           2488         124.00       519.19
   81.76        2974.50           2491         137.00       575.86
   81.79        2974.75           2495         127.00       532.27
   81.82        2975.00           2498         113.00       471.24
   81.85        2975.25           2502         131.00       549.71
   81.88        2975.50           2505         127.00       532.27
   81.91        2975.75           2509         123.00       514.83
   81.94        2976.00           2512         113.00       471.24
   81.97        2976.25           2516         146.00       615.10
   82.00        2976.50           2520         127.00       532.27
   82.03        2976.75           2523         120.00       501.75
   82.06        2977.00           2527          96.00       397.13
   82.09        2977.25           2530         111.00       462.52
   82.12        2977.50           2534          97.00       401.49
   82.15        2977.75           2537          97.00       401.49
   82.19        2978.00           2541          94.00       388.41
   82.22        2978.25           2544         100.00       414.57
   82.25        2978.50           2548          96.00       397.13
   82.28        2978.75           2552          94.00       388.41
   82.31        2979.00           2555          93.00       384.05
   82.34        2979.25           2559          86.00       353.54
   82.37        2979.50           2562          80.00       327.38
   82.40        2979.75           2566          84.00       344.82
   82.43        2980.00           2569          89.00       366.61
   82.46        2980.25           2573          84.00       344.82
   82.49        2980.50           2577          88.00       362.25
   82.52        2980.75           2580          90.00       370.97
   82.55        2981.00           2584          79.00       323.02
   82.58        2981.25           2587          81.00       331.74
   82.61        2981.50           2591          78.00       318.66
   82.64        2981.75           2594          82.00       336.10
   82.67        2982.00           2598          79.00       323.02
   82.71        2982.25           2601          86.00       353.54
   82.74        2982.50           2605          89.00       366.61
   82.77        2982.75           2609          86.00       353.54
   82.80        2983.00           2612          80.00       327.38
   82.83        2983.25           2616          83.00       340.46
   82.86        2983.50           2619          78.00       318.66
   82.89        2983.75           2623          81.00       331.74
   82.92        2984.00           2626          83.00       340.46
HS scan finished at 01:23:08
end
************************************************************
  HS Scan of (1) Internal mercury lamp
************************************************************
Integration time is 0.2294 seconds per sample
dh080718Reading 51.44 .94 4.27pr1000
************************************************************
Dead Time -------------------------  3.4E-08 
Number of Cycles Used -------------  4 
Starting Wavelength (Angstroms) ---  2950 
Final Wavelength (Angstoms) -------  2984 
Wavelength Increment (Angstroms) --  .25 
Filter Wheel #1 Position ---------- (1) Ground quartz diffuser (ND=2.32)
Filter Wheel #2 Position ---------- (1) Neutral Density 0.494



************************************************************
HS scan start time = 21:07:27
Dark Count =  17.7 


Time (GMT)  Wavelength (Ang)  Step Number  Raw Counts  Counts/Second

 1268.34        2950.00           2144          60.00       184.40
 1268.54        2950.25           2147          54.00       158.24
 1268.57        2950.50           2151          57.00       171.32
 1268.60        2950.75           2155          51.00       145.16
 1268.63        2951.00           2158          55.00       162.60
 1268.66        2951.25           2162          47.00       127.73
 1268.69        2951.50           2165          56.00       166.96
 1268.72        2951.75           2169          56.00       166.96
 1268.76        2952.00           2172          61.00       188.75
 1268.80        2952.25           2176          53.00       153.88
 1268.83        2952.50           2179          50.00       140.80
 1268.86        2952.75           2183          57.00       171.32
 1268.89        2953.00           2186          62.00       193.11
 1268.92        2953.25           2190          60.00       184.40
 1268.95        2953.50           2193          62.00       193.11
 1268.98        2953.75           2197          54.00       158.24
 1269.01        2954.00           2200          61.00       188.75
 1269.04        2954.25           2204          60.00       184.40
 1269.07        2954.50           2208          63.00       197.47
 1269.10        2954.75           2211          60.00       184.40
 1269.13        2955.00           2215          64.00       201.83
 1269.16        2955.25           2218          60.00       184.40
 1269.19        2955.50           2222          66.00       210.55
 1269.22        2955.75           2225          62.00       193.11
 1269.25        2956.00           2229          73.00       241.07
 1269.28        2956.25           2232          66.00       210.55
 1269.32        2956.50           2236          60.00       184.40
 1269.35        2956.75           2239          67.00       214.91
 1269.38        2957.00           2243          59.00       180.04
 1269.41        2957.25           2246          68.00       219.27
 1269.44        2957.50           2250          70.00       227.99
 1269.47        2957.75           2254          62.00       193.11
 1269.50        2958.00           2257          68.00       219.27
 1269.53        2958.25           2261          68.00       219.27
 1269.56        2958.50           2264          69.00       223.63
 1269.59        2958.75           2268          68.00       219.27
 1269.62        2959.00           2271          69.00       223.63
 1269.65        2959.25           2275          77.00       258.50
 1269.68        2959.50           2278          74.00       245.42
 1269.71        2959.75           2282          78.00       262.86
 1269.74        2960.00           2285          78.00       262.86
 1269.77        2960.25           2289          83.00       284.66
 1269.80        2960.50           2293          79.00       267.22
 1269.83        2960.75           2296          83.00       284.66
 1269.87        2961.00           2300         119.00       441.59
 1269.90        2961.25           2303         246.00       995.24
 1269.93        2961.50           2307         824.00      3515.24
 1269.96        2961.75           2310        1544.00      6654.95
 1269.99        2962.00           2314        2594.00     11234.89
 1270.02        2962.25           2317        3337.00     14476.61
 1270.05        2962.50           2321        4391.00     19076.45
 1270.08        2962.75           2324        5159.00     22429.04
 1270.11        2963.00           2328        6242.00     27158.02
 1270.14        2963.25           2331        7085.00     30840.08
 1270.17        2963.50           2335        8261.00     35978.16
 1270.20        2963.75           2339        9407.00     40986.90
 1270.23        2964.00           2342       10296.00     44873.56
 1270.26        2964.25           2346       11450.00     49920.32
 1270.29        2964.50           2349       12257.00     53450.58
 1270.32        2964.75           2353       13368.00     58312.10
 1270.35        2965.00           2356       14115.00     61581.73
 1270.39        2965.25           2360       15409.00     67247.31
 1270.42        2965.50           2363       16162.00     70545.21
 1270.45        2965.75           2367       17168.00     74952.32
 1270.48        2966.00           2370       18021.00     78690.21
 1270.51        2966.25           2374       18915.00     82608.78
 1270.54        2966.50           2378       19322.00     84393.09
 1270.57        2966.75           2381       19702.00     86059.21
 1270.60        2967.00           2385       19598.00     85603.19
 1270.63        2967.25           2388       19558.00     85427.81
 1270.66        2967.50           2392       19710.00     86094.29
 1270.69        2967.75           2395       19422.00     84831.52
 1270.72        2968.00           2399       18734.00     81815.33
 1270.75        2968.25           2402       18065.00     78883.05
 1270.78        2968.50           2406       17038.00     74382.74
 1270.81        2968.75           2409       16172.00     70589.00
 1270.84        2969.00           2413       15020.00     65543.90
 1270.88        2969.25           2417       13715.00     59830.83
 1270.91        2969.50           2420       12891.00     56224.64
 1270.94        2969.75           2424       12096.00     52746.21
 1270.97        2970.00           2427       11186.00     48765.62
 1271.00        2970.25           2431        9863.00     42980.38
 1271.03        2970.50           2434        9002.00     39216.60
 1271.06        2970.75           2438        7846.00     34164.77
 1271.09        2971.00           2441        6902.00     30040.69
 1271.12        2971.25           2445        5702.00     24799.89
 1271.15        2971.50           2449        4624.00     20093.50
 1271.18        2971.75           2452        3787.00     16440.31
 1271.21        2972.00           2456        2781.00     12050.71
 1271.24        2972.25           2459        2020.00      8731.01
 1271.27        2972.50           2463        1002.00      4291.39
 1271.30        2972.75           2466         465.00      1950.00
 1271.33        2973.00           2470         159.00       615.97
 1271.36        2973.25           2473         103.00       371.84
 1271.40        2973.50           2477          92.00       323.89
 1271.43        2973.75           2481          87.00       302.10
 1271.46        2974.00           2484          72.00       236.71
 1271.49        2974.25           2488          77.00       258.50
 1271.52        2974.50           2491          81.00       275.94
 1271.55        2974.75           2495          81.00       275.94
 1271.58        2975.00           2498          77.00       258.50
 1271.61        2975.25           2502          72.00       236.71
 1271.64        2975.50           2505          84.00       289.02
 1271.67        2975.75           2509          77.00       258.50
 1271.70        2976.00           2512          72.00       236.71
 1271.73        2976.25           2516          73.00       241.07
 1271.76        2976.50           2520          74.00       245.42
 1271.79        2976.75           2523          71.00       232.35
 1271.82        2977.00           2527          71.00       232.35
 1271.85        2977.25           2530          66.00       210.55
 1271.88        2977.50           2534          64.00       201.83
 1271.92        2977.75           2537          69.00       223.63
 1271.95        2978.00           2541          73.00       241.07
 1271.98        2978.25           2544          66.00       210.55
 1272.01        2978.50           2548          65.00       206.19
 1272.04        2978.75           2552          70.00       227.99
 1272.07        2979.00           2555          60.00       184.40
 1272.10        2979.25           2559          61.00       188.75
 1272.13        2979.50           2562          60.00       184.40
 1272.16        2979.75           2566          57.00       171.32
 1272.19        2980.00           2569          66.00       210.55
 1272.22        2980.25           2573          69.00       223.63
 1272.25        2980.50           2577          64.00       201.83
 1272.28        2980.75           2580          54.00       158.24
 1272.31        2981.00           2584          52.00       149.52
 1272.34        2981.25           2587          54.00       158.24
 1272.37        2981.50           2591          67.00       214.91
 1272.40        2981.75           2594          55.00       162.60
 1272.43        2982.00           2598          60.00       184.40
 1272.47        2982.25           2601          57.00       171.32
 1272.50        2982.50           2605          60.00       184.40
 1272.53        2982.75           2609          58.00       175.68
 1272.56        2983.00           2612          62.00       193.11
 1272.59        2983.25           2616          50.00       140.80
 1272.62        2983.50           2619          55.00       162.60
 1272.65        2983.75           2623          58.00       175.68
 1272.68        2984.00           2626          52.00       149.52
HS scan finished at 21:12:54
end
