************************************************************
  HS Scan of (1) Internal mercury lamp
************************************************************
Integration time is 0.2294 seconds per sample
dh300617Reading 51.44 .94 3.47pr1000
************************************************************
Dead Time -------------------------  3.4E-08 
Number of Cycles Used -------------  4 
Starting Wavelength (Angstroms) ---  2950 
Final Wavelength (Angstoms) -------  2984 
Wavelength Increment (Angstroms) --  .25 
Filter Wheel #1 Position ---------- (1) Ground quartz diffuser (ND=2.32)
Filter Wheel #2 Position ---------- (1) Neutral Density 0.494



************************************************************
HS scan start time = 01:11:34
Dark Count =  2.2 


Time (GMT)  Wavelength (Ang)  Step Number  Raw Counts  Counts/Second

   72.47        2950.00           2144         269.00      1163.08
   72.66        2950.25           2147         274.00      1184.88
   72.70        2950.50           2151         267.00      1154.36
   72.73        2950.75           2155         279.00      1206.68
   72.76        2951.00           2158         278.00      1202.32
   72.79        2951.25           2162         272.00      1176.16
   72.82        2951.50           2165         273.00      1180.52
   72.85        2951.75           2169         295.00      1276.43
   72.88        2952.00           2172         279.00      1206.68
   72.91        2952.25           2176         299.00      1293.87
   72.94        2952.50           2179         276.00      1193.60
   72.97        2952.75           2183         300.00      1298.23
   73.00        2953.00           2186         284.00      1228.47
   73.03        2953.25           2190         293.00      1267.71
   73.06        2953.50           2193         290.00      1254.63
   73.09        2953.75           2197         291.00      1258.99
   73.12        2954.00           2200         288.00      1245.91
   73.15        2954.25           2204         298.00      1289.51
   73.18        2954.50           2208         301.00      1302.59
   73.22        2954.75           2211         304.00      1315.66
   73.25        2955.00           2215         297.00      1285.15
   73.28        2955.25           2218         307.00      1328.74
   73.31        2955.50           2222         288.00      1245.91
   73.34        2955.75           2225         306.00      1324.38
   73.37        2956.00           2229         309.00      1337.46
   73.40        2956.25           2232         315.00      1363.62
   73.43        2956.50           2236         342.00      1481.33
   73.46        2956.75           2239         339.00      1468.25
   73.49        2957.00           2243         320.00      1385.42
   73.52        2957.25           2246         324.00      1402.86
   73.55        2957.50           2250         313.00      1354.90
   73.58        2957.75           2254         334.00      1446.45
   73.61        2958.00           2257         339.00      1468.25
   73.64        2958.25           2261         356.00      1542.37
   73.67        2958.50           2264         370.00      1603.40
   73.70        2958.75           2268         348.00      1507.49
   73.73        2959.00           2271         341.00      1476.97
   73.77        2959.25           2275         367.00      1590.32
   73.80        2959.50           2278         388.00      1681.87
   73.83        2959.75           2282         390.00      1690.59
   73.86        2960.00           2285         385.00      1668.80
   73.89        2960.25           2289         394.00      1708.03
   73.92        2960.50           2293         396.00      1716.75
   73.95        2960.75           2296         426.00      1847.54
   73.98        2961.00           2300         478.00      2074.25
   74.01        2961.25           2303         803.00      3491.26
   74.04        2961.50           2307        2868.00     12497.90
   74.07        2961.75           2310        6345.00     27675.55
   74.10        2962.00           2314       12486.00     54520.33
   74.13        2962.25           2317       17720.00     77439.03
   74.16        2962.50           2321       24291.00    106262.90
   74.19        2962.75           2324       28971.00    126826.50
   74.22        2963.00           2328       35849.00    157100.20
   74.26        2963.25           2331       41281.00    181053.60
   74.29        2963.50           2335       48320.00    212151.60
   74.32        2963.75           2339       56169.00    246906.30
   74.35        2964.00           2342       61092.00    268747.00
   74.38        2964.25           2346       66983.00    294925.20
   74.41        2964.50           2349       71348.00    314352.40
   74.44        2964.75           2353       77436.00    341491.30
   74.47        2965.00           2356       82141.00    362499.70
   74.51        2965.25           2360       87963.00    388537.50
   74.55        2965.50           2363       92672.00    409631.60
   74.58        2965.75           2367       99550.00    440496.70
   74.61        2966.00           2370      104078.00    460851.80
   74.64        2966.25           2374      108276.00    479748.80
   74.67        2966.50           2378      111540.00    494458.50
   74.70        2966.75           2381      112041.00    496717.70
   74.73        2967.00           2385      112546.00    498995.20
   74.76        2967.25           2388      112388.00    498282.60
   74.79        2967.50           2392      111295.00    493353.90
   74.82        2967.75           2395      111141.00    492659.60
   74.85        2968.00           2399      107017.00    474079.00
   74.88        2968.25           2402      103733.00    459299.90
   74.91        2968.50           2406       97634.00    431892.10
   74.94        2968.75           2409       93457.00    413151.00
   74.97        2969.00           2413       86655.00    382683.60
   75.00        2969.25           2417       79666.00    351444.80
   75.03        2969.50           2420       75169.00    331379.60
   75.08        2969.75           2424       68157.00    300147.70
   75.11        2970.00           2427       63841.00    280957.00
   75.14        2970.25           2431       57518.00    252887.80
   75.17        2970.50           2434       53558.00    235335.90
   75.20        2970.75           2438       46728.00    205112.50
   75.23        2971.00           2441       41057.00    180065.00
   75.27        2971.25           2445       33878.00    148418.40
   75.30        2971.50           2449       26924.00    117828.60
   75.33        2971.75           2452       22731.00     99414.81
   75.36        2972.00           2456       16900.00     73846.03
   75.39        2972.25           2459       12376.00     54039.04
   75.42        2972.50           2463        6298.00     27470.29
   75.45        2972.75           2466        2924.00     12742.23
   75.48        2973.00           2470         901.00      3918.57
   75.52        2973.25           2473         551.00      2392.52
   75.55        2973.50           2477         496.00      2152.73
   75.58        2973.75           2481         443.00      1921.66
   75.61        2974.00           2484         438.00      1899.86
   75.64        2974.25           2488         415.00      1799.59
   75.67        2974.50           2491         405.00      1755.99
   75.70        2974.75           2495         405.00      1755.99
   75.73        2975.00           2498         392.00      1699.31
   75.76        2975.25           2502         382.00      1655.72
   75.79        2975.50           2505         405.00      1755.99
   75.82        2975.75           2509         372.00      1612.12
   75.85        2976.00           2512         363.00      1572.88
   75.88        2976.25           2516         397.00      1721.11
   75.91        2976.50           2520         360.00      1559.80
   75.94        2976.75           2523         372.00      1612.12
   75.97        2977.00           2527         350.00      1516.21
   76.00        2977.25           2530         344.00      1490.05
   76.04        2977.50           2534         381.00      1651.36
   76.07        2977.75           2537         344.00      1490.05
   76.10        2978.00           2541         347.00      1503.13
   76.13        2978.25           2544         331.00      1433.37
   76.16        2978.50           2548         331.00      1433.37
   76.19        2978.75           2552         324.00      1402.86
   76.22        2979.00           2555         319.00      1381.06
   76.25        2979.25           2559         316.00      1367.98
   76.28        2979.50           2562         311.00      1346.18
   76.31        2979.75           2566         313.00      1354.90
   76.34        2980.00           2569         304.00      1315.66
   76.37        2980.25           2573         302.00      1306.95
   76.40        2980.50           2577         310.00      1341.82
   76.43        2980.75           2580         297.00      1285.15
   76.46        2981.00           2584         293.00      1267.71
   76.49        2981.25           2587         295.00      1276.43
   76.52        2981.50           2591         306.00      1324.38
   76.56        2981.75           2594         294.00      1272.07
   76.59        2982.00           2598         293.00      1267.71
   76.62        2982.25           2601         287.00      1241.55
   76.65        2982.50           2605         292.00      1263.35
   76.68        2982.75           2609         295.00      1276.43
   76.71        2983.00           2612         298.00      1289.51
   76.74        2983.25           2616         301.00      1302.59
   76.77        2983.50           2619         278.00      1202.32
   76.80        2983.75           2623         315.00      1363.62
   76.83        2984.00           2626         294.00      1272.07
HS scan finished at 01:17:03
end
************************************************************
  HS Scan of (1) Internal mercury lamp
************************************************************
Integration time is 0.2294 seconds per sample
dh300617Reading 51.44 .94 3.58pr1000
************************************************************
Dead Time -------------------------  3.4E-08 
Number of Cycles Used -------------  4 
Starting Wavelength (Angstroms) ---  2950 
Final Wavelength (Angstoms) -------  2984 
Wavelength Increment (Angstroms) --  .25 
Filter Wheel #1 Position ---------- (1) Ground quartz diffuser (ND=2.32)
Filter Wheel #2 Position ---------- (1) Neutral Density 0.494



************************************************************
HS scan start time = 21:07:26
Dark Count =  4.2 


Time (GMT)  Wavelength (Ang)  Step Number  Raw Counts  Counts/Second

 1268.33        2950.00           2144         300.00      1289.51
 1268.52        2950.25           2147         284.00      1219.75
 1268.55        2950.50           2151         270.00      1158.72
 1268.58        2950.75           2155         280.00      1202.32
 1268.62        2951.00           2158         273.00      1171.80
 1268.65        2951.25           2162         268.00      1150.00
 1268.68        2951.50           2165         274.00      1176.16
 1268.71        2951.75           2169         273.00      1171.80
 1268.74        2952.00           2172         283.00      1215.39
 1268.77        2952.25           2176         299.00      1285.15
 1268.80        2952.50           2179         294.00      1263.35
 1268.83        2952.75           2183         273.00      1171.80
 1268.86        2953.00           2186         282.00      1211.03
 1268.89        2953.25           2190         293.00      1258.99
 1268.92        2953.50           2193         299.00      1285.15
 1268.95        2953.75           2197         277.00      1189.24
 1268.98        2954.00           2200         288.00      1237.19
 1269.01        2954.25           2204         290.00      1245.91
 1269.04        2954.50           2208         285.00      1224.11
 1269.07        2954.75           2211         311.00      1337.46
 1269.10        2955.00           2215         300.00      1289.51
 1269.13        2955.25           2218         295.00      1267.71
 1269.17        2955.50           2222         311.00      1337.46
 1269.20        2955.75           2225         293.00      1258.99
 1269.23        2956.00           2229         306.00      1315.66
 1269.26        2956.25           2232         321.00      1381.06
 1269.29        2956.50           2236         311.00      1337.46
 1269.32        2956.75           2239         302.00      1298.23
 1269.35        2957.00           2243         312.00      1341.82
 1269.38        2957.25           2246         336.00      1446.45
 1269.41        2957.50           2250         315.00      1354.90
 1269.44        2957.75           2254         330.00      1420.30
 1269.47        2958.00           2257         333.00      1433.37
 1269.50        2958.25           2261         345.00      1485.69
 1269.53        2958.50           2264         347.00      1494.41
 1269.56        2958.75           2268         351.00      1511.85
 1269.59        2959.00           2271         360.00      1551.08
 1269.62        2959.25           2275         404.00      1742.91
 1269.65        2959.50           2278         367.00      1581.60
 1269.69        2959.75           2282         390.00      1681.87
 1269.72        2960.00           2285         393.00      1694.95
 1269.75        2960.25           2289         405.00      1747.27
 1269.78        2960.50           2293         388.00      1673.16
 1269.81        2960.75           2296         416.00      1795.23
 1269.84        2961.00           2300         488.00      2109.13
 1269.87        2961.25           2303         893.00      3874.97
 1269.90        2961.50           2307        3343.00     14561.70
 1269.93        2961.75           2310        6785.00     29588.60
 1269.96        2962.00           2314       12136.00     52980.27
 1269.99        2962.25           2317       16750.00     73180.11
 1270.02        2962.50           2321       22942.00    100332.10
 1270.05        2962.75           2324       27121.00    118685.50
 1270.08        2963.00           2328       33481.00    146661.50
 1270.11        2963.25           2331       37910.00    166175.10
 1270.14        2963.50           2335       44315.00    194440.80
 1270.17        2963.75           2339       50911.00    223606.40
 1270.21        2964.00           2342       55912.00    245758.10
 1270.24        2964.25           2346       61691.00    271397.80
 1270.27        2964.50           2349       66565.00    293057.20
 1270.30        2964.75           2353       73430.00    323618.90
 1270.33        2965.00           2356       78450.00    346007.40
 1270.36        2965.25           2360       85041.00    375454.70
 1270.39        2965.50           2363       89952.00    397434.60
 1270.42        2965.75           2367       94993.00    420030.90
 1270.45        2966.00           2370       99155.00    438713.40
 1270.48        2966.25           2374      105000.00    464991.00
 1270.51        2966.50           2378      109187.00    483843.90
 1270.54        2966.75           2381      110452.00    489544.70
 1270.57        2967.00           2385      110640.00    490392.10
 1270.60        2967.25           2388      110758.00    490924.00
 1270.63        2967.50           2392      110198.00    488399.80
 1270.66        2967.75           2395      110530.00    489896.20
 1270.69        2968.00           2399      108484.00    480676.80
 1270.73        2968.25           2402      105699.00    468136.80
 1270.76        2968.50           2406       99460.00    440083.40
 1270.79        2968.75           2409       95180.00    420869.70
 1270.82        2969.00           2413       88062.00    388971.70
 1270.85        2969.25           2417       81543.00    359818.90
 1270.88        2969.50           2420       77149.00    340201.80
 1270.91        2969.75           2424       70569.00    310874.50
 1270.94        2970.00           2427       65425.00    287988.30
 1270.97        2970.25           2431       58435.00    256946.40
 1271.00        2970.50           2434       53359.00    234445.50
 1271.03        2970.75           2438       46948.00    206076.20
 1271.06        2971.00           2441       41981.00    184134.40
 1271.09        2971.25           2445       35319.00    154756.40
 1271.12        2971.50           2449       29006.00    126971.60
 1271.15        2971.75           2452       24899.00    108924.00
 1271.18        2972.00           2456       18834.00     82312.88
 1271.21        2972.25           2459       13433.00     58655.66
 1271.25        2972.50           2463        6911.00     30138.98
 1271.28        2972.75           2466        3538.00     15412.61
 1271.31        2973.00           2470        1095.00      4755.78
 1271.34        2973.25           2473         612.00      2649.76
 1271.37        2973.50           2477         469.00      2026.29
 1271.40        2973.75           2481         433.00      1869.34
 1271.43        2974.00           2484         440.00      1899.86
 1271.46        2974.25           2488         397.00      1712.39
 1271.49        2974.50           2491         430.00      1856.26
 1271.52        2974.75           2495         393.00      1694.95
 1271.55        2975.00           2498         400.00      1725.47
 1271.58        2975.25           2502         410.00      1769.07
 1271.61        2975.50           2505         403.00      1738.55
 1271.64        2975.75           2509         394.00      1699.31
 1271.67        2976.00           2512         362.00      1559.80
 1271.70        2976.25           2516         348.00      1498.77
 1271.73        2976.50           2520         366.00      1577.24
 1271.76        2976.75           2523         353.00      1520.57
 1271.80        2977.00           2527         331.00      1424.65
 1271.83        2977.25           2530         343.00      1476.97
 1271.86        2977.50           2534         342.00      1472.61
 1271.89        2977.75           2537         352.00      1516.21
 1271.92        2978.00           2541         339.00      1459.53
 1271.95        2978.25           2544         323.00      1389.78
 1271.98        2978.50           2548         321.00      1381.06
 1272.01        2978.75           2552         311.00      1337.46
 1272.04        2979.00           2555         308.00      1324.38
 1272.07        2979.25           2559         312.00      1341.82
 1272.10        2979.50           2562         304.00      1306.95
 1272.13        2979.75           2566         304.00      1306.95
 1272.16        2980.00           2569         296.00      1272.07
 1272.19        2980.25           2573         310.00      1333.10
 1272.22        2980.50           2577         306.00      1315.66
 1272.25        2980.75           2580         302.00      1298.23
 1272.28        2981.00           2584         293.00      1258.99
 1272.32        2981.25           2587         302.00      1298.23
 1272.35        2981.50           2591         295.00      1267.71
 1272.38        2981.75           2594         283.00      1215.39
 1272.41        2982.00           2598         282.00      1211.03
 1272.44        2982.25           2601         269.00      1154.36
 1272.47        2982.50           2605         278.00      1193.60
 1272.50        2982.75           2609         275.00      1180.52
 1272.53        2983.00           2612         275.00      1180.52
 1272.56        2983.25           2616         288.00      1237.19
 1272.59        2983.50           2619         284.00      1219.75
 1272.62        2983.75           2623         274.00      1176.16
 1272.65        2984.00           2626         275.00      1180.52
HS scan finished at 21:12:52
end
