************************************************************
  HS Scan of (1) Internal mercury lamp
************************************************************
Integration time is 0.2294 seconds per sample
dh070718Reading 51.44 .94 3.78pr1000
************************************************************
Dead Time -------------------------  3.4E-08 
Number of Cycles Used -------------  4 
Starting Wavelength (Angstroms) ---  2950 
Final Wavelength (Angstoms) -------  2984 
Wavelength Increment (Angstroms) --  .25 
Filter Wheel #1 Position ---------- (1) Ground quartz diffuser (ND=2.32)
Filter Wheel #2 Position ---------- (1) Neutral Density 0.494



************************************************************
HS scan start time = 01:12:55
Dark Count =  4.7 


Time (GMT)  Wavelength (Ang)  Step Number  Raw Counts  Counts/Second

   73.81        2950.00           2144          76.00       310.81
   74.01        2950.25           2147          80.00       328.25
   74.04        2950.50           2151          72.00       293.38
   74.07        2950.75           2155          74.00       302.10
   74.10        2951.00           2158          82.00       336.97
   74.13        2951.25           2162          83.00       341.33
   74.16        2951.50           2165          78.00       319.53
   74.19        2951.75           2169          85.00       350.05
   74.22        2952.00           2172          84.00       345.69
   74.25        2952.25           2176          73.00       297.74
   74.28        2952.50           2179          76.00       310.81
   74.31        2952.75           2183          79.00       323.89
   74.34        2953.00           2186          77.00       315.17
   74.37        2953.25           2190          73.00       297.74
   74.41        2953.50           2193          80.00       328.25
   74.44        2953.75           2197          85.00       350.05
   74.47        2954.00           2200          82.00       336.97
   74.50        2954.25           2204          81.00       332.61
   74.53        2954.50           2208          84.00       345.69
   74.56        2954.75           2211          93.00       384.92
   74.59        2955.00           2215          93.00       384.92
   74.62        2955.25           2218          89.00       367.49
   74.65        2955.50           2222          90.00       371.84
   74.68        2955.75           2225          94.00       389.28
   74.71        2956.00           2229          91.00       376.20
   74.74        2956.25           2232          87.00       358.77
   74.77        2956.50           2236          98.00       406.72
   74.80        2956.75           2239          86.00       354.41
   74.83        2957.00           2243         130.00       546.22
   74.86        2957.25           2246          94.00       389.28
   74.89        2957.50           2250         101.00       419.80
   74.93        2957.75           2254          99.00       411.08
   74.96        2958.00           2257         102.00       424.16
   74.99        2958.25           2261         126.00       528.78
   75.02        2958.50           2264          96.00       398.00
   75.05        2958.75           2268         102.00       424.16
   75.08        2959.00           2271         110.00       459.03
   75.11        2959.25           2275         146.00       615.97
   75.14        2959.50           2278         103.00       428.52
   75.17        2959.75           2282         113.00       472.11
   75.20        2960.00           2285         127.00       533.14
   75.23        2960.25           2289         124.00       520.06
   75.26        2960.50           2293         116.00       485.19
   75.29        2960.75           2296         131.00       550.58
   75.32        2961.00           2300         183.00       777.27
   75.35        2961.25           2303         440.00      1897.68
   75.38        2961.50           2307        1645.00      7152.13
   75.41        2961.75           2310        2972.00     12940.74
   75.45        2962.00           2314        4688.00     20429.62
   75.48        2962.25           2317        6200.00     27031.37
   75.51        2962.50           2321        8322.00     36301.54
   75.54        2962.75           2324       10056.00     43881.03
   75.57        2963.00           2328       12350.00     53914.35
   75.60        2963.25           2331       13884.00     60627.47
   75.63        2963.50           2335       15909.00     69494.00
   75.66        2963.75           2339       18022.00     78751.56
   75.69        2964.00           2342       19888.00     86931.81
   75.72        2964.25           2346       22071.00     96507.52
   75.75        2964.50           2349       23769.00    103960.10
   75.78        2964.75           2353       25819.00    112962.70
   75.81        2965.00           2356       27228.00    119153.50
   75.84        2965.25           2360       29218.00    127901.60
   75.87        2965.50           2363       30752.00    134648.60
   75.90        2965.75           2367       33089.00    144933.50
   75.93        2966.00           2370       34608.00    151622.30
   75.97        2966.25           2374       36320.00    159164.60
   76.00        2966.50           2378       37103.00    162615.40
   76.03        2966.75           2381       37337.00    163646.90
   76.06        2967.00           2385       37413.00    163981.90
   76.09        2967.25           2388       37337.00    163646.90
   76.12        2967.50           2392       37560.00    164629.90
   76.15        2967.75           2395       38256.00    167698.40
   76.18        2968.00           2399       37068.00    162461.20
   76.21        2968.25           2402       35401.00    155115.40
   76.24        2968.50           2406       33385.00    146236.60
   76.27        2968.75           2409       32022.00    140236.80
   76.30        2969.00           2413       29857.00    130711.70
   76.33        2969.25           2417       27724.00    121333.40
   76.36        2969.50           2420       25896.00    113300.90
   76.39        2969.75           2424       23533.00    102924.10
   76.42        2970.00           2427       21891.00     95717.71
   76.45        2970.25           2431       19740.00     86282.84
   76.49        2970.50           2434       18084.00     79023.29
   76.52        2970.75           2438       15839.00     69187.41
   76.55        2971.00           2441       14113.00     61629.88
   76.58        2971.25           2445       11606.00     50659.55
   76.61        2971.50           2449        9039.00     39435.14
   76.64        2971.75           2452        7417.00     32347.24
   76.67        2972.00           2456        5146.00     22429.04
   76.70        2972.25           2459        3825.00     16662.88
   76.73        2972.50           2463        2033.00      8844.42
   76.76        2972.75           2466         996.00      4321.91
   76.79        2973.00           2470         308.00      1322.20
   76.82        2973.25           2473         188.00       799.06
   76.85        2973.50           2477         140.00       589.81
   76.88        2973.75           2481         137.00       576.73
   76.91        2974.00           2484         152.00       642.12
   76.94        2974.25           2488         125.00       524.42
   76.97        2974.50           2491         144.00       607.25
   77.01        2974.75           2495         136.00       572.37
   77.04        2975.00           2498         133.00       559.30
   77.07        2975.25           2502         111.00       463.39
   77.10        2975.50           2505         161.00       681.36
   77.13        2975.75           2509         125.00       524.42
   77.16        2976.00           2512         127.00       533.14
   77.19        2976.25           2516         125.00       524.42
   77.22        2976.50           2520          99.00       411.08
   77.25        2976.75           2523         104.00       432.87
   77.28        2977.00           2527         106.00       441.59
   77.31        2977.25           2530         103.00       428.52
   77.34        2977.50           2534         108.00       450.31
   77.37        2977.75           2537         105.00       437.23
   77.40        2978.00           2541          96.00       398.00
   77.43        2978.25           2544          92.00       380.56
   77.46        2978.50           2548         100.00       415.44
   77.49        2978.75           2552         112.00       467.75
   77.53        2979.00           2555          91.00       376.20
   77.56        2979.25           2559          99.00       411.08
   77.59        2979.50           2562          86.00       354.41
   77.62        2979.75           2566          88.00       363.13
   77.65        2980.00           2569          90.00       371.84
   77.68        2980.25           2573          93.00       384.92
   77.71        2980.50           2577          84.00       345.69
   77.74        2980.75           2580          85.00       350.05
   77.77        2981.00           2584          84.00       345.69
   77.80        2981.25           2587          88.00       363.13
   77.83        2981.50           2591          89.00       367.49
   77.86        2981.75           2594          88.00       363.13
   77.89        2982.00           2598          88.00       363.13
   77.92        2982.25           2601          89.00       367.49
   77.95        2982.50           2605          81.00       332.61
   77.98        2982.75           2609          77.00       315.17
   78.01        2983.00           2612          83.00       341.33
   78.04        2983.25           2616          80.00       328.25
   78.08        2983.50           2619          88.00       363.13
   78.11        2983.75           2623         107.00       445.95
   78.14        2984.00           2626          77.00       315.17
HS scan finished at 01:18:22
end
************************************************************
  HS Scan of (1) Internal mercury lamp
************************************************************
Integration time is 0.2294 seconds per sample
dh070718Reading 51.44 .94 4.17pr1000
************************************************************
Dead Time -------------------------  3.4E-08 
Number of Cycles Used -------------  4 
Starting Wavelength (Angstroms) ---  2950 
Final Wavelength (Angstoms) -------  2984 
Wavelength Increment (Angstroms) --  .25 
Filter Wheel #1 Position ---------- (1) Ground quartz diffuser (ND=2.32)
Filter Wheel #2 Position ---------- (1) Neutral Density 0.494



************************************************************
HS scan start time = 21:07:26
Dark Count =  14.2 


Time (GMT)  Wavelength (Ang)  Step Number  Raw Counts  Counts/Second

 1268.33        2950.00           2144          69.00       238.89
 1268.52        2950.25           2147          64.00       217.09
 1268.55        2950.50           2151          67.00       230.17
 1268.58        2950.75           2155          66.00       225.81
 1268.61        2951.00           2158          64.00       217.09
 1268.64        2951.25           2162          64.00       217.09
 1268.67        2951.50           2165          74.00       260.68
 1268.70        2951.75           2169          64.00       217.09
 1268.73        2952.00           2172          65.00       221.45
 1268.77        2952.25           2176          69.00       238.89
 1268.80        2952.50           2179          68.00       234.53
 1268.83        2952.75           2183          64.00       217.09
 1268.86        2953.00           2186          68.00       234.53
 1268.89        2953.25           2190          77.00       273.76
 1268.92        2953.50           2193          66.00       225.81
 1268.95        2953.75           2197          71.00       247.60
 1268.98        2954.00           2200          72.00       251.96
 1269.01        2954.25           2204          71.00       247.60
 1269.04        2954.50           2208          73.00       256.32
 1269.07        2954.75           2211          65.00       221.45
 1269.10        2955.00           2215          75.00       265.04
 1269.13        2955.25           2218          78.00       278.12
 1269.16        2955.50           2222          73.00       256.32
 1269.19        2955.75           2225          79.00       282.48
 1269.22        2956.00           2229          77.00       273.76
 1269.25        2956.25           2232          70.00       243.25
 1269.29        2956.50           2236          77.00       273.76
 1269.32        2956.75           2239          79.00       282.48
 1269.35        2957.00           2243          82.00       295.56
 1269.38        2957.25           2246          83.00       299.92
 1269.41        2957.50           2250          84.00       304.28
 1269.44        2957.75           2254          80.00       286.84
 1269.47        2958.00           2257          79.00       282.48
 1269.50        2958.25           2261          80.00       286.84
 1269.53        2958.50           2264          79.00       282.48
 1269.56        2958.75           2268          90.00       330.43
 1269.59        2959.00           2271          90.00       330.43
 1269.62        2959.25           2275          87.00       317.35
 1269.66        2959.50           2278          90.00       330.43
 1269.69        2959.75           2282          84.00       304.28
 1269.72        2960.00           2285          89.00       326.07
 1269.75        2960.25           2289          90.00       330.43
 1269.78        2960.50           2293         101.00       378.38
 1269.81        2960.75           2296          98.00       365.31
 1269.84        2961.00           2300         130.00       504.80
 1269.88        2961.25           2303         220.00       897.15
 1269.91        2961.50           2307         773.00      3308.13
 1269.94        2961.75           2310        1557.00      6726.91
 1269.97        2962.00           2314        3036.00     13178.53
 1270.00        2962.25           2317        4290.00     18650.88
 1270.03        2962.50           2321        5905.00     25701.61
 1270.06        2962.75           2324        7071.00     30794.21
 1270.09        2963.00           2328        8488.00     36985.45
 1270.12        2963.25           2331        9838.00     42886.38
 1270.15        2963.50           2335       11596.00     50574.25
 1270.18        2963.75           2339       13193.00     57561.54
 1270.21        2964.00           2342       14243.00     62157.38
 1270.24        2964.25           2346       15929.00     69539.99
 1270.27        2964.50           2349       17240.00     75283.13
 1270.30        2964.75           2353       18906.00     82584.66
 1270.33        2965.00           2356       19899.00     86938.39
 1270.36        2965.25           2360       21589.00     94351.01
 1270.39        2965.50           2363       22331.00     97606.74
 1270.43        2965.75           2367       23927.00    104612.10
 1270.46        2966.00           2370       25006.00    109350.00
 1270.49        2966.25           2374       26314.00    115095.60
 1270.52        2966.50           2378       26856.00    117477.00
 1270.55        2966.75           2381       26714.00    116853.10
 1270.58        2967.00           2385       26751.00    117015.60
 1270.61        2967.25           2388       26939.00    117841.70
 1270.64        2967.50           2392       26635.00    116505.90
 1270.67        2967.75           2395       26318.00    115113.10
 1270.70        2968.00           2399       25642.00    112143.40
 1270.73        2968.25           2402       25403.00    111093.60
 1270.76        2968.50           2406       23643.00    103365.30
 1270.79        2968.75           2409       22645.00     98984.71
 1270.82        2969.00           2413       21007.00     91797.84
 1270.85        2969.25           2417       19408.00     84785.49
 1270.88        2969.50           2420       18267.00     79783.71
 1270.91        2969.75           2424       16696.00     72899.75
 1270.95        2970.00           2427       15278.00     66688.97
 1270.98        2970.25           2431       13971.00     60966.71
 1271.01        2970.50           2434       12722.00     55500.45
 1271.04        2970.75           2438       11266.00     49130.83
 1271.07        2971.00           2441        9935.00     43310.46
 1271.10        2971.25           2445        8254.00     35962.86
 1271.13        2971.50           2449        6532.00     28439.87
 1271.16        2971.75           2452        5371.00     23369.92
 1271.19        2972.00           2456        3981.00     17302.24
 1271.22        2972.25           2459        2912.00     12637.51
 1271.25        2972.50           2463        1534.00      6626.60
 1271.28        2972.75           2466         776.00      3321.21
 1271.31        2973.00           2470         239.00       979.98
 1271.34        2973.25           2473         135.00       526.60
 1271.37        2973.50           2477         132.00       513.52
 1271.40        2973.75           2481         115.00       439.41
 1271.43        2974.00           2484         104.00       391.46
 1271.47        2974.25           2488         125.00       483.01
 1271.50        2974.50           2491         107.00       404.54
 1271.53        2974.75           2495         110.00       417.62
 1271.56        2975.00           2498         102.00       382.74
 1271.59        2975.25           2502          97.00       360.95
 1271.62        2975.50           2505          99.00       369.66
 1271.65        2975.75           2509          93.00       343.51
 1271.68        2976.00           2512          91.00       334.79
 1271.71        2976.25           2516          87.00       317.35
 1271.74        2976.50           2520          88.00       321.71
 1271.77        2976.75           2523          88.00       321.71
 1271.80        2977.00           2527          81.00       291.20
 1271.83        2977.25           2530          95.00       352.23
 1271.86        2977.50           2534          80.00       286.84
 1271.89        2977.75           2537          82.00       295.56
 1271.92        2978.00           2541          91.00       334.79
 1271.95        2978.25           2544          77.00       273.76
 1271.99        2978.50           2548          84.00       304.28
 1272.02        2978.75           2552          82.00       295.56
 1272.05        2979.00           2555          77.00       273.76
 1272.08        2979.25           2559          75.00       265.04
 1272.11        2979.50           2562          67.00       230.17
 1272.14        2979.75           2566          72.00       251.96
 1272.17        2980.00           2569          68.00       234.53
 1272.20        2980.25           2573          79.00       282.48
 1272.23        2980.50           2577          68.00       234.53
 1272.26        2980.75           2580          66.00       225.81
 1272.29        2981.00           2584          72.00       251.96
 1272.32        2981.25           2587          73.00       256.32
 1272.35        2981.50           2591          69.00       238.89
 1272.38        2981.75           2594          82.00       295.56
 1272.41        2982.00           2598          71.00       247.60
 1272.44        2982.25           2601          81.00       291.20
 1272.47        2982.50           2605          72.00       251.96
 1272.51        2982.75           2609          65.00       221.45
 1272.54        2983.00           2612          76.00       269.40
 1272.57        2983.25           2616          69.00       238.89
 1272.60        2983.50           2619          62.00       208.37
 1272.63        2983.75           2623          83.00       299.92
 1272.66        2984.00           2626          69.00       238.89
HS scan finished at 21:12:53
end
