************************************************************
  HS Scan of (1) Internal mercury lamp
************************************************************
Integration time is 0.2294 seconds per sample
dh040718Reading 51.44 .94 3.64pr1000
************************************************************
Dead Time -------------------------  3.4E-08 
Number of Cycles Used -------------  4 
Starting Wavelength (Angstroms) ---  2950 
Final Wavelength (Angstoms) -------  2984 
Wavelength Increment (Angstroms) --  .25 
Filter Wheel #1 Position ---------- (1) Ground quartz diffuser (ND=2.32)
Filter Wheel #2 Position ---------- (1) Neutral Density 0.494



************************************************************
HS scan start time = 02:40:05
Dark Count =  3 


Time (GMT)  Wavelength (Ang)  Step Number  Raw Counts  Counts/Second

  160.98        2950.00           2144          67.00       278.99
  161.17        2950.25           2147          68.00       283.35
  161.20        2950.50           2151          73.00       305.15
  161.23        2950.75           2155          70.00       292.07
  161.27        2951.00           2158          69.00       287.71
  161.30        2951.25           2162          76.00       318.22
  161.33        2951.50           2165          76.00       318.22
  161.36        2951.75           2169          76.00       318.22
  161.39        2952.00           2172          73.00       305.15
  161.42        2952.25           2176          69.00       287.71
  161.45        2952.50           2179          72.00       300.79
  161.48        2952.75           2183          81.00       340.02
  161.51        2953.00           2186          75.00       313.87
  161.54        2953.25           2190          71.00       296.43
  161.57        2953.50           2193          77.00       322.58
  161.60        2953.75           2197          75.00       313.87
  161.63        2954.00           2200          81.00       340.02
  161.66        2954.25           2204          76.00       318.22
  161.69        2954.50           2208          73.00       305.15
  161.72        2954.75           2211          87.00       366.18
  161.75        2955.00           2215          71.00       296.43
  161.78        2955.25           2218          76.00       318.22
  161.82        2955.50           2222          82.00       344.38
  161.85        2955.75           2225          80.00       335.66
  161.88        2956.00           2229          81.00       340.02
  161.91        2956.25           2232          82.00       344.38
  161.94        2956.50           2236          93.00       392.33
  161.97        2956.75           2239          89.00       374.90
  162.00        2957.00           2243          88.00       370.54
  162.03        2957.25           2246          86.00       361.82
  162.06        2957.50           2250          91.00       383.61
  162.09        2957.75           2254          93.00       392.33
  162.12        2958.00           2257         110.00       466.44
  162.15        2958.25           2261          94.00       396.69
  162.18        2958.50           2264          95.00       401.05
  162.21        2958.75           2268          96.00       405.41
  162.24        2959.00           2271         139.00       592.86
  162.27        2959.25           2275         123.00       523.11
  162.30        2959.50           2278         100.00       422.85
  162.34        2959.75           2282         101.00       427.21
  162.37        2960.00           2285         130.00       553.63
  162.40        2960.25           2289         141.00       601.58
  162.43        2960.50           2293         136.00       579.78
  162.46        2960.75           2296         122.00       518.75
  162.49        2961.00           2300         179.00       767.24
  162.52        2961.25           2303         435.00      1883.29
  162.55        2961.50           2307        1627.00      7081.04
  162.58        2961.75           2310        2779.00     12106.12
  162.61        2962.00           2314        4524.00     19721.15
  162.64        2962.25           2317        5836.00     25449.21
  162.67        2962.50           2321        7701.00     33595.46
  162.70        2962.75           2324        9325.00     40692.71
  162.73        2963.00           2328       11165.00     48738.07
  162.76        2963.25           2331       12568.00     54875.62
  162.79        2963.50           2335       14510.00     63375.30
  162.82        2963.75           2339       16375.00     71542.60
  162.86        2964.00           2342       18092.00     79065.80
  162.89        2964.25           2346       20104.00     87886.47
  162.92        2964.50           2349       21454.00     93807.88
  162.95        2964.75           2353       23253.00    101702.40
  162.98        2965.00           2356       24597.00    107603.10
  163.01        2965.25           2360       26382.00    115443.50
  163.04        2965.50           2363       28012.00    122606.80
  163.07        2965.75           2367       29986.00    131286.60
  163.10        2966.00           2370       31492.00    137911.90
  163.13        2966.25           2374       32720.00    143316.50
  163.16        2966.50           2378       33531.00    146886.90
  163.19        2966.75           2381       34041.00    149132.60
  163.22        2967.00           2385       34001.00    148956.50
  163.25        2967.25           2388       34132.00    149533.40
  163.28        2967.50           2392       33869.00    148375.20
  163.31        2967.75           2395       33605.00    147212.80
  163.34        2968.00           2399       32262.00    141300.60
  163.38        2968.25           2402       30963.00    135584.40
  163.41        2968.50           2406       29404.00    128727.00
  163.44        2968.75           2409       28024.00    122659.60
  163.47        2969.00           2413       26003.00    113778.50
  163.50        2969.25           2417       24117.00    105495.40
  163.53        2969.50           2420       22509.00     98437.02
  163.56        2969.75           2424       20649.00     90276.68
  163.59        2970.00           2427       19182.00     83843.73
  163.62        2970.25           2431       17186.00     75095.60
  163.65        2970.50           2434       15762.00     68857.62
  163.68        2970.75           2438       13978.00     61046.37
  163.71        2971.00           2441       12382.00     54061.79
  163.74        2971.25           2445       10148.00     44290.71
  163.77        2971.50           2449        7866.00     34316.39
  163.80        2971.75           2452        6253.00     27270.26
  163.83        2972.00           2456        4344.00     18935.47
  163.86        2972.25           2459        3045.00     13266.66
  163.90        2972.50           2463        1619.00      7046.15
  163.93        2972.75           2466         760.00      3300.28
  163.96        2973.00           2470         251.00      1081.12
  163.99        2973.25           2473         161.00       688.77
  164.02        2973.50           2477         144.00       614.66
  164.05        2973.75           2481         116.00       492.60
  164.08        2974.00           2484         114.00       483.88
  164.11        2974.25           2488         128.00       544.91
  164.14        2974.50           2491         123.00       523.11
  164.17        2974.75           2495         142.00       605.94
  164.20        2975.00           2498         129.00       549.27
  164.23        2975.25           2502         110.00       466.44
  164.26        2975.50           2505         104.00       440.29
  164.29        2975.75           2509         108.00       457.72
  164.32        2976.00           2512         101.00       427.21
  164.35        2976.25           2516         110.00       466.44
  164.38        2976.50           2520         101.00       427.21
  164.42        2976.75           2523          98.00       414.13
  164.45        2977.00           2527         117.00       496.96
  164.48        2977.25           2530          97.00       409.77
  164.51        2977.50           2534          83.00       348.74
  164.54        2977.75           2537          87.00       366.18
  164.57        2978.00           2541          83.00       348.74
  164.60        2978.25           2544          87.00       366.18
  164.63        2978.50           2548          92.00       387.97
  164.66        2978.75           2552          86.00       361.82
  164.69        2979.00           2555          84.00       353.10
  164.72        2979.25           2559          87.00       366.18
  164.75        2979.50           2562          75.00       313.87
  164.78        2979.75           2566          83.00       348.74
  164.81        2980.00           2569          80.00       335.66
  164.84        2980.25           2573          85.00       357.46
  164.87        2980.50           2577          78.00       326.94
  164.90        2980.75           2580          78.00       326.94
  164.94        2981.00           2584          73.00       305.15
  164.97        2981.25           2587          81.00       340.02
  165.00        2981.50           2591          83.00       348.74
  165.03        2981.75           2594          78.00       326.94
  165.06        2982.00           2598          78.00       326.94
  165.09        2982.25           2601          68.00       283.35
  165.12        2982.50           2605          77.00       322.58
  165.15        2982.75           2609          75.00       313.87
  165.18        2983.00           2612          76.00       318.22
  165.21        2983.25           2616          68.00       283.35
  165.24        2983.50           2619          74.00       309.51
  165.27        2983.75           2623          69.00       287.71
  165.30        2984.00           2626          75.00       313.87
HS scan finished at 02:45:32
end
************************************************************
  HS Scan of (1) Internal mercury lamp
************************************************************
Integration time is 0.2294 seconds per sample
dh040718Reading 51.44 .94 4.01pr1000
************************************************************
Dead Time -------------------------  3.4E-08 
Number of Cycles Used -------------  4 
Starting Wavelength (Angstroms) ---  2950 
Final Wavelength (Angstoms) -------  2984 
Wavelength Increment (Angstroms) --  .25 
Filter Wheel #1 Position ---------- (1) Ground quartz diffuser (ND=2.32)
Filter Wheel #2 Position ---------- (1) Neutral Density 0.494



************************************************************
HS scan start time = 21:07:25
Dark Count =  9.100001 


Time (GMT)  Wavelength (Ang)  Step Number  Raw Counts  Counts/Second

 1268.31        2950.00           2144          51.00       182.65
 1268.51        2950.25           2147          54.00       195.73
 1268.54        2950.50           2151          52.00       187.01
 1268.57        2950.75           2155          55.00       200.09
 1268.60        2951.00           2158          55.00       200.09
 1268.63        2951.25           2162          50.00       178.29
 1268.66        2951.50           2165          57.00       208.81
 1268.69        2951.75           2169          45.00       156.50
 1268.72        2952.00           2172          53.00       191.37
 1268.75        2952.25           2176          59.00       217.53
 1268.78        2952.50           2179          55.00       200.09
 1268.81        2952.75           2183          57.00       208.81
 1268.84        2953.00           2186          50.00       178.29
 1268.87        2953.25           2190          59.00       217.53
 1268.90        2953.50           2193          65.00       243.68
 1268.93        2953.75           2197          59.00       217.53
 1268.97        2954.00           2200          54.00       195.73
 1269.00        2954.25           2204          61.00       226.24
 1269.03        2954.50           2208          59.00       217.53
 1269.06        2954.75           2211          59.00       217.53
 1269.09        2955.00           2215          62.00       230.60
 1269.12        2955.25           2218          59.00       217.53
 1269.15        2955.50           2222          55.00       200.09
 1269.18        2955.75           2225          62.00       230.60
 1269.21        2956.00           2229          60.00       221.88
 1269.24        2956.25           2232          54.00       195.73
 1269.27        2956.50           2236          69.00       261.12
 1269.30        2956.75           2239          65.00       243.68
 1269.33        2957.00           2243          63.00       234.96
 1269.36        2957.25           2246          62.00       230.60
 1269.39        2957.50           2250          70.00       265.48
 1269.42        2957.75           2254          69.00       261.12
 1269.45        2958.00           2257          72.00       274.20
 1269.49        2958.25           2261          69.00       261.12
 1269.52        2958.50           2264          73.00       278.56
 1269.55        2958.75           2268          66.00       248.04
 1269.58        2959.00           2271          72.00       274.20
 1269.61        2959.25           2275          70.00       265.48
 1269.64        2959.50           2278          69.00       261.12
 1269.67        2959.75           2282          74.00       282.91
 1269.70        2960.00           2285          68.00       256.76
 1269.73        2960.25           2289          77.00       295.99
 1269.76        2960.50           2293          76.00       291.63
 1269.79        2960.75           2296          88.00       343.94
 1269.82        2961.00           2300         135.00       548.83
 1269.85        2961.25           2303         298.00      1259.43
 1269.88        2961.50           2307         971.00      4193.71
 1269.91        2961.75           2310        1695.00      7351.01
 1269.94        2962.00           2314        2874.00     12493.97
 1269.97        2962.25           2317        3711.00     16146.18
 1270.00        2962.50           2321        4943.00     21523.60
 1270.04        2962.75           2324        5827.00     25383.28
 1270.07        2963.00           2328        7059.00     30764.07
 1270.10        2963.25           2331        7900.00     34438.30
 1270.13        2963.50           2335        9346.00     40757.84
 1270.16        2963.75           2339       10537.00     45964.98
 1270.20        2964.00           2342       11357.00     49551.16
 1270.23        2964.25           2346       12761.00     55693.42
 1270.26        2964.50           2349       13698.00     59794.07
 1270.29        2964.75           2353       14976.00     65388.89
 1270.32        2965.00           2356       15935.00     69588.61
 1270.35        2965.25           2360       17031.00     74389.75
 1270.38        2965.50           2363       18061.00     78903.19
 1270.41        2965.75           2367       18962.00     82852.52
 1270.44        2966.00           2370       20134.00     87991.28
 1270.47        2966.25           2374       21116.00     92298.34
 1270.50        2966.50           2378       21582.00     94342.68
 1270.53        2966.75           2381       21817.00     95373.72
 1270.56        2967.00           2385       21703.00     94873.55
 1270.59        2967.25           2388       21696.00     94842.84
 1270.62        2967.50           2392       21764.00     95141.18
 1270.65        2967.75           2395       21639.00     94592.75
 1270.68        2968.00           2399       20956.00     91596.50
 1270.71        2968.25           2402       20311.00     88767.52
 1270.75        2968.50           2406       19058.00     83273.37
 1270.78        2968.75           2409       17944.00     78390.44
 1270.81        2969.00           2413       16763.00     73215.60
 1270.84        2969.25           2417       15538.00     67849.90
 1270.87        2969.50           2420       14706.00     64206.72
 1270.90        2969.75           2424       13241.00     57793.93
 1270.93        2970.00           2427       12237.00     53400.71
 1270.96        2970.25           2431       10837.00     47276.90
 1270.99        2970.50           2434        9878.00     43083.56
 1271.02        2970.75           2438        8520.00     37147.59
 1271.05        2971.00           2441        7554.00     32926.55
 1271.08        2971.25           2445        6493.00     28291.81
 1271.11        2971.50           2449        5255.00     22885.72
 1271.14        2971.75           2452        4233.00     18424.36
 1271.17        2972.00           2456        2947.00     12812.47
 1271.20        2972.25           2459        2055.00      8921.19
 1271.23        2972.50           2463        1039.00      4490.22
 1271.27        2972.75           2466         456.00      1948.25
 1271.30        2973.00           2470         148.00       605.51
 1271.33        2973.25           2473         101.00       400.62
 1271.36        2973.50           2477          86.00       335.23
 1271.39        2973.75           2481          92.00       361.38
 1271.42        2974.00           2484          79.00       304.71
 1271.45        2974.25           2488          77.00       295.99
 1271.48        2974.50           2491          78.00       300.35
 1271.51        2974.75           2495          76.00       291.63
 1271.54        2975.00           2498          76.00       291.63
 1271.57        2975.25           2502          79.00       304.71
 1271.60        2975.50           2505          65.00       243.68
 1271.63        2975.75           2509          70.00       265.48
 1271.66        2976.00           2512          80.00       309.07
 1271.69        2976.25           2516          69.00       261.12
 1271.72        2976.50           2520          61.00       226.24
 1271.75        2976.75           2523          71.00       269.84
 1271.79        2977.00           2527          58.00       213.17
 1271.82        2977.25           2530          61.00       226.24
 1271.85        2977.50           2534          63.00       234.96
 1271.88        2977.75           2537          61.00       226.24
 1271.91        2978.00           2541          72.00       274.20
 1271.94        2978.25           2544          63.00       234.96
 1271.97        2978.50           2548          67.00       252.40
 1272.00        2978.75           2552          60.00       221.88
 1272.03        2979.00           2555          52.00       187.01
 1272.06        2979.25           2559          61.00       226.24
 1272.09        2979.50           2562          63.00       234.96
 1272.12        2979.75           2566          57.00       208.81
 1272.15        2980.00           2569          58.00       213.17
 1272.18        2980.25           2573          61.00       226.24
 1272.21        2980.50           2577          58.00       213.17
 1272.24        2980.75           2580          57.00       208.81
 1272.27        2981.00           2584          58.00       213.17
 1272.31        2981.25           2587          54.00       195.73
 1272.34        2981.50           2591          55.00       200.09
 1272.37        2981.75           2594          52.00       187.01
 1272.40        2982.00           2598          57.00       208.81
 1272.43        2982.25           2601          53.00       191.37
 1272.46        2982.50           2605          49.00       173.93
 1272.49        2982.75           2609          60.00       221.88
 1272.52        2983.00           2612          52.00       187.01
 1272.55        2983.25           2616          50.00       178.29
 1272.58        2983.50           2619          52.00       187.01
 1272.61        2983.75           2623          58.00       213.17
 1272.65        2984.00           2626          51.00       182.65
HS scan finished at 21:12:52
end
