************************************************************
  HS Scan of (1) Internal mercury lamp
************************************************************
Integration time is 0.2294 seconds per sample
dh290617Reading 51.44 .94 3.39pr1000
************************************************************
Dead Time -------------------------  3.4E-08 
Number of Cycles Used -------------  4 
Starting Wavelength (Angstroms) ---  2950 
Final Wavelength (Angstoms) -------  2984 
Wavelength Increment (Angstroms) --  .25 
Filter Wheel #1 Position ---------- (1) Ground quartz diffuser (ND=2.32)
Filter Wheel #2 Position ---------- (1) Neutral Density 0.494



************************************************************
HS scan start time = 01:11:19
Dark Count =  1.9 


Time (GMT)  Wavelength (Ang)  Step Number  Raw Counts  Counts/Second

   72.22        2950.00           2144         275.00      1190.55
   72.41        2950.25           2147         294.00      1273.38
   72.44        2950.50           2151         276.00      1194.90
   72.47        2950.75           2155         277.00      1199.26
   72.51        2951.00           2158         277.00      1199.26
   72.54        2951.25           2162         288.00      1247.22
   72.57        2951.50           2165         291.00      1260.30
   72.60        2951.75           2169         290.00      1255.94
   72.63        2952.00           2172         288.00      1247.22
   72.66        2952.25           2176         289.00      1251.58
   72.69        2952.50           2179         285.00      1234.14
   72.72        2952.75           2183         297.00      1286.46
   72.75        2953.00           2186         309.00      1338.77
   72.78        2953.25           2190         313.00      1356.21
   72.81        2953.50           2193         299.00      1295.17
   72.84        2953.75           2197         305.00      1321.33
   72.87        2954.00           2200         314.00      1360.57
   72.90        2954.25           2204         318.00      1378.01
   72.93        2954.50           2208         313.00      1356.21
   72.96        2954.75           2211         304.00      1316.97
   72.99        2955.00           2215         317.00      1373.65
   73.03        2955.25           2218         302.00      1308.25
   73.06        2955.50           2222         312.00      1351.85
   73.09        2955.75           2225         303.00      1312.61
   73.12        2956.00           2229         314.00      1360.57
   73.15        2956.25           2232         316.00      1369.29
   73.18        2956.50           2236         325.00      1408.52
   73.21        2956.75           2239         348.00      1508.80
   73.24        2957.00           2243         338.00      1465.20
   73.27        2957.25           2246         340.00      1473.92
   73.30        2957.50           2250         343.00      1487.00
   73.33        2957.75           2254         351.00      1521.87
   73.36        2958.00           2257         364.00      1578.55
   73.39        2958.25           2261         363.00      1574.19
   73.42        2958.50           2264         360.00      1561.11
   73.45        2958.75           2268         389.00      1687.54
   73.48        2959.00           2271         427.00      1853.21
   73.51        2959.25           2275         395.00      1713.70
   73.55        2959.50           2278         405.00      1757.30
   73.58        2959.75           2282         402.00      1744.22
   73.61        2960.00           2285         389.00      1687.54
   73.64        2960.25           2289         424.00      1840.13
   73.67        2960.50           2293         423.00      1835.77
   73.70        2960.75           2296         439.00      1905.53
   73.73        2961.00           2300         536.00      2328.43
   73.76        2961.25           2303        1036.00      4508.54
   73.79        2961.50           2307        3995.00     17417.03
   73.82        2961.75           2310        7499.00     32717.72
   73.85        2962.00           2314       12764.00     55738.05
   73.88        2962.25           2317       17617.00     76988.98
   73.91        2962.50           2321       24093.00    105394.90
   73.94        2962.75           2324       29463.00    128991.30
   73.97        2963.00           2328       36377.00    159428.10
   74.00        2963.25           2331       41147.00    180463.50
   74.03        2963.50           2335       47406.00    208111.20
   74.07        2963.75           2339       53450.00    234858.80
   74.10        2964.00           2342       59056.00    259711.70
   74.13        2964.25           2346       65899.00    290105.90
   74.16        2964.50           2349       71116.00    313320.50
   74.19        2964.75           2353       77769.00    342978.50
   74.22        2965.00           2356       81965.00    361714.60
   74.25        2965.25           2360       87800.00    387809.20
   74.28        2965.50           2363       92897.00    410641.60
   74.31        2965.75           2367       99078.00    438377.80
   74.34        2966.00           2370      104723.00    463755.00
   74.37        2966.25           2374      110260.00    488689.70
   74.40        2966.50           2378      113454.00    503092.50
   74.43        2966.75           2381      114522.00    507911.70
   74.46        2967.00           2385      114736.00    508877.50
   74.49        2967.25           2388      114897.00    509604.20
   74.52        2967.50           2392      114803.00    509179.90
   74.55        2967.75           2395      113732.00    504346.70
   74.59        2968.00           2399      111543.00    494473.40
   74.62        2968.25           2402      107485.00    476187.70
   74.65        2968.50           2406      102023.00    451611.60
   74.68        2968.75           2409       97638.00    431911.40
   74.71        2969.00           2413       90842.00    401431.80
   74.74        2969.25           2417       85140.00    375907.70
   74.77        2969.50           2420       80003.00    352950.90
   74.80        2969.75           2424       73167.00    322457.10
   74.83        2970.00           2427       67956.00    299254.80
   74.86        2970.25           2431       61189.00    269179.00
   74.89        2970.50           2434       56515.00    248441.60
   74.92        2970.75           2438       49175.00    215934.80
   74.95        2971.00           2441       44189.00    193894.40
   74.98        2971.25           2445       36073.00    158088.50
   75.01        2971.50           2449       28456.00    124563.50
   75.04        2971.75           2452       23717.00    103744.10
   75.07        2972.00           2456       17016.00     74355.57
   75.11        2972.25           2459       12501.00     54587.27
   75.14        2972.50           2463        7161.00     31241.10
   75.17        2972.75           2466        3668.00     15989.95
   75.20        2973.00           2470        1179.00      5132.11
   75.23        2973.25           2473         594.00      2581.31
   75.26        2973.50           2477         492.00      2136.60
   75.29        2973.75           2481         457.00      1984.00
   75.32        2974.00           2484         426.00      1848.85
   75.35        2974.25           2488         418.00      1813.97
   75.38        2974.50           2491         428.00      1857.57
   75.41        2974.75           2495         417.00      1809.61
   75.44        2975.00           2498         417.00      1809.61
   75.47        2975.25           2502         399.00      1731.14
   75.50        2975.50           2505         374.00      1622.15
   75.53        2975.75           2509         464.00      2014.52
   75.56        2976.00           2512         372.00      1613.43
   75.59        2976.25           2516         407.00      1766.02
   75.63        2976.50           2520         373.00      1617.79
   75.66        2976.75           2523         353.00      1530.59
   75.69        2977.00           2527         371.00      1609.07
   75.72        2977.25           2530         346.00      1500.08
   75.75        2977.50           2534         350.00      1517.52
   75.78        2977.75           2537         338.00      1465.20
   75.81        2978.00           2541         345.00      1495.72
   75.84        2978.25           2544         326.00      1412.88
   75.87        2978.50           2548         319.00      1382.37
   75.90        2978.75           2552         324.00      1404.16
   75.93        2979.00           2555         339.00      1469.56
   75.96        2979.25           2559         319.00      1382.37
   75.99        2979.50           2562         325.00      1408.52
   76.02        2979.75           2566         311.00      1347.49
   76.05        2980.00           2569         306.00      1325.69
   76.08        2980.25           2573         304.00      1316.97
   76.11        2980.50           2577         295.00      1277.74
   76.14        2980.75           2580         321.00      1391.09
   76.18        2981.00           2584         300.00      1299.53
   76.21        2981.25           2587         308.00      1334.41
   76.24        2981.50           2591         306.00      1325.69
   76.27        2981.75           2594         300.00      1299.53
   76.30        2982.00           2598         305.00      1321.33
   76.33        2982.25           2601         304.00      1316.97
   76.36        2982.50           2605         302.00      1308.25
   76.39        2982.75           2609         305.00      1321.33
   76.42        2983.00           2612         316.00      1369.29
   76.45        2983.25           2616         291.00      1260.30
   76.48        2983.50           2619         281.00      1216.70
   76.51        2983.75           2623         301.00      1303.89
   76.54        2984.00           2626         304.00      1316.97
HS scan finished at 01:16:46
end
************************************************************
  HS Scan of (1) Internal mercury lamp
************************************************************
Integration time is 0.2294 seconds per sample
dh290617Reading 51.44 .94 3.52pr1000
************************************************************
Dead Time -------------------------  3.4E-08 
Number of Cycles Used -------------  4 
Starting Wavelength (Angstroms) ---  2950 
Final Wavelength (Angstoms) -------  2984 
Wavelength Increment (Angstroms) --  .25 
Filter Wheel #1 Position ---------- (1) Ground quartz diffuser (ND=2.32)
Filter Wheel #2 Position ---------- (1) Neutral Density 0.494



************************************************************
HS scan start time = 21:07:25
Dark Count =  2.9 


Time (GMT)  Wavelength (Ang)  Step Number  Raw Counts  Counts/Second

 1268.31        2950.00           2144         345.00      1491.36
 1268.50        2950.25           2147         341.00      1473.92
 1268.53        2950.50           2151         358.00      1548.03
 1268.56        2950.75           2155         367.00      1587.27
 1268.60        2951.00           2158         334.00      1443.40
 1268.63        2951.25           2162         344.00      1487.00
 1268.66        2951.50           2165         361.00      1561.11
 1268.69        2951.75           2169         375.00      1622.15
 1268.72        2952.00           2172         373.00      1613.43
 1268.75        2952.25           2176         402.00      1739.86
 1268.78        2952.50           2179         370.00      1600.35
 1268.81        2952.75           2183         392.00      1696.26
 1268.84        2953.00           2186         364.00      1574.19
 1268.87        2953.25           2190         401.00      1735.50
 1268.90        2953.50           2193         374.00      1617.79
 1268.93        2953.75           2197         384.00      1661.38
 1268.96        2954.00           2200         366.00      1582.91
 1268.99        2954.25           2204         389.00      1683.18
 1269.02        2954.50           2208         385.00      1665.74
 1269.05        2954.75           2211         406.00      1757.30
 1269.08        2955.00           2215         404.00      1748.58
 1269.12        2955.25           2218         415.00      1796.54
 1269.15        2955.50           2222         392.00      1696.26
 1269.18        2955.75           2225         398.00      1722.42
 1269.21        2956.00           2229         430.00      1861.93
 1269.24        2956.25           2232         403.00      1744.22
 1269.27        2956.50           2236         407.00      1761.66
 1269.30        2956.75           2239         431.00      1866.29
 1269.33        2957.00           2243         405.00      1752.94
 1269.36        2957.25           2246         423.00      1831.41
 1269.39        2957.50           2250         444.00      1922.97
 1269.42        2957.75           2254         441.00      1909.89
 1269.45        2958.00           2257         421.00      1822.69
 1269.48        2958.25           2261         439.00      1901.17
 1269.51        2958.50           2264         444.00      1922.97
 1269.54        2958.75           2268         444.00      1922.97
 1269.57        2959.00           2271         449.00      1944.77
 1269.60        2959.25           2275         464.00      2010.16
 1269.63        2959.50           2278         467.00      2023.24
 1269.67        2959.75           2282         459.00      1988.36
 1269.70        2960.00           2285         459.00      1988.36
 1269.73        2960.25           2289         489.00      2119.16
 1269.76        2960.50           2293         522.00      2263.03
 1269.79        2960.75           2296         527.00      2284.83
 1269.82        2961.00           2300         578.00      2507.19
 1269.85        2961.25           2303         693.00      3008.59
 1269.88        2961.50           2307        2253.00      9811.90
 1269.91        2961.75           2310        5791.00     25253.15
 1269.94        2962.00           2314       12459.00     54399.13
 1269.97        2962.25           2317       17706.00     77374.60
 1270.00        2962.50           2321       24941.00    109114.20
 1270.03        2962.75           2324       31346.00    137270.00
 1270.06        2963.00           2328       40046.00    175601.10
 1270.09        2963.25           2331       46794.00    205401.10
 1270.12        2963.50           2335       55711.00    244872.90
 1270.16        2963.75           2339       64832.00    285358.10
 1270.19        2964.00           2342       71351.00    314362.60
 1270.22        2964.25           2346       80235.00    353982.40
 1270.25        2964.50           2349       86260.00    380913.20
 1270.28        2964.75           2353       94153.00    416269.00
 1270.31        2965.00           2356       99960.00    442335.50
 1270.34        2965.25           2360      107324.00    475458.20
 1270.37        2965.50           2363      114086.00    505939.60
 1270.40        2965.75           2367      122307.00    543083.80
 1270.43        2966.00           2370      127653.00    567289.00
 1270.46        2966.25           2374      132908.00    591121.50
 1270.49        2966.50           2378      138886.00    618280.50
 1270.52        2966.75           2381      140132.00    623947.60
 1270.55        2967.00           2385      139594.00    621500.40
 1270.58        2967.25           2388      140523.00    625726.50
 1270.61        2967.50           2392      140226.00    624375.30
 1270.64        2967.75           2395      139251.00    619940.30
 1270.68        2968.00           2399      136552.00    607670.70
 1270.71        2968.25           2402      131964.00    586837.40
 1270.74        2968.50           2406      124594.00    553433.80
 1270.77        2968.75           2409      118452.00    525654.30
 1270.80        2969.00           2413      110442.00    489505.40
 1270.83        2969.25           2417      102683.00    454574.70
 1270.86        2969.50           2420       96240.00    425631.80
 1270.89        2969.75           2424       89729.00    396441.70
 1270.92        2970.00           2427       83911.00    370407.60
 1270.95        2970.25           2431       75229.00    331644.00
 1270.98        2970.50           2434       68729.00    302689.90
 1271.01        2970.75           2438       58868.00    258873.20
 1271.04        2971.00           2441       52634.00    231240.30
 1271.07        2971.25           2445       44389.00    194773.40
 1271.10        2971.50           2449       36972.00    162046.00
 1271.13        2971.75           2452       30654.00    134225.40
 1271.16        2972.00           2456       22219.00     97164.84
 1271.19        2972.25           2459       16366.00     71503.62
 1271.23        2972.50           2463        9087.00     39652.81
 1271.26        2972.75           2466        4801.00     20930.76
 1271.29        2973.00           2470        1561.00      6793.64
 1271.32        2973.25           2473         782.00      3396.64
 1271.35        2973.50           2477         579.00      2511.55
 1271.38        2973.75           2481         547.00      2372.03
 1271.41        2974.00           2484         556.00      2411.27
 1271.44        2974.25           2488         493.00      2136.60
 1271.47        2974.50           2491         519.00      2249.95
 1271.50        2974.75           2495         475.00      2058.12
 1271.53        2975.00           2498         456.00      1975.29
 1271.56        2975.25           2502         431.00      1866.29
 1271.59        2975.50           2505         430.00      1861.93
 1271.62        2975.75           2509         424.00      1835.77
 1271.65        2976.00           2512         410.00      1774.74
 1271.68        2976.25           2516         410.00      1774.74
 1271.71        2976.50           2520         407.00      1761.66
 1271.75        2976.75           2523         390.00      1687.54
 1271.78        2977.00           2527         404.00      1748.58
 1271.81        2977.25           2530         398.00      1722.42
 1271.84        2977.50           2534         367.00      1587.27
 1271.87        2977.75           2537         364.00      1574.19
 1271.90        2978.00           2541         401.00      1735.50
 1271.93        2978.25           2544         380.00      1643.95
 1271.96        2978.50           2548         388.00      1678.82
 1271.99        2978.75           2552         352.00      1521.87
 1272.02        2979.00           2555         358.00      1548.03
 1272.05        2979.25           2559         355.00      1534.95
 1272.08        2979.50           2562         349.00      1508.80
 1272.11        2979.75           2566         359.00      1552.39
 1272.14        2980.00           2569         351.00      1517.52
 1272.17        2980.25           2573         346.00      1495.72
 1272.20        2980.50           2577         320.00      1382.37
 1272.24        2980.75           2580         331.00      1430.32
 1272.27        2981.00           2584         323.00      1395.45
 1272.30        2981.25           2587         338.00      1460.84
 1272.33        2981.50           2591         308.00      1330.05
 1272.36        2981.75           2594         338.00      1460.84
 1272.39        2982.00           2598         312.00      1347.49
 1272.42        2982.25           2601         314.00      1356.21
 1272.45        2982.50           2605         327.00      1412.88
 1272.48        2982.75           2609         334.00      1443.40
 1272.51        2983.00           2612         306.00      1321.33
 1272.54        2983.25           2616         313.00      1351.85
 1272.57        2983.50           2619         309.00      1334.41
 1272.60        2983.75           2623         312.00      1347.49
 1272.63        2984.00           2626         305.00      1316.97
HS scan finished at 21:12:51
end
