************************************************************
  HS Scan of (1) Internal mercury lamp
************************************************************
Integration time is 0.2294 seconds per sample
dh010717Reading 51.44 .94 3.43pr1000
************************************************************
Dead Time -------------------------  3.4E-08 
Number of Cycles Used -------------  4 
Starting Wavelength (Angstroms) ---  2950 
Final Wavelength (Angstoms) -------  2984 
Wavelength Increment (Angstroms) --  .25 
Filter Wheel #1 Position ---------- (1) Ground quartz diffuser (ND=2.32)
Filter Wheel #2 Position ---------- (1) Neutral Density 0.494



************************************************************
HS scan start time = 01:16:31
Dark Count =  1.7 


Time (GMT)  Wavelength (Ang)  Step Number  Raw Counts  Counts/Second

   77.41        2950.00           2144         275.00      1191.42
   77.60        2950.25           2147         278.00      1204.50
   77.64        2950.50           2151         291.00      1261.17
   77.67        2950.75           2155         273.00      1182.70
   77.70        2951.00           2158         282.00      1221.93
   77.73        2951.25           2162         297.00      1287.33
   77.76        2951.50           2165         289.00      1252.45
   77.79        2951.75           2169         283.00      1226.29
   77.82        2952.00           2172         290.00      1256.81
   77.85        2952.25           2176         285.00      1235.01
   77.88        2952.50           2179         285.00      1235.01
   77.91        2952.75           2183         315.00      1365.80
   77.94        2953.00           2186         298.00      1291.69
   77.97        2953.25           2190         317.00      1374.52
   78.00        2953.50           2193         298.00      1291.69
   78.03        2953.75           2197         300.00      1300.41
   78.06        2954.00           2200         295.00      1278.61
   78.09        2954.25           2204         286.00      1239.37
   78.12        2954.50           2208         296.00      1282.97
   78.16        2954.75           2211         293.00      1269.89
   78.19        2955.00           2215         298.00      1291.69
   78.22        2955.25           2218         309.00      1339.64
   78.25        2955.50           2222         307.00      1330.92
   78.28        2955.75           2225         321.00      1391.96
   78.31        2956.00           2229         312.00      1352.72
   78.34        2956.25           2232         311.00      1348.36
   78.37        2956.50           2236         327.00      1418.12
   78.40        2956.75           2239         306.00      1326.56
   78.43        2957.00           2243         335.00      1452.99
   78.46        2957.25           2246         336.00      1457.35
   78.49        2957.50           2250         346.00      1500.95
   78.52        2957.75           2254         330.00      1431.19
   78.55        2958.00           2257         340.00      1474.79
   78.58        2958.25           2261         349.00      1514.03
   78.61        2958.50           2264         364.00      1579.42
   78.64        2958.75           2268         357.00      1548.90
   78.68        2959.00           2271         377.00      1636.10
   78.71        2959.25           2275         371.00      1609.94
   78.74        2959.50           2278         396.00      1718.93
   78.77        2959.75           2282         406.00      1762.53
   78.80        2960.00           2285         399.00      1732.01
   78.83        2960.25           2289         386.00      1675.34
   78.86        2960.50           2293         423.00      1836.64
   78.89        2960.75           2296         443.00      1923.84
   78.92        2961.00           2300         495.00      2150.55
   78.95        2961.25           2303         722.00      3140.27
   78.98        2961.50           2307        2632.00     11470.47
   79.01        2961.75           2310        5516.00     24057.60
   79.04        2962.00           2314       10878.00     47488.56
   79.07        2962.25           2317       15567.00     68009.31
   79.10        2962.50           2321       22596.00     98824.52
   79.13        2962.75           2324       27404.00    119940.20
   79.16        2963.00           2328       33995.00    148935.80
   79.20        2963.25           2331       39001.00    170997.00
   79.23        2963.50           2335       45605.00    200151.20
   79.26        2963.75           2339       52020.00    228526.90
   79.29        2964.00           2342       57293.00    251892.20
   79.32        2964.25           2346       63809.00    280817.10
   79.35        2964.50           2349       68964.00    303741.00
   79.38        2964.75           2353       75776.00    334088.60
   79.41        2965.00           2356       81212.00    358351.40
   79.44        2965.25           2360       88525.00    391055.60
   79.47        2965.50           2363       93057.00    411359.80
   79.50        2965.75           2367       98415.00    435401.20
   79.53        2966.00           2370      103408.00    457840.40
   79.56        2966.25           2374      109397.00    484801.30
   79.59        2966.50           2378      113044.00    501243.70
   79.62        2966.75           2381      113864.00    504943.30
   79.65        2967.00           2385      114002.00    505565.90
   79.68        2967.25           2388      113469.00    503161.00
   79.72        2967.50           2392      113549.00    503522.00
   79.75        2967.75           2395      113482.00    503219.70
   79.78        2968.00           2399      109288.00    484310.20
   79.81        2968.25           2402      105599.00    467698.00
   79.84        2968.50           2406       99399.00    439820.60
   79.87        2968.75           2409       94337.00    417099.60
   79.90        2969.00           2413       89141.00    393813.70
   79.93        2969.25           2417       82243.00    362957.70
   79.96        2969.50           2420       78020.00    344099.50
   79.99        2969.75           2424       71246.00    313900.30
   80.02        2970.00           2427       66564.00    293063.90
   80.05        2970.25           2431       58796.00    258559.00
   80.08        2970.50           2434       53826.00    236525.30
   80.11        2970.75           2438       47216.00    207272.00
   80.14        2971.00           2441       42622.00    186975.20
   80.17        2971.25           2445       36639.00    160583.60
   80.20        2971.50           2449       29886.00    130852.50
   80.24        2971.75           2452       23903.00    104561.60
   80.27        2972.00           2456       17038.00     74452.85
   80.30        2972.25           2459       12387.00     54089.35
   80.33        2972.50           2463        6524.00     28459.52
   80.36        2972.75           2466        3198.00     13939.91
   80.39        2973.00           2470        1045.00      4548.66
   80.42        2973.25           2473         621.00      2699.90
   80.45        2973.50           2477         480.00      2085.15
   80.48        2973.75           2481         441.00      1915.12
   80.51        2974.00           2484         439.00      1906.40
   80.54        2974.25           2488         424.00      1841.00
   80.57        2974.50           2491         411.00      1784.33
   80.60        2974.75           2495         410.00      1779.97
   80.63        2975.00           2498         408.00      1771.25
   80.66        2975.25           2502         410.00      1779.97
   80.69        2975.50           2505         416.00      1806.13
   80.72        2975.75           2509         392.00      1701.49
   80.76        2976.00           2512         375.00      1627.38
   80.79        2976.25           2516         412.00      1788.69
   80.82        2976.50           2520         355.00      1540.19
   80.85        2976.75           2523         362.00      1570.70
   80.88        2977.00           2527         356.00      1544.54
   80.91        2977.25           2530         346.00      1500.95
   80.94        2977.50           2534         333.00      1444.27
   80.97        2977.75           2537         350.00      1518.39
   81.00        2978.00           2541         327.00      1418.12
   81.03        2978.25           2544         330.00      1431.19
   81.06        2978.50           2548         320.00      1387.60
   81.09        2978.75           2552         314.00      1361.44
   81.12        2979.00           2555         328.00      1422.48
   81.15        2979.25           2559         304.00      1317.84
   81.18        2979.50           2562         300.00      1300.41
   81.21        2979.75           2566         293.00      1269.89
   81.24        2980.00           2569         316.00      1370.16
   81.27        2980.25           2573         304.00      1317.84
   81.31        2980.50           2577         295.00      1278.61
   81.34        2980.75           2580         293.00      1269.89
   81.37        2981.00           2584         289.00      1252.45
   81.40        2981.25           2587         304.00      1317.84
   81.43        2981.50           2591         301.00      1304.77
   81.46        2981.75           2594         292.00      1265.53
   81.49        2982.00           2598         296.00      1282.97
   81.52        2982.25           2601         290.00      1256.81
   81.55        2982.50           2605         284.00      1230.65
   81.58        2982.75           2609         299.00      1296.05
   81.61        2983.00           2612         281.00      1217.57
   81.64        2983.25           2616         285.00      1235.01
   81.67        2983.50           2619         289.00      1252.45
   81.70        2983.75           2623         291.00      1261.17
   81.73        2984.00           2626         300.00      1300.41
HS scan finished at 01:21:57
end
************************************************************
  HS Scan of (1) Internal mercury lamp
************************************************************
Integration time is 0.2294 seconds per sample
dh010717Reading 51.44 .94 3.6pr1000
************************************************************
Dead Time -------------------------  3.4E-08 
Number of Cycles Used -------------  4 
Starting Wavelength (Angstroms) ---  2950 
Final Wavelength (Angstoms) -------  2984 
Wavelength Increment (Angstroms) --  .25 
Filter Wheel #1 Position ---------- (1) Ground quartz diffuser (ND=2.32)
Filter Wheel #2 Position ---------- (1) Neutral Density 0.494



************************************************************
HS scan start time = 21:07:21
Dark Count =  4 


Time (GMT)  Wavelength (Ang)  Step Number  Raw Counts  Counts/Second

 1268.25        2950.00           2144         341.00      1469.12
 1268.44        2950.25           2147         340.00      1464.76
 1268.47        2950.50           2151         367.00      1582.47
 1268.50        2950.75           2155         356.00      1534.52
 1268.53        2951.00           2158         337.00      1451.68
 1268.56        2951.25           2162         365.00      1573.75
 1268.59        2951.50           2165         344.00      1482.20
 1268.63        2951.75           2169         346.00      1490.92
 1268.66        2952.00           2172         375.00      1617.35
 1268.69        2952.25           2176         370.00      1595.55
 1268.72        2952.50           2179         362.00      1560.68
 1268.75        2952.75           2183         362.00      1560.68
 1268.78        2953.00           2186         341.00      1469.12
 1268.81        2953.25           2190         346.00      1490.92
 1268.84        2953.50           2193         369.00      1591.19
 1268.87        2953.75           2197         402.00      1735.06
 1268.90        2954.00           2200         397.00      1713.26
 1268.93        2954.25           2204         362.00      1560.68
 1268.96        2954.50           2208         384.00      1656.59
 1268.99        2954.75           2211         400.00      1726.34
 1269.02        2955.00           2215         396.00      1708.90
 1269.05        2955.25           2218         406.00      1752.50
 1269.08        2955.50           2222         385.00      1660.95
 1269.11        2955.75           2225         401.00      1730.70
 1269.15        2956.00           2229         410.00      1769.94
 1269.18        2956.25           2232         390.00      1682.75
 1269.21        2956.50           2236         395.00      1704.55
 1269.24        2956.75           2239         394.00      1700.19
 1269.27        2957.00           2243         409.00      1765.58
 1269.30        2957.25           2246         436.00      1883.29
 1269.33        2957.50           2250         426.00      1839.70
 1269.36        2957.75           2254         445.00      1922.53
 1269.39        2958.00           2257         441.00      1905.09
 1269.42        2958.25           2261         410.00      1769.94
 1269.45        2958.50           2264         421.00      1817.90
 1269.48        2958.75           2268         464.00      2005.37
 1269.51        2959.00           2271         435.00      1878.93
 1269.54        2959.25           2275         453.00      1957.41
 1269.58        2959.50           2278         483.00      2088.20
 1269.61        2959.75           2282         475.00      2053.33
 1269.64        2960.00           2285         466.00      2014.09
 1269.67        2960.25           2289         521.00      2253.88
 1269.70        2960.50           2293         539.00      2332.36
 1269.73        2960.75           2296         535.00      2314.92
 1269.76        2961.00           2300         621.00      2689.87
 1269.79        2961.25           2303        1046.00      4542.99
 1269.82        2961.50           2307        3769.00     16421.55
 1269.86        2961.75           2310        8244.00     35963.74
 1269.89        2962.00           2314       15722.00     68678.06
 1269.92        2962.25           2317       21820.00     95409.27
 1269.95        2962.50           2321       29621.00    129676.90
 1269.98        2962.75           2324       35368.00    154973.10
 1270.01        2963.00           2328       44121.00    193584.70
 1270.04        2963.25           2331       50046.00    219779.20
 1270.07        2963.50           2335       58134.00    255612.10
 1270.10        2963.75           2339       66309.00    291919.70
 1270.13        2964.00           2342       72607.00    319952.60
 1270.16        2964.25           2346       81467.00    359480.30
 1270.19        2964.50           2349       87790.00    387755.10
 1270.22        2964.75           2353       95213.00    421018.70
 1270.25        2965.00           2356      100790.00    446060.10
 1270.28        2965.25           2360      109043.00    483196.00
 1270.31        2965.50           2363      115082.00    510429.70
 1270.34        2965.75           2367      122617.00    544481.30
 1270.37        2966.00           2370      127927.00    568525.70
 1270.41        2966.25           2374      134848.00    599924.60
 1270.44        2966.50           2378      139162.00    619530.60
 1270.47        2966.75           2381      140140.00    623979.00
 1270.50        2967.00           2385      140313.00    624766.00
 1270.53        2967.25           2388      140638.00    626244.70
 1270.56        2967.50           2392      140702.00    626535.90
 1270.59        2967.75           2395      139794.00    622405.10
 1270.62        2968.00           2399      136659.00    608151.90
 1270.65        2968.25           2402      131629.00    585312.40
 1270.68        2968.50           2406      125452.00    557313.60
 1270.71        2968.75           2409      120166.00    533396.10
 1270.74        2969.00           2413      112541.00    498964.50
 1270.77        2969.25           2417      104906.00    464569.00
 1270.80        2969.50           2420       98865.00    437411.80
 1270.83        2969.75           2424       89990.00    397605.70
 1270.86        2970.00           2427       83931.00    370492.10
 1270.89        2970.25           2431       76060.00    335345.00
 1270.93        2970.50           2434       69869.00    307759.00
 1270.96        2970.75           2438       60999.00    268326.10
 1270.99        2971.00           2441       54467.00    239355.00
 1271.02        2971.25           2445       46270.00    203080.00
 1271.05        2971.50           2449       37936.00    166290.60
 1271.08        2971.75           2452       31866.00    139553.40
 1271.11        2972.00           2456       23366.00    102194.10
 1271.14        2972.25           2459       17391.00     75989.46
 1271.17        2972.50           2463       10282.00     44872.24
 1271.20        2972.75           2466        5818.00     25366.25
 1271.23        2973.00           2470        1861.00      8097.26
 1271.26        2973.25           2473         796.00      3452.89
 1271.29        2973.50           2477         587.00      2541.63
 1271.32        2973.75           2481         554.00      2397.75
 1271.36        2974.00           2484         531.00      2297.48
 1271.39        2974.25           2488         488.00      2110.00
 1271.42        2974.50           2491         511.00      2210.28
 1271.45        2974.75           2495         504.00      2179.76
 1271.48        2975.00           2498         489.00      2114.36
 1271.52        2975.25           2502         465.00      2009.73
 1271.55        2975.50           2505         452.00      1953.05
 1271.58        2975.75           2509         423.00      1826.62
 1271.61        2976.00           2512         461.00      1992.29
 1271.64        2976.25           2516         448.00      1935.61
 1271.67        2976.50           2520         434.00      1874.57
 1271.70        2976.75           2523         411.00      1774.30
 1271.73        2977.00           2527         408.00      1761.22
 1271.76        2977.25           2530         430.00      1857.14
 1271.79        2977.50           2534         397.00      1713.26
 1271.82        2977.75           2537         408.00      1761.22
 1271.85        2978.00           2541         407.00      1756.86
 1271.88        2978.25           2544         410.00      1769.94
 1271.91        2978.50           2548         414.00      1787.38
 1271.94        2978.75           2552         386.00      1665.31
 1271.97        2979.00           2555         424.00      1830.98
 1272.00        2979.25           2559         398.00      1717.62
 1272.03        2979.50           2562         369.00      1591.19
 1272.07        2979.75           2566         334.00      1438.61
 1272.10        2980.00           2569         354.00      1525.80
 1272.13        2980.25           2573         366.00      1578.11
 1272.16        2980.50           2577         334.00      1438.61
 1272.19        2980.75           2580         352.00      1517.08
 1272.22        2981.00           2584         351.00      1512.72
 1272.25        2981.25           2587         366.00      1578.11
 1272.28        2981.50           2591         352.00      1517.08
 1272.31        2981.75           2594         335.00      1442.97
 1272.34        2982.00           2598         323.00      1390.65
 1272.37        2982.25           2601         333.00      1434.25
 1272.40        2982.50           2605         326.00      1403.73
 1272.43        2982.75           2609         324.00      1395.01
 1272.46        2983.00           2612         315.00      1355.77
 1272.49        2983.25           2616         319.00      1373.21
 1272.52        2983.50           2619         306.00      1316.54
 1272.55        2983.75           2623         328.00      1412.45
 1272.59        2984.00           2626         340.00      1464.76
HS scan finished at 21:12:49
end
