************************************************************
  HS Scan of (1) Internal mercury lamp
************************************************************
Integration time is 0.2294 seconds per sample
dh060717Reading 51.44 .94 3.78pr1000
************************************************************
Dead Time -------------------------  3.4E-08 
Number of Cycles Used -------------  4 
Starting Wavelength (Angstroms) ---  2950 
Final Wavelength (Angstoms) -------  2984 
Wavelength Increment (Angstroms) --  .25 
Filter Wheel #1 Position ---------- (1) Ground quartz diffuser (ND=2.32)
Filter Wheel #2 Position ---------- (1) Neutral Density 0.494



************************************************************
HS scan start time = 01:12:46
Dark Count =  4.7 


Time (GMT)  Wavelength (Ang)  Step Number  Raw Counts  Counts/Second

   73.67        2950.00           2144         333.00      1431.19
   73.86        2950.25           2147         319.00      1370.16
   73.89        2950.50           2151         347.00      1492.23
   73.92        2950.75           2155         356.00      1531.47
   73.95        2951.00           2158         322.00      1383.24
   73.98        2951.25           2162         336.00      1444.27
   74.01        2951.50           2165         346.00      1487.87
   74.04        2951.75           2169         345.00      1483.51
   74.07        2952.00           2172         353.00      1518.39
   74.10        2952.25           2176         338.00      1452.99
   74.13        2952.50           2179         345.00      1483.51
   74.17        2952.75           2183         404.00      1740.73
   74.20        2953.00           2186         369.00      1588.14
   74.23        2953.25           2190         348.00      1496.59
   74.26        2953.50           2193         357.00      1535.83
   74.29        2953.75           2197         369.00      1588.14
   74.32        2954.00           2200         357.00      1535.83
   74.35        2954.25           2204         375.00      1614.30
   74.38        2954.50           2208         351.00      1509.67
   74.41        2954.75           2211         353.00      1518.39
   74.44        2955.00           2215         397.00      1710.21
   74.47        2955.25           2218         361.00      1553.26
   74.50        2955.50           2222         367.00      1579.42
   74.53        2955.75           2225         381.00      1640.46
   74.56        2956.00           2229         386.00      1662.26
   74.59        2956.25           2232         382.00      1644.82
   74.62        2956.50           2236         422.00      1819.21
   74.65        2956.75           2239         399.00      1718.93
   74.69        2957.00           2243         395.00      1701.49
   74.72        2957.25           2246         422.00      1819.21
   74.75        2957.50           2250         405.00      1745.09
   74.78        2957.75           2254         412.00      1775.61
   74.81        2958.00           2257         409.00      1762.53
   74.84        2958.25           2261         439.00      1893.32
   74.87        2958.50           2264         431.00      1858.44
   74.90        2958.75           2268         455.00      1963.08
   74.93        2959.00           2271         447.00      1928.20
   74.96        2959.25           2275         441.00      1902.04
   74.99        2959.50           2278         459.00      1980.52
   75.02        2959.75           2282         479.00      2067.71
   75.05        2960.00           2285         495.00      2137.47
   75.08        2960.25           2289         487.00      2102.59
   75.11        2960.50           2293         513.00      2215.95
   75.14        2960.75           2296         545.00      2355.46
   75.17        2961.00           2300         606.00      2621.42
   75.21        2961.25           2303        1160.00      5037.04
   75.24        2961.50           2307        4787.00     20861.78
   75.27        2961.75           2310        9767.00     42617.51
   75.30        2962.00           2314       17911.00     78265.10
   75.33        2962.25           2317       24405.00    106752.50
   75.36        2962.50           2321       32060.00    140404.10
   75.39        2962.75           2324       37699.00    165242.70
   75.42        2963.00           2328       46285.00    203143.30
   75.45        2963.25           2331       53347.00    234390.20
   75.48        2963.50           2335       62350.00    274322.20
   75.51        2963.75           2339       70996.00    312773.60
   75.54        2964.00           2342       77553.00    342002.20
   75.57        2964.25           2346       85635.00    378109.20
   75.60        2964.50           2349       91917.00    406236.30
   75.63        2964.75           2353      100949.00    446771.50
   75.66        2965.00           2356      107920.00    478134.20
   75.69        2965.25           2360      115831.00    513807.80
   75.72        2965.50           2363      121968.00    541542.00
   75.76        2965.75           2367      129169.00    574152.20
   75.79        2966.00           2370      134687.00    599190.30
   75.82        2966.25           2374      140967.00    627738.50
   75.85        2966.50           2378      143934.00    641245.70
   75.88        2966.75           2381      144543.00    644019.60
   75.91        2967.00           2385      145018.00    646183.70
   75.94        2967.25           2388      144927.00    645769.10
   75.97        2967.50           2392      144389.00    643318.20
   76.00        2967.75           2395      143572.00    639597.00
   76.03        2968.00           2399      139447.00    620823.60
   76.06        2968.25           2402      133949.00    595839.10
   76.09        2968.50           2406      126254.00    560942.60
   76.12        2968.75           2409      120167.00    533397.50
   76.15        2969.00           2413      112483.00    498699.70
   76.18        2969.25           2417      104499.00    462734.60
   76.21        2969.50           2420       98557.00    436025.30
   76.24        2969.75           2424       90896.00    401661.20
   76.28        2970.00           2427       84219.00    371776.60
   76.31        2970.25           2431       75533.00    332991.60
   76.34        2970.50           2434       69010.00    303932.30
   76.37        2970.75           2438       60334.00    265371.00
   76.40        2971.00           2441       54385.00    238988.60
   76.43        2971.25           2445       45944.00    201636.10
   76.46        2971.50           2449       37378.00    163827.60
   76.49        2971.75           2452       31096.00    136162.10
   76.52        2972.00           2456       23463.00    102616.80
   76.55        2972.25           2459       17764.00     77620.90
   76.58        2972.50           2463        9821.00     42853.59
   76.61        2972.75           2466        4993.00     21761.08
   76.64        2973.00           2470        1411.00      6131.62
   76.67        2973.25           2473         717.00      3105.38
   76.70        2973.50           2477         564.00      2438.30
   76.73        2973.75           2481         535.00      2311.86
   76.76        2974.00           2484         492.00      2124.39
   76.80        2974.25           2488         486.00      2098.23
   76.83        2974.50           2491         513.00      2215.95
   76.86        2974.75           2495         492.00      2124.39
   76.89        2975.00           2498         470.00      2028.47
   76.92        2975.25           2502         438.00      1888.96
   76.95        2975.50           2505         447.00      1928.20
   76.98        2975.75           2509         454.00      1958.72
   77.01        2976.00           2512         429.00      1849.72
   77.04        2976.25           2516         422.00      1819.21
   77.07        2976.50           2520         421.00      1814.85
   77.10        2976.75           2523         430.00      1854.08
   77.13        2977.00           2527         419.00      1806.13
   77.16        2977.25           2530         398.00      1714.57
   77.19        2977.50           2534         397.00      1710.21
   77.22        2977.75           2537         395.00      1701.49
   77.25        2978.00           2541         388.00      1670.98
   77.28        2978.25           2544         376.00      1618.66
   77.32        2978.50           2548         400.00      1723.29
   77.35        2978.75           2552         364.00      1566.34
   77.38        2979.00           2555         415.00      1788.69
   77.41        2979.25           2559         354.00      1522.75
   77.44        2979.50           2562         377.00      1623.02
   77.47        2979.75           2566         365.00      1570.70
   77.50        2980.00           2569         358.00      1540.19
   77.53        2980.25           2573         364.00      1566.34
   77.56        2980.50           2577         336.00      1444.27
   77.59        2980.75           2580         326.00      1400.68
   77.62        2981.00           2584         332.00      1426.83
   77.65        2981.25           2587         344.00      1479.15
   77.68        2981.50           2591         339.00      1457.35
   77.71        2981.75           2594         331.00      1422.48
   77.74        2982.00           2598         315.00      1352.72
   77.77        2982.25           2601         338.00      1452.99
   77.80        2982.50           2605         312.00      1339.64
   77.84        2982.75           2609         322.00      1383.24
   77.87        2983.00           2612         329.00      1413.76
   77.90        2983.25           2616         313.00      1344.00
   77.93        2983.50           2619         306.00      1313.49
   77.96        2983.75           2623         316.00      1357.08
   77.99        2984.00           2626         284.00      1217.57
HS scan finished at 01:18:13
end
************************************************************
  HS Scan of (1) Internal mercury lamp
************************************************************
Integration time is 0.2294 seconds per sample
dh060717Reading 51.44 .94 4.09pr1000
************************************************************
Dead Time -------------------------  3.4E-08 
Number of Cycles Used -------------  4 
Starting Wavelength (Angstroms) ---  2950 
Final Wavelength (Angstoms) -------  2984 
Wavelength Increment (Angstroms) --  .25 
Filter Wheel #1 Position ---------- (1) Ground quartz diffuser (ND=2.32)
Filter Wheel #2 Position ---------- (1) Neutral Density 0.494



************************************************************
HS scan start time = 21:07:26
Dark Count =  12.5 


Time (GMT)  Wavelength (Ang)  Step Number  Raw Counts  Counts/Second

 1268.33        2950.00           2144         221.00       908.92
 1268.53        2950.25           2147         206.00       843.53
 1268.56        2950.50           2151         220.00       904.56
 1268.59        2950.75           2155         209.00       856.61
 1268.62        2951.00           2158         207.00       847.89
 1268.65        2951.25           2162         215.00       882.76
 1268.68        2951.50           2165         235.00       969.95
 1268.71        2951.75           2169         214.00       878.40
 1268.74        2952.00           2172         208.00       852.25
 1268.77        2952.25           2176         222.00       913.28
 1268.80        2952.50           2179         227.00       935.08
 1268.83        2952.75           2183         224.00       922.00
 1268.86        2953.00           2186         212.00       869.69
 1268.89        2953.25           2190         220.00       904.56
 1268.92        2953.50           2193         229.00       943.80
 1268.95        2953.75           2197         225.00       926.36
 1268.98        2954.00           2200         228.00       939.44
 1269.02        2954.25           2204         227.00       935.08
 1269.05        2954.50           2208         243.00      1004.83
 1269.08        2954.75           2211         227.00       935.08
 1269.11        2955.00           2215         232.00       956.88
 1269.14        2955.25           2218         221.00       908.92
 1269.17        2955.50           2222         255.00      1057.14
 1269.20        2955.75           2225         244.00      1009.19
 1269.23        2956.00           2229         237.00       978.67
 1269.26        2956.25           2232         230.00       948.16
 1269.29        2956.50           2236         229.00       943.80
 1269.32        2956.75           2239         246.00      1017.91
 1269.35        2957.00           2243         255.00      1057.14
 1269.38        2957.25           2246         261.00      1083.30
 1269.41        2957.50           2250         261.00      1083.30
 1269.44        2957.75           2254         259.00      1074.58
 1269.47        2958.00           2257         256.00      1061.50
 1269.50        2958.25           2261         267.00      1109.46
 1269.54        2958.50           2264         272.00      1131.26
 1269.57        2958.75           2268         298.00      1244.60
 1269.60        2959.00           2271         274.00      1139.97
 1269.63        2959.25           2275         287.00      1196.65
 1269.66        2959.50           2278         312.00      1305.64
 1269.69        2959.75           2282         298.00      1244.60
 1269.72        2960.00           2285         290.00      1209.73
 1269.75        2960.25           2289         296.00      1235.88
 1269.78        2960.50           2293         332.00      1392.83
 1269.81        2960.75           2296         326.00      1366.67
 1269.84        2961.00           2300         389.00      1641.33
 1269.87        2961.25           2303         738.00      3162.94
 1269.90        2961.50           2307        2625.00     11392.82
 1269.93        2961.75           2310        5191.00     22591.45
 1269.96        2962.00           2314        9596.00     41835.85
 1269.99        2962.25           2317       13657.00     59599.73
 1270.02        2962.50           2321       19006.00     83030.50
 1270.06        2962.75           2324       22612.00     98847.34
 1270.09        2963.00           2328       27585.00    120688.20
 1270.12        2963.25           2331       31658.00    138600.60
 1270.15        2963.50           2335       36696.00    160787.20
 1270.18        2963.75           2339       41558.00    182230.60
 1270.21        2964.00           2342       45439.00    199370.00
 1270.24        2964.25           2346       50892.00    223485.60
 1270.27        2964.50           2349       55100.00    242122.30
 1270.30        2964.75           2353       60771.00    267276.20
 1270.33        2965.00           2356       64979.00    285968.90
 1270.36        2965.25           2360       69867.00    307712.20
 1270.39        2965.50           2363       73340.00    323180.80
 1270.42        2965.75           2367       77817.00    343145.50
 1270.45        2966.00           2370       81717.00    360559.20
 1270.48        2966.25           2374       86250.00    380825.50
 1270.51        2966.50           2378       88916.00    392757.90
 1270.54        2966.75           2381       89382.00    394844.60
 1270.58        2967.00           2385       89583.00    395744.70
 1270.61        2967.25           2388       89585.00    395753.70
 1270.64        2967.50           2392       89615.00    395888.10
 1270.67        2967.75           2395       88613.00    391401.30
 1270.70        2968.00           2399       85853.00    379049.50
 1270.73        2968.25           2402       82496.00    364040.00
 1270.76        2968.50           2406       77608.00    342212.80
 1270.79        2968.75           2409       74192.00    326978.10
 1270.82        2969.00           2413       68935.00    303563.90
 1270.85        2969.25           2417       64461.00    283666.50
 1270.88        2969.50           2420       60963.00    268128.60
 1270.91        2969.75           2424       55517.00    243970.50
 1270.94        2970.00           2427       51380.00    225645.60
 1270.97        2970.25           2431       45542.00    199825.10
 1271.00        2970.50           2434       41640.00    182592.60
 1271.03        2970.75           2438       36520.00    160011.60
 1271.06        2971.00           2441       32667.00    143041.40
 1271.10        2971.25           2445       27501.00    120319.00
 1271.13        2971.50           2449       21815.00     95350.02
 1271.16        2971.75           2452       18170.00     79366.02
 1271.19        2972.00           2456       13208.00     57634.63
 1271.22        2972.25           2459        9415.00     41044.60
 1271.25        2972.50           2463        5068.00     22054.46
 1271.28        2972.75           2466        2780.00     12069.03
 1271.31        2973.00           2470         760.00      3258.86
 1271.34        2973.25           2473         416.00      1759.04
 1271.37        2973.50           2477         351.00      1475.66
 1271.40        2973.75           2481         332.00      1392.83
 1271.43        2974.00           2484         327.00      1371.03
 1271.46        2974.25           2488         329.00      1379.75
 1271.49        2974.50           2491         291.00      1214.09
 1271.52        2974.75           2495         307.00      1283.84
 1271.55        2975.00           2498         290.00      1209.73
 1271.58        2975.25           2502         297.00      1240.24
 1271.61        2975.50           2505         274.00      1139.97
 1271.65        2975.75           2509         267.00      1109.46
 1271.68        2976.00           2512         266.00      1105.10
 1271.71        2976.25           2516         282.00      1174.85
 1271.74        2976.50           2520         266.00      1105.10
 1271.77        2976.75           2523         261.00      1083.30
 1271.80        2977.00           2527         271.00      1126.90
 1271.83        2977.25           2530         267.00      1109.46
 1271.86        2977.50           2534         266.00      1105.10
 1271.89        2977.75           2537         246.00      1017.91
 1271.92        2978.00           2541         236.00       974.31
 1271.95        2978.25           2544         240.00       991.75
 1271.98        2978.50           2548         251.00      1039.71
 1272.01        2978.75           2552         258.00      1070.22
 1272.04        2979.00           2555         259.00      1074.58
 1272.07        2979.25           2559         228.00       939.44
 1272.10        2979.50           2562         219.00       900.20
 1272.14        2979.75           2566         252.00      1044.07
 1272.17        2980.00           2569         235.00       969.95
 1272.20        2980.25           2573         224.00       922.00
 1272.23        2980.50           2577         226.00       930.72
 1272.26        2980.75           2580         211.00       865.33
 1272.29        2981.00           2584         209.00       856.61
 1272.32        2981.25           2587         220.00       904.56
 1272.35        2981.50           2591         225.00       926.36
 1272.38        2981.75           2594         209.00       856.61
 1272.41        2982.00           2598         222.00       913.28
 1272.44        2982.25           2601         219.00       900.20
 1272.47        2982.50           2605         212.00       869.69
 1272.50        2982.75           2609         201.00       821.73
 1272.53        2983.00           2612         202.00       826.09
 1272.56        2983.25           2616         198.00       808.65
 1272.59        2983.50           2619         207.00       847.89
 1272.62        2983.75           2623         202.00       826.09
 1272.65        2984.00           2626         204.00       834.81
HS scan finished at 21:12:53
end
