************************************************************
  HS Scan of (1) Internal mercury lamp
************************************************************
Integration time is 0.2294 seconds per sample
dh020717Reading 51.44 .94 3.52pr1000
************************************************************
Dead Time -------------------------  3.4E-08 
Number of Cycles Used -------------  4 
Starting Wavelength (Angstroms) ---  2950 
Final Wavelength (Angstoms) -------  2984 
Wavelength Increment (Angstroms) --  .25 
Filter Wheel #1 Position ---------- (1) Ground quartz diffuser (ND=2.32)
Filter Wheel #2 Position ---------- (1) Neutral Density 0.494



************************************************************
HS scan start time = 01:20:03
Dark Count =  2.8 


Time (GMT)  Wavelength (Ang)  Step Number  Raw Counts  Counts/Second

   80.94        2950.00           2144         274.00      1182.26
   81.14        2950.25           2147         288.00      1243.30
   81.17        2950.50           2151         282.00      1217.14
   81.20        2950.75           2155         299.00      1291.25
   81.23        2951.00           2158         270.00      1164.82
   81.26        2951.25           2162         282.00      1217.14
   81.29        2951.50           2165         283.00      1221.50
   81.32        2951.75           2169         290.00      1252.01
   81.35        2952.00           2172         286.00      1234.58
   81.38        2952.25           2176         292.00      1260.73
   81.41        2952.50           2179         281.00      1212.78
   81.44        2952.75           2183         304.00      1313.05
   81.47        2953.00           2186         300.00      1295.61
   81.50        2953.25           2190         315.00      1361.00
   81.53        2953.50           2193         295.00      1273.81
   81.56        2953.75           2197         300.00      1295.61
   81.59        2954.00           2200         297.00      1282.53
   81.62        2954.25           2204         298.00      1286.89
   81.66        2954.50           2208         310.00      1339.21
   81.69        2954.75           2211         314.00      1356.65
   81.72        2955.00           2215         314.00      1356.65
   81.75        2955.25           2218         317.00      1369.72
   81.78        2955.50           2222         314.00      1356.65
   81.81        2955.75           2225         340.00      1470.00
   81.84        2956.00           2229         321.00      1387.16
   81.87        2956.25           2232         326.00      1408.96
   81.90        2956.50           2236         335.00      1448.20
   81.93        2956.75           2239         338.00      1461.28
   81.96        2957.00           2243         322.00      1391.52
   81.99        2957.25           2246         340.00      1470.00
   82.02        2957.50           2250         338.00      1461.28
   82.05        2957.75           2254         352.00      1522.31
   82.08        2958.00           2257         364.00      1574.63
   82.11        2958.25           2261         363.00      1570.27
   82.14        2958.50           2264         359.00      1552.83
   82.18        2958.75           2268         386.00      1670.54
   82.21        2959.00           2271         355.00      1535.39
   82.24        2959.25           2275         376.00      1626.94
   82.27        2959.50           2278         391.00      1692.34
   82.30        2959.75           2282         393.00      1701.06
   82.33        2960.00           2285         381.00      1648.74
   82.36        2960.25           2289         418.00      1810.05
   82.39        2960.50           2293         431.00      1866.73
   82.42        2960.75           2296         439.00      1901.61
   82.45        2961.00           2300         593.00      2573.02
   82.48        2961.25           2303        1226.00      5333.14
   82.51        2961.50           2307        4384.00     19110.93
   82.54        2961.75           2310        8345.00     36410.35
   82.57        2962.00           2314       14873.00     64965.49
   82.60        2962.25           2317       20256.00     88553.92
   82.63        2962.50           2321       26776.00    117175.60
   82.66        2962.75           2324       31382.00    137428.80
   82.70        2963.00           2328       38359.00    168161.00
   82.73        2963.25           2331       43623.00    191390.50
   82.76        2963.50           2335       51160.00    224714.70
   82.79        2963.75           2339       58148.00    255679.50
   82.82        2964.00           2342       63412.00    279048.30
   82.85        2964.25           2346       70293.00    309651.90
   82.88        2964.50           2349       75453.00    332643.40
   82.91        2964.75           2353       82114.00    362376.40
   82.94        2965.00           2356       87070.00    384538.00
   82.97        2965.25           2360       93301.00    412448.90
   83.00        2965.50           2363       98117.00    434058.10
   83.03        2965.75           2367      105238.00    466068.40
   83.06        2966.00           2370      110038.00    487685.10
   83.09        2966.25           2374      114655.00    508507.80
   83.12        2966.50           2378      116958.00    518905.60
   83.15        2966.75           2381      117331.00    520590.30
   83.18        2967.00           2385      118111.00    524114.00
   83.22        2967.25           2388      117510.00    521398.90
   83.25        2967.50           2392      117677.00    522153.30
   83.28        2967.75           2395      116731.00    517880.30
   83.31        2968.00           2399      113201.00    501947.00
   83.34        2968.25           2402      108994.00    482980.70
   83.37        2968.50           2406      103429.00    457929.90
   83.40        2968.75           2409       98010.00    433577.60
   83.43        2969.00           2413       91876.00    406061.10
   83.46        2969.25           2417       85226.00    376288.30
   83.49        2969.50           2420       80523.00    355269.00
   83.52        2969.75           2424       73659.00    324645.70
   83.55        2970.00           2427       67993.00    299415.40
   83.58        2970.25           2431       60869.00    267754.30
   83.61        2970.50           2434       55785.00    245201.40
   83.64        2970.75           2438       48381.00    212418.80
   83.67        2971.00           2441       43036.00    188798.30
   83.70        2971.25           2445       36117.00    158278.40
   83.74        2971.50           2449       29532.00    129290.70
   83.77        2971.75           2452       24907.00    108965.30
   83.80        2972.00           2456       18526.00     80968.90
   83.83        2972.25           2459       13254.00     57878.39
   83.86        2972.50           2463        6742.00     29406.90
   83.89        2972.75           2466        3156.00     13751.85
   83.92        2973.00           2470        1006.00      4373.80
   83.95        2973.25           2473         563.00      2442.23
   83.98        2973.50           2477         482.00      2089.08
   84.01        2973.75           2481         450.00      1949.56
   84.04        2974.00           2484         439.00      1901.61
   84.07        2974.25           2488         443.00      1919.04
   84.10        2974.50           2491         414.00      1792.61
   84.13        2974.75           2495         413.00      1788.25
   84.16        2975.00           2498         422.00      1827.49
   84.19        2975.25           2502         375.00      1622.58
   84.22        2975.50           2505         386.00      1670.54
   84.26        2975.75           2509         416.00      1801.33
   84.29        2976.00           2512         406.00      1757.73
   84.32        2976.25           2516         367.00      1587.71
   84.35        2976.50           2520         363.00      1570.27
   84.38        2976.75           2523         375.00      1622.58
   84.41        2977.00           2527         376.00      1626.94
   84.44        2977.25           2530         347.00      1500.51
   84.47        2977.50           2534         377.00      1631.30
   84.50        2977.75           2537         343.00      1483.07
   84.53        2978.00           2541         327.00      1413.32
   84.56        2978.25           2544         341.00      1474.35
   84.59        2978.50           2548         335.00      1448.20
   84.62        2978.75           2552         326.00      1408.96
   84.65        2979.00           2555         343.00      1483.07
   84.68        2979.25           2559         319.00      1378.44
   84.71        2979.50           2562         315.00      1361.00
   84.74        2979.75           2566         322.00      1391.52
   84.78        2980.00           2569         328.00      1417.68
   84.81        2980.25           2573         317.00      1369.72
   84.84        2980.50           2577         317.00      1369.72
   84.87        2980.75           2580         310.00      1339.21
   84.90        2981.00           2584         308.00      1330.49
   84.93        2981.25           2587         308.00      1330.49
   84.96        2981.50           2591         315.00      1361.00
   84.99        2981.75           2594         320.00      1382.80
   85.02        2982.00           2598         302.00      1304.33
   85.05        2982.25           2601         292.00      1260.73
   85.08        2982.50           2605         301.00      1299.97
   85.11        2982.75           2609         304.00      1313.05
   85.14        2983.00           2612         294.00      1269.45
   85.17        2983.25           2616         300.00      1295.61
   85.20        2983.50           2619         289.00      1247.66
   85.23        2983.75           2623         289.00      1247.66
   85.26        2984.00           2626         292.00      1260.73
HS scan finished at 01:25:29
end
************************************************************
  HS Scan of (1) Internal mercury lamp
************************************************************
Integration time is 0.2294 seconds per sample
dh020717Reading 51.44 .94 3.82pr1000
************************************************************
Dead Time -------------------------  3.4E-08 
Number of Cycles Used -------------  4 
Starting Wavelength (Angstroms) ---  2950 
Final Wavelength (Angstoms) -------  2984 
Wavelength Increment (Angstroms) --  .25 
Filter Wheel #1 Position ---------- (1) Ground quartz diffuser (ND=2.32)
Filter Wheel #2 Position ---------- (1) Neutral Density 0.494



************************************************************
HS scan start time = 21:07:27
Dark Count =  7.8 


Time (GMT)  Wavelength (Ang)  Step Number  Raw Counts  Counts/Second

 1268.34        2950.00           2144         322.00      1369.72
 1268.54        2950.25           2147         315.00      1339.21
 1268.57        2950.50           2151         322.00      1369.72
 1268.60        2950.75           2155         326.00      1387.16
 1268.63        2951.00           2158         320.00      1361.00
 1268.66        2951.25           2162         322.00      1369.72
 1268.69        2951.50           2165         323.00      1374.08
 1268.72        2951.75           2169         327.00      1391.52
 1268.75        2952.00           2172         349.00      1487.43
 1268.78        2952.25           2176         338.00      1439.48
 1268.81        2952.50           2179         357.00      1522.31
 1268.84        2952.75           2183         338.00      1439.48
 1268.87        2953.00           2186         330.00      1404.60
 1268.90        2953.25           2190         349.00      1487.43
 1268.93        2953.50           2193         364.00      1552.83
 1268.96        2953.75           2197         358.00      1526.67
 1269.00        2954.00           2200         371.00      1583.35
 1269.03        2954.25           2204         337.00      1435.12
 1269.06        2954.50           2208         357.00      1522.31
 1269.09        2954.75           2211         371.00      1583.35
 1269.12        2955.00           2215         396.00      1692.34
 1269.15        2955.25           2218         357.00      1522.31
 1269.18        2955.50           2222         398.00      1701.06
 1269.21        2955.75           2225         371.00      1583.35
 1269.24        2956.00           2229         387.00      1653.10
 1269.27        2956.25           2232         411.00      1757.73
 1269.30        2956.50           2236         377.00      1609.50
 1269.33        2956.75           2239         385.00      1644.38
 1269.36        2957.00           2243         391.00      1670.54
 1269.39        2957.25           2246         403.00      1722.86
 1269.42        2957.50           2250         400.00      1709.78
 1269.45        2957.75           2254         404.00      1727.22
 1269.48        2958.00           2257         406.00      1735.94
 1269.52        2958.25           2261         436.00      1866.73
 1269.55        2958.50           2264         432.00      1849.29
 1269.58        2958.75           2268         423.00      1810.05
 1269.61        2959.00           2271         426.00      1823.13
 1269.64        2959.25           2275         430.00      1840.57
 1269.67        2959.50           2278         450.00      1927.76
 1269.70        2959.75           2282         462.00      1980.08
 1269.73        2960.00           2285         457.00      1958.28
 1269.76        2960.25           2289         470.00      2014.96
 1269.79        2960.50           2293         495.00      2123.95
 1269.82        2960.75           2296         493.00      2115.24
 1269.85        2961.00           2300         547.00      2350.67
 1269.88        2961.25           2303         850.00      3671.78
 1269.91        2961.50           2307        2832.00     12316.40
 1269.94        2961.75           2310        6754.00     29437.47
 1269.97        2962.00           2314       13221.00     57712.09
 1270.00        2962.25           2317       18860.00     82411.06
 1270.04        2962.50           2321       26730.00    116951.50
 1270.07        2962.75           2324       32992.00    144492.80
 1270.10        2963.00           2328       41065.00    180075.60
 1270.13        2963.25           2331       47238.00    207342.40
 1270.16        2963.50           2335       54687.00    240313.00
 1270.19        2963.75           2339       62586.00    275356.60
 1270.22        2964.00           2342       69033.00    304020.90
 1270.25        2964.25           2346       77231.00    340551.60
 1270.28        2964.50           2349       83388.00    368047.70
 1270.31        2964.75           2353       91849.00    405917.70
 1270.34        2965.00           2356       97787.00    432553.80
 1270.37        2965.25           2360      106187.00    470317.20
 1270.40        2965.50           2363      112106.00    496985.50
 1270.43        2965.75           2367      119159.00    528827.10
 1270.46        2966.00           2370      123528.00    548586.40
 1270.49        2966.25           2374      130433.00    579869.80
 1270.52        2966.50           2378      134871.00    600011.90
 1270.56        2966.75           2381      135780.00    604140.90
 1270.59        2967.00           2385      136008.00    605176.70
 1270.62        2967.25           2388      136422.00    607057.80
 1270.65        2967.50           2392      135991.00    605099.50
 1270.68        2967.75           2395      136061.00    605417.50
 1270.71        2968.00           2399      131664.00    585454.00
 1270.74        2968.25           2402      126781.00    563315.90
 1270.77        2968.50           2406      119453.00    530155.90
 1270.80        2968.75           2409      114252.00    506666.60
 1270.83        2969.00           2413      106602.00    472185.30
 1270.86        2969.25           2417       98826.00    437219.60
 1270.89        2969.50           2420       93463.00    413152.80
 1270.92        2969.75           2424       86233.00    380770.50
 1270.95        2970.00           2427       80130.00    353491.70
 1270.98        2970.25           2431       71175.00    313557.00
 1271.01        2970.50           2434       64969.00    285945.30
 1271.04        2970.75           2438       56038.00    246300.70
 1271.07        2971.00           2441       49850.00    218895.10
 1271.11        2971.25           2445       42606.00    186877.60
 1271.14        2971.50           2449       34670.00    151881.70
 1271.17        2971.75           2452       28679.00    125518.00
 1271.20        2972.00           2456       20156.00     88093.46
 1271.23        2972.25           2459       14307.00     62465.58
 1271.26        2972.50           2463        7938.00     34610.02
 1271.29        2972.75           2466        3977.00     17312.72
 1271.32        2973.00           2470        1276.00      5529.37
 1271.35        2973.25           2473         694.00      2991.59
 1271.38        2973.50           2477         533.00      2289.63
 1271.41        2973.75           2481         550.00      2363.75
 1271.44        2974.00           2484         502.00      2154.47
 1271.47        2974.25           2488         493.00      2115.24
 1271.50        2974.50           2491         473.00      2028.04
 1271.53        2974.75           2495         446.00      1910.32
 1271.56        2975.00           2498         455.00      1949.56
 1271.59        2975.25           2502         469.00      2010.60
 1271.63        2975.50           2505         418.00      1788.25
 1271.66        2975.75           2509         420.00      1796.97
 1271.69        2976.00           2512         438.00      1875.45
 1271.72        2976.25           2516         439.00      1879.81
 1271.75        2976.50           2520         420.00      1796.97
 1271.78        2976.75           2523         415.00      1775.17
 1271.81        2977.00           2527         398.00      1701.06
 1271.84        2977.25           2530         421.00      1801.33
 1271.87        2977.50           2534         392.00      1674.90
 1271.90        2977.75           2537         379.00      1618.22
 1271.93        2978.00           2541         380.00      1622.58
 1271.97        2978.25           2544         398.00      1701.06
 1272.00        2978.50           2548         378.00      1613.86
 1272.03        2978.75           2552         394.00      1683.62
 1272.06        2979.00           2555         388.00      1657.46
 1272.09        2979.25           2559         365.00      1557.19
 1272.12        2979.50           2562         346.00      1474.35
 1272.15        2979.75           2566         371.00      1583.35
 1272.18        2980.00           2569         382.00      1631.30
 1272.21        2980.25           2573         364.00      1552.83
 1272.24        2980.50           2577         351.00      1496.15
 1272.27        2980.75           2580         356.00      1517.95
 1272.31        2981.00           2584         364.00      1552.83
 1272.34        2981.25           2587         364.00      1552.83
 1272.37        2981.50           2591         347.00      1478.71
 1272.40        2981.75           2594         361.00      1539.75
 1272.43        2982.00           2598         318.00      1352.29
 1272.46        2982.25           2601         322.00      1369.72
 1272.49        2982.50           2605         352.00      1500.51
 1272.52        2982.75           2609         325.00      1382.80
 1272.55        2983.00           2612         310.00      1317.41
 1272.58        2983.25           2616         316.00      1343.57
 1272.61        2983.50           2619         320.00      1361.00
 1272.64        2983.75           2623         325.00      1382.80
 1272.67        2984.00           2626         306.00      1299.97
HS scan finished at 21:12:54
end
