************************************************************
  HS Scan of (1) Internal mercury lamp
************************************************************
Integration time is 0.2294 seconds per sample
dh080717Reading 51.44 .94 3.6pr1000
************************************************************
Dead Time -------------------------  3.4E-08 
Number of Cycles Used -------------  4 
Starting Wavelength (Angstroms) ---  2950 
Final Wavelength (Angstoms) -------  2984 
Wavelength Increment (Angstroms) --  .25 
Filter Wheel #1 Position ---------- (1) Ground quartz diffuser (ND=2.32)
Filter Wheel #2 Position ---------- (1) Neutral Density 0.494



************************************************************
HS scan start time = 01:17:43
Dark Count =  3 


Time (GMT)  Wavelength (Ang)  Step Number  Raw Counts  Counts/Second

   78.62        2950.00           2144         284.00      1224.99
   78.81        2950.25           2147         292.00      1259.86
   78.84        2950.50           2151         293.00      1264.22
   78.87        2950.75           2155         307.00      1325.26
   78.90        2951.00           2158         302.00      1303.46
   78.93        2951.25           2162         283.00      1220.63
   78.97        2951.50           2165         304.00      1312.18
   79.00        2951.75           2169         285.00      1229.35
   79.03        2952.00           2172         303.00      1307.82
   79.06        2952.25           2176         303.00      1307.82
   79.09        2952.50           2179         288.00      1242.42
   79.12        2952.75           2183         297.00      1281.66
   79.15        2953.00           2186         306.00      1320.90
   79.18        2953.25           2190         305.00      1316.54
   79.21        2953.50           2193         317.00      1368.85
   79.24        2953.75           2197         308.00      1329.62
   79.27        2954.00           2200         312.00      1347.05
   79.30        2954.25           2204         311.00      1342.69
   79.33        2954.50           2208         317.00      1368.85
   79.36        2954.75           2211         323.00      1395.01
   79.41        2955.00           2215         356.00      1538.88
   79.44        2955.25           2218         326.00      1408.09
   79.47        2955.50           2222         333.00      1438.61
   79.50        2955.75           2225         320.00      1381.93
   79.53        2956.00           2229         324.00      1399.37
   79.56        2956.25           2232         359.00      1551.96
   79.59        2956.50           2236         356.00      1538.88
   79.62        2956.75           2239         357.00      1543.24
   79.65        2957.00           2243         355.00      1534.52
   79.68        2957.25           2246         341.00      1473.48
   79.71        2957.50           2250         376.00      1626.07
   79.75        2957.75           2254         366.00      1582.47
   79.78        2958.00           2257         380.00      1643.51
   79.81        2958.25           2261         376.00      1626.07
   79.84        2958.50           2264         376.00      1626.07
   79.87        2958.75           2268         412.00      1783.02
   79.90        2959.00           2271         400.00      1730.70
   79.93        2959.25           2275         407.00      1761.22
   79.97        2959.50           2278         427.00      1848.42
   80.01        2959.75           2282         417.00      1804.82
   80.04        2960.00           2285         414.00      1791.74
   80.07        2960.25           2289         438.00      1896.37
   80.10        2960.50           2293         460.00      1992.29
   80.13        2960.75           2296         450.00      1948.69
   80.16        2961.00           2300         520.00      2253.88
   80.19        2961.25           2303         712.00      3091.00
   80.22        2961.50           2307        2894.00     12607.85
   80.25        2961.75           2310        6612.00     28838.20
   80.28        2962.00           2314       12921.00     56420.25
   80.31        2962.25           2317       17436.00     76191.02
   80.34        2962.50           2321       23892.00    104507.60
   80.37        2962.75           2324       29544.00    129342.60
   80.40        2963.00           2328       36363.00    159361.60
   80.43        2963.25           2331       42235.00    185260.90
   80.46        2963.50           2335       49331.00    216620.10
   80.49        2963.75           2339       56913.00    250201.40
   80.53        2964.00           2342       62420.00    274640.70
   80.56        2964.25           2346       70497.00    310559.30
   80.59        2964.50           2349       75870.00    334502.10
   80.62        2964.75           2353       82481.00    364015.40
   80.65        2965.00           2356       87773.00    387683.40
   80.68        2965.25           2360       95121.00    420610.40
   80.71        2965.50           2363      100818.00    446190.40
   80.74        2965.75           2367      108831.00    482245.40
   80.77        2966.00           2370      113601.00    503750.80
   80.80        2966.25           2374      119665.00    531135.90
   80.83        2966.50           2378      125201.00    556181.50
   80.86        2966.75           2381      126433.00    561761.10
   80.89        2967.00           2385      126759.00    563238.00
   80.92        2967.25           2388      127491.00    566554.50
   80.95        2967.50           2392      127528.00    566722.10
   80.98        2967.75           2395      127083.00    564705.80
   81.01        2968.00           2399      124393.00    552523.30
   81.05        2968.25           2402      120848.00    536484.30
   81.08        2968.50           2406      113093.00    501459.00
   81.11        2968.75           2409      108813.00    482164.30
   81.14        2969.00           2413      102674.00    454533.70
   81.17        2969.25           2417       94987.00    420009.30
   81.20        2969.50           2420       88743.00    392025.80
   81.23        2969.75           2424       80931.00    357090.40
   81.26        2970.00           2427       75358.00    332218.80
   81.29        2970.25           2431       68833.00    303152.20
   81.32        2970.50           2434       63281.00    278465.40
   81.35        2970.75           2438       54908.00    241313.60
   81.38        2971.00           2441       48893.00    214682.50
   81.41        2971.25           2445       41103.00    180264.50
   81.44        2971.50           2449       33547.00    146957.40
   81.47        2971.75           2452       28514.00    124813.60
   81.50        2972.00           2456       21544.00     94202.72
   81.53        2972.25           2459       16216.00     70846.13
   81.57        2972.50           2463        9017.00     39346.42
   81.60        2972.75           2466        4669.00     20354.10
   81.63        2973.00           2470        1422.00      6187.00
   81.66        2973.25           2473         709.00      3077.92
   81.69        2973.50           2477         502.00      2175.40
   81.72        2973.75           2481         498.00      2157.96
   81.75        2974.00           2484         486.00      2105.64
   81.78        2974.25           2488         453.00      1961.77
   81.81        2974.50           2491         449.00      1944.33
   81.84        2974.75           2495         454.00      1966.13
   81.87        2975.00           2498         441.00      1909.45
   81.90        2975.25           2502         436.00      1887.65
   81.93        2975.50           2505         439.00      1900.73
   81.96        2975.75           2509         410.00      1774.30
   81.99        2976.00           2512         397.00      1717.62
   82.02        2976.25           2516         419.00      1813.54
   82.05        2976.50           2520         423.00      1830.98
   82.08        2976.75           2523         387.00      1674.03
   82.12        2977.00           2527         375.00      1621.71
   82.15        2977.25           2530         379.00      1639.15
   82.18        2977.50           2534         378.00      1634.79
   82.21        2977.75           2537         367.00      1586.83
   82.24        2978.00           2541         370.00      1599.91
   82.27        2978.25           2544         362.00      1565.04
   82.30        2978.50           2548         355.00      1534.52
   82.33        2978.75           2552         341.00      1473.48
   82.36        2979.00           2555         375.00      1621.71
   82.39        2979.25           2559         349.00      1508.36
   82.42        2979.50           2562         367.00      1586.83
   82.46        2979.75           2566         348.00      1504.00
   82.50        2980.00           2569         327.00      1412.45
   82.53        2980.25           2573         354.00      1530.16
   82.56        2980.50           2577         347.00      1499.64
   82.59        2980.75           2580         355.00      1534.52
   82.62        2981.00           2584         326.00      1408.09
   82.65        2981.25           2587         328.00      1416.81
   82.69        2981.50           2591         319.00      1377.57
   82.72        2981.75           2594         321.00      1386.29
   82.75        2982.00           2598         324.00      1399.37
   82.78        2982.25           2601         306.00      1320.90
   82.81        2982.50           2605         314.00      1355.77
   82.84        2982.75           2609         304.00      1312.18
   82.87        2983.00           2612         309.00      1333.98
   82.90        2983.25           2616         304.00      1312.18
   82.93        2983.50           2619         311.00      1342.69
   82.96        2983.75           2623         292.00      1259.86
   82.99        2984.00           2626         300.00      1294.74
HS scan finished at 01:23:13
end
************************************************************
  HS Scan of (1) Internal mercury lamp
************************************************************
Integration time is 0.2294 seconds per sample
dh080717Reading 51.44 .94 4pr1000
************************************************************
Dead Time -------------------------  3.4E-08 
Number of Cycles Used -------------  4 
Starting Wavelength (Angstroms) ---  2950 
Final Wavelength (Angstoms) -------  2984 
Wavelength Increment (Angstroms) --  .25 
Filter Wheel #1 Position ---------- (1) Ground quartz diffuser (ND=2.32)
Filter Wheel #2 Position ---------- (1) Neutral Density 0.494



************************************************************
HS scan start time = 21:06:48
Dark Count =  9 


Time (GMT)  Wavelength (Ang)  Step Number  Raw Counts  Counts/Second

 1267.69        2950.00           2144         210.00       876.22
 1267.89        2950.25           2147         226.00       945.98
 1267.92        2950.50           2151         210.00       876.22
 1267.95        2950.75           2155         215.00       898.02
 1267.98        2951.00           2158         208.00       867.51
 1268.01        2951.25           2162         220.00       919.82
 1268.04        2951.50           2165         212.00       884.94
 1268.07        2951.75           2169         203.00       845.71
 1268.10        2952.00           2172         199.00       828.27
 1268.13        2952.25           2176         217.00       906.74
 1268.16        2952.50           2179         234.00       980.85
 1268.19        2952.75           2183         209.00       871.87
 1268.22        2953.00           2186         206.00       858.79
 1268.25        2953.25           2190         210.00       876.22
 1268.28        2953.50           2193         242.00      1015.73
 1268.31        2953.75           2197         208.00       867.51
 1268.34        2954.00           2200         228.00       954.70
 1268.38        2954.25           2204         226.00       945.98
 1268.41        2954.50           2208         218.00       911.10
 1268.44        2954.75           2211         224.00       937.26
 1268.47        2955.00           2215         229.00       959.05
 1268.50        2955.25           2218         227.00       950.34
 1268.53        2955.50           2222         247.00      1037.53
 1268.56        2955.75           2225         245.00      1028.81
 1268.59        2956.00           2229         250.00      1050.60
 1268.62        2956.25           2232         238.00       998.29
 1268.65        2956.50           2236         230.00       963.41
 1268.68        2956.75           2239         238.00       998.29
 1268.71        2957.00           2243         287.00      1211.91
 1268.74        2957.25           2246         245.00      1028.81
 1268.77        2957.50           2250         246.00      1033.17
 1268.80        2957.75           2254         267.00      1124.72
 1268.83        2958.00           2257         256.00      1076.76
 1268.86        2958.25           2261         266.00      1120.36
 1268.90        2958.50           2264         288.00      1216.27
 1268.93        2958.75           2268         277.00      1168.31
 1268.96        2959.00           2271         269.00      1133.44
 1268.99        2959.25           2275         292.00      1233.70
 1269.03        2959.50           2278         310.00      1312.18
 1269.06        2959.75           2282         301.00      1272.94
 1269.09        2960.00           2285         293.00      1238.06
 1269.12        2960.25           2289         312.00      1320.90
 1269.16        2960.50           2293         310.00      1312.18
 1269.19        2960.75           2296         333.00      1412.45
 1269.22        2961.00           2300         418.00      1783.02
 1269.25        2961.25           2303         798.00      3439.81
 1269.28        2961.50           2307        3087.00     13423.74
 1269.31        2961.75           2310        6135.00     26728.73
 1269.34        2962.00           2314       10610.00     46284.64
 1269.37        2962.25           2317       14270.00     62298.34
 1269.40        2962.50           2321       19033.00     83164.21
 1269.43        2962.75           2324       22455.00     98173.71
 1269.46        2963.00           2328       28426.00    124400.40
 1269.49        2963.25           2331       32842.00    143827.20
 1269.52        2963.50           2335       37911.00    166158.40
 1269.55        2963.75           2339       43254.00    189733.50
 1269.58        2964.00           2342       46628.00    204640.40
 1269.61        2964.25           2346       51762.00    227352.20
 1269.64        2964.50           2349       56426.00    248015.50
 1269.68        2964.75           2353       61640.00    271150.00
 1269.71        2965.00           2356       65048.00    286291.10
 1269.74        2965.25           2360       70013.00    308377.70
 1269.77        2965.50           2363       73427.00    323584.10
 1269.80        2965.75           2367       78554.00    346450.20
 1269.83        2966.00           2370       82166.00    362581.00
 1269.86        2966.25           2374       86345.00    381266.20
 1269.89        2966.50           2378       89046.00    393355.70
 1269.92        2966.75           2381       90545.00    400069.40
 1269.95        2967.00           2385       90359.00    399236.20
 1269.98        2967.25           2388       90757.00    401019.20
 1270.01        2967.50           2392       90610.00    400360.60
 1270.04        2967.75           2395       89939.00    397354.90
 1270.07        2968.00           2399       87853.00    388014.70
 1270.10        2968.25           2402       84935.00    374959.10
 1270.13        2968.50           2406       80491.00    355098.40
 1270.16        2968.75           2409       76643.00    337923.10
 1270.20        2969.00           2413       71573.00    315324.20
 1270.23        2969.25           2417       67692.00    298048.70
 1270.26        2969.50           2420       63443.00    279158.50
 1270.29        2969.75           2424       57887.00    254494.30
 1270.32        2970.00           2427       54118.00    237786.60
 1270.35        2970.25           2431       47948.00    210476.50
 1270.38        2970.50           2434       44019.00    193112.10
 1270.41        2970.75           2438       38001.00    166555.20
 1270.44        2971.00           2441       34159.00    149625.90
 1270.47        2971.25           2445       28488.00    124673.00
 1270.50        2971.50           2449       22957.00    100376.90
 1270.53        2971.75           2452       19206.00     83922.64
 1270.56        2972.00           2456       13533.00     59072.32
 1270.59        2972.25           2459        9890.00     43136.46
 1270.62        2972.50           2463        5313.00     23139.38
 1270.65        2972.75           2466        2842.00     12354.80
 1270.68        2973.00           2470         942.00      4067.69
 1270.71        2973.25           2473         491.00      2101.28
 1270.75        2973.50           2477         361.00      1534.52
 1270.78        2973.75           2481         336.00      1425.53
 1270.81        2974.00           2484         331.00      1403.73
 1270.84        2974.25           2488         311.00      1316.54
 1270.87        2974.50           2491         309.00      1307.82
 1270.90        2974.75           2495         313.00      1325.26
 1270.93        2975.00           2498         301.00      1272.94
 1270.96        2975.25           2502         291.00      1229.35
 1270.99        2975.50           2505         304.00      1286.02
 1271.02        2975.75           2509         318.00      1347.05
 1271.05        2976.00           2512         279.00      1177.03
 1271.08        2976.25           2516         271.00      1142.15
 1271.11        2976.50           2520         276.00      1163.95
 1271.14        2976.75           2523         263.00      1107.28
 1271.17        2977.00           2527         294.00      1242.42
 1271.20        2977.25           2530         245.00      1028.81
 1271.23        2977.50           2534         282.00      1190.11
 1271.27        2977.75           2537         259.00      1089.84
 1271.30        2978.00           2541         281.00      1185.75
 1271.33        2978.25           2544         249.00      1046.24
 1271.36        2978.50           2548         263.00      1107.28
 1271.39        2978.75           2552         232.00       972.13
 1271.42        2979.00           2555         268.00      1129.08
 1271.45        2979.25           2559         252.00      1059.32
 1271.48        2979.50           2562         237.00       993.93
 1271.51        2979.75           2566         261.00      1098.56
 1271.54        2980.00           2569         243.00      1020.09
 1271.57        2980.25           2573         233.00       976.49
 1271.60        2980.50           2577         226.00       945.98
 1271.63        2980.75           2580         234.00       980.85
 1271.66        2981.00           2584         224.00       937.26
 1271.69        2981.25           2587         258.00      1085.48
 1271.72        2981.50           2591         226.00       945.98
 1271.75        2981.75           2594         220.00       919.82
 1271.79        2982.00           2598         242.00      1015.73
 1271.82        2982.25           2601         219.00       915.46
 1271.85        2982.50           2605         214.00       893.66
 1271.88        2982.75           2609         207.00       863.15
 1271.91        2983.00           2612         199.00       828.27
 1271.94        2983.25           2616         210.00       876.22
 1271.97        2983.50           2619         206.00       858.79
 1272.00        2983.75           2623         204.00       850.07
 1272.03        2984.00           2626         218.00       911.10
HS scan finished at 21:12:15
end
