************************************************************
  HS Scan of (1) Internal mercury lamp
************************************************************
Integration time is 0.2294 seconds per sample
dh050718Reading 51.44 .94 3.76pr1000
************************************************************
Dead Time -------------------------  3.4E-08 
Number of Cycles Used -------------  4 
Starting Wavelength (Angstroms) ---  2950 
Final Wavelength (Angstoms) -------  2984 
Wavelength Increment (Angstroms) --  .25 
Filter Wheel #1 Position ---------- (1) Ground quartz diffuser (ND=2.32)
Filter Wheel #2 Position ---------- (1) Neutral Density 0.494



************************************************************
HS scan start time = 01:34:30
Dark Count =  4.8 


Time (GMT)  Wavelength (Ang)  Step Number  Raw Counts  Counts/Second

   95.40        2950.00           2144          85.00       349.61
   95.59        2950.25           2147          80.00       327.82
   95.62        2950.50           2151          75.00       306.02
   95.65        2950.75           2155          87.00       358.33
   95.68        2951.00           2158          82.00       336.53
   95.71        2951.25           2162          74.00       301.66
   95.74        2951.50           2165          81.00       332.17
   95.77        2951.75           2169          80.00       327.82
   95.81        2952.00           2172          83.00       340.89
   95.84        2952.25           2176          79.00       323.46
   95.87        2952.50           2179          79.00       323.46
   95.90        2952.75           2183          81.00       332.17
   95.93        2953.00           2186          84.00       345.25
   95.96        2953.25           2190          81.00       332.17
   95.99        2953.50           2193          87.00       358.33
   96.02        2953.75           2197          84.00       345.25
   96.05        2954.00           2200          83.00       340.89
   96.08        2954.25           2204          78.00       319.10
   96.11        2954.50           2208          89.00       367.05
   96.14        2954.75           2211          96.00       397.56
   96.17        2955.00           2215          98.00       406.28
   96.20        2955.25           2218          89.00       367.05
   96.23        2955.50           2222          87.00       358.33
   96.26        2955.75           2225          91.00       375.77
   96.29        2956.00           2229          91.00       375.77
   96.33        2956.25           2232          84.00       345.25
   96.36        2956.50           2236          94.00       388.85
   96.39        2956.75           2239          88.00       362.69
   96.42        2957.00           2243          93.00       384.49
   96.45        2957.25           2246          85.00       349.61
   96.48        2957.50           2250         139.00       585.02
   96.51        2957.75           2254         104.00       432.44
   96.54        2958.00           2257          96.00       397.56
   96.57        2958.25           2261         111.00       462.95
   96.60        2958.50           2264          98.00       406.28
   96.63        2958.75           2268         101.00       419.36
   96.66        2959.00           2271         128.00       537.06
   96.69        2959.25           2275         121.00       506.55
   96.72        2959.50           2278         133.00       558.86
   96.75        2959.75           2282         127.00       532.70
   96.78        2960.00           2285         114.00       476.03
   96.81        2960.25           2289         121.00       506.55
   96.84        2960.50           2293         120.00       502.19
   96.88        2960.75           2296         161.00       680.92
   96.91        2961.00           2300         180.00       763.75
   96.94        2961.25           2303         400.00      1722.86
   96.97        2961.50           2307        1407.00      6113.74
   97.00        2961.75           2310        2619.00     11400.23
   97.03        2962.00           2314        4649.00     20258.94
   97.06        2962.25           2317        6190.00     26987.26
   97.09        2962.50           2321        8257.00     36017.06
   97.12        2962.75           2324        9579.00     41795.19
   97.15        2963.00           2328       11973.00     52264.55
   97.18        2963.25           2331       13487.00     58889.38
   97.21        2963.50           2335       15947.00     69660.00
   97.24        2963.75           2339       17980.00     78567.05
   97.27        2964.00           2342       19477.00     85129.21
   97.30        2964.25           2346       21464.00     93843.84
   97.33        2964.50           2349       23148.00    101233.60
   97.36        2964.75           2353       25355.00    110924.10
   97.40        2965.00           2356       27082.00    118511.40
   97.43        2965.25           2360       28988.00    126889.80
   97.46        2965.50           2363       30419.00    133183.20
   97.49        2965.75           2367       32721.00    143313.00
   97.52        2966.00           2370       33982.00    148864.90
   97.55        2966.25           2374       36076.00    158088.90
   97.58        2966.50           2378       37120.00    162689.90
   97.61        2966.75           2381       37374.00    163809.60
   97.64        2967.00           2385       37533.00    164510.50
   97.67        2967.25           2388       37598.00    164797.00
   97.70        2967.50           2392       37507.00    164395.80
   97.73        2967.75           2395       37045.00    162359.40
   97.76        2968.00           2399       36620.00    160486.20
   97.79        2968.25           2402       35339.00    154841.80
   97.82        2968.50           2406       32980.00    144453.10
   97.85        2968.75           2409       31355.00    137301.20
   97.88        2969.00           2413       29216.00    127892.30
   97.92        2969.25           2417       27165.00    118876.20
   97.95        2969.50           2420       25450.00    111341.40
   97.98        2969.75           2424       23056.00    100829.80
   98.01        2970.00           2427       21208.00     92720.79
   98.04        2970.25           2431       18933.00     82744.23
   98.07        2970.50           2434       17325.00     75696.75
   98.11        2970.75           2438       14958.00     65328.91
   98.14        2971.00           2441       13335.00     58224.13
   98.17        2971.25           2445       11294.00     49294.41
   98.20        2971.50           2449        9381.00     40929.63
   98.23        2971.75           2452        7703.00     33596.34
   98.26        2972.00           2456        5476.00     23869.41
   98.29        2972.25           2459        3893.00     16959.21
   98.32        2972.50           2463        2008.00      8734.94
   98.35        2972.75           2466         985.00      4273.51
   98.38        2973.00           2470         312.00      1339.21
   98.41        2973.25           2473         187.00       794.27
   98.44        2973.50           2477         160.00       676.56
   98.47        2973.75           2481         141.00       593.73
   98.50        2974.00           2484         163.00       689.64
   98.53        2974.25           2488         145.00       611.17
   98.56        2974.50           2491         132.00       554.50
   98.59        2974.75           2495         129.00       541.42
   98.63        2975.00           2498         139.00       585.02
   98.66        2975.25           2502         119.00       497.83
   98.69        2975.50           2505         111.00       462.95
   98.72        2975.75           2509         103.00       428.08
   98.75        2976.00           2512         117.00       489.11
   98.78        2976.25           2516         130.00       545.78
   98.81        2976.50           2520         121.00       506.55
   98.84        2976.75           2523         117.00       489.11
   98.87        2977.00           2527         113.00       471.67
   98.90        2977.25           2530          98.00       406.28
   98.93        2977.50           2534          88.00       362.69
   98.96        2977.75           2537          96.00       397.56
   98.99        2978.00           2541          89.00       367.05
   99.02        2978.25           2544          94.00       388.85
   99.05        2978.50           2548          94.00       388.85
   99.08        2978.75           2552          93.00       384.49
   99.11        2979.00           2555          98.00       406.28
   99.15        2979.25           2559         105.00       436.80
   99.18        2979.50           2562          89.00       367.05
   99.21        2979.75           2566          89.00       367.05
   99.24        2980.00           2569          89.00       367.05
   99.27        2980.25           2573          88.00       362.69
   99.30        2980.50           2577          88.00       362.69
   99.33        2980.75           2580          76.00       310.38
   99.36        2981.00           2584          92.00       380.13
   99.39        2981.25           2587          83.00       340.89
   99.42        2981.50           2591          82.00       336.53
   99.45        2981.75           2594          77.00       314.74
   99.48        2982.00           2598          88.00       362.69
   99.51        2982.25           2601          82.00       336.53
   99.54        2982.50           2605          85.00       349.61
   99.57        2982.75           2609          78.00       319.10
   99.60        2983.00           2612          84.00       345.25
   99.63        2983.25           2616          87.00       358.33
   99.67        2983.50           2619          78.00       319.10
   99.70        2983.75           2623          82.00       336.53
   99.73        2984.00           2626          85.00       349.61
HS scan finished at 01:39:57
end
************************************************************
  HS Scan of (1) Internal mercury lamp
************************************************************
Integration time is 0.2294 seconds per sample
dh050718Reading 51.44 .94 4.21pr1000
************************************************************
Dead Time -------------------------  3.4E-08 
Number of Cycles Used -------------  4 
Starting Wavelength (Angstroms) ---  2950 
Final Wavelength (Angstoms) -------  2984 
Wavelength Increment (Angstroms) --  .25 
Filter Wheel #1 Position ---------- (1) Ground quartz diffuser (ND=2.32)
Filter Wheel #2 Position ---------- (1) Neutral Density 0.494



************************************************************
HS scan start time = 21:07:25
Dark Count =  14.2 


Time (GMT)  Wavelength (Ang)  Step Number  Raw Counts  Counts/Second

 1268.31        2950.00           2144          65.00       221.45
 1268.50        2950.25           2147          68.00       234.53
 1268.53        2950.50           2151          71.00       247.60
 1268.57        2950.75           2155          69.00       238.89
 1268.60        2951.00           2158          75.00       265.04
 1268.63        2951.25           2162          70.00       243.25
 1268.66        2951.50           2165          64.00       217.09
 1268.69        2951.75           2169          66.00       225.81
 1268.72        2952.00           2172          73.00       256.32
 1268.75        2952.25           2176          74.00       260.68
 1268.78        2952.50           2179          77.00       273.76
 1268.81        2952.75           2183          74.00       260.68
 1268.84        2953.00           2186          73.00       256.32
 1268.87        2953.25           2190          75.00       265.04
 1268.90        2953.50           2193          70.00       243.25
 1268.93        2953.75           2197          78.00       278.12
 1268.96        2954.00           2200          76.00       269.40
 1268.99        2954.25           2204          72.00       251.96
 1269.02        2954.50           2208          78.00       278.12
 1269.05        2954.75           2211          73.00       256.32
 1269.09        2955.00           2215          80.00       286.84
 1269.12        2955.25           2218          91.00       334.79
 1269.15        2955.50           2222          75.00       265.04
 1269.18        2955.75           2225          72.00       251.96
 1269.21        2956.00           2229          82.00       295.56
 1269.24        2956.25           2232          84.00       304.28
 1269.27        2956.50           2236          80.00       286.84
 1269.30        2956.75           2239          87.00       317.35
 1269.33        2957.00           2243          86.00       312.99
 1269.36        2957.25           2246          76.00       269.40
 1269.39        2957.50           2250          86.00       312.99
 1269.42        2957.75           2254          87.00       317.35
 1269.45        2958.00           2257          91.00       334.79
 1269.48        2958.25           2261          82.00       295.56
 1269.51        2958.50           2264          89.00       326.07
 1269.54        2958.75           2268          81.00       291.20
 1269.57        2959.00           2271         109.00       413.26
 1269.61        2959.25           2275          90.00       330.43
 1269.64        2959.50           2278          98.00       365.31
 1269.67        2959.75           2282          92.00       339.15
 1269.70        2960.00           2285          96.00       356.59
 1269.73        2960.25           2289          91.00       334.79
 1269.76        2960.50           2293          97.00       360.95
 1269.79        2960.75           2296         111.00       421.98
 1269.82        2961.00           2300         123.00       474.29
 1269.85        2961.25           2303         199.00       805.60
 1269.88        2961.50           2307         777.00      3325.57
 1269.91        2961.75           2310        1701.00      7354.93
 1269.94        2962.00           2314        3139.00     13627.94
 1269.97        2962.25           2317        4255.00     18498.12
 1270.00        2962.50           2321        5574.00     24256.26
 1270.03        2962.75           2324        6876.00     29942.41
 1270.06        2963.00           2328        8698.00     37903.22
 1270.09        2963.25           2331       10313.00     44963.19
 1270.12        2963.50           2335       12006.00     52367.79
 1270.16        2963.75           2339       13524.00     59010.17
 1270.19        2964.00           2342       14569.00     63584.57
 1270.22        2964.25           2346       16464.00     71883.41
 1270.25        2964.50           2349       17653.00     77092.84
 1270.28        2964.75           2353       19244.00     84066.44
 1270.31        2965.00           2356       20425.00     89245.10
 1270.34        2965.25           2360       22094.00     96566.76
 1270.37        2965.50           2363       23498.00    102728.70
 1270.40        2965.75           2367       25014.00    109385.10
 1270.43        2966.00           2370       26183.00    114520.00
 1270.46        2966.25           2374       27312.00    119480.90
 1270.49        2966.50           2378       27856.00    121871.90
 1270.52        2966.75           2381       28041.00    122685.10
 1270.55        2967.00           2385       28052.00    122733.40
 1270.58        2967.25           2388       27918.00    122144.40
 1270.61        2967.50           2392       28006.00    122531.20
 1270.64        2967.75           2395       27735.00    121340.00
 1270.68        2968.00           2399       26811.00    117279.30
 1270.71        2968.25           2402       25849.00    113052.70
 1270.74        2968.50           2406       24166.00    105661.40
 1270.77        2968.75           2409       22788.00     99612.31
 1270.80        2969.00           2413       21228.00     92767.29
 1270.83        2969.25           2417       19793.00     86473.58
 1270.86        2969.50           2420       18635.00     81396.72
 1270.89        2969.75           2424       17046.00     74433.13
 1270.92        2970.00           2427       15682.00     68458.20
 1270.95        2970.25           2431       13965.00     60940.44
 1270.98        2970.50           2434       12904.00     56296.85
 1271.01        2970.75           2438       11077.00     48304.20
 1271.04        2971.00           2441        9803.00     42733.36
 1271.07        2971.25           2445        8164.00     35569.58
 1271.10        2971.50           2449        6601.00     28741.24
 1271.13        2971.75           2452        5527.00     24051.05
 1271.16        2972.00           2456        4011.00     17433.17
 1271.20        2972.25           2459        2781.00     12065.98
 1271.23        2972.50           2463        1333.00      5750.03
 1271.26        2972.75           2466         669.00      2854.68
 1271.29        2973.00           2470         237.00       971.26
 1271.32        2973.25           2473         159.00       631.23
 1271.36        2973.50           2477         120.00       461.21
 1271.39        2973.75           2481         141.00       552.76
 1271.42        2974.00           2484          96.00       356.59
 1271.46        2974.25           2488         118.00       452.49
 1271.49        2974.50           2491         101.00       378.38
 1271.52        2974.75           2495          97.00       360.95
 1271.55        2975.00           2498          97.00       360.95
 1271.58        2975.25           2502          95.00       352.23
 1271.61        2975.50           2505          91.00       334.79
 1271.64        2975.75           2509          88.00       321.71
 1271.67        2976.00           2512          88.00       321.71
 1271.70        2976.25           2516          86.00       312.99
 1271.73        2976.50           2520          96.00       356.59
 1271.76        2976.75           2523         106.00       400.18
 1271.79        2977.00           2527          89.00       326.07
 1271.82        2977.25           2530          85.00       308.63
 1271.85        2977.50           2534          88.00       321.71
 1271.88        2977.75           2537          84.00       304.28
 1271.91        2978.00           2541          87.00       317.35
 1271.94        2978.25           2544          79.00       282.48
 1271.98        2978.50           2548          74.00       260.68
 1272.01        2978.75           2552          90.00       330.43
 1272.04        2979.00           2555          84.00       304.28
 1272.07        2979.25           2559          84.00       304.28
 1272.10        2979.50           2562          72.00       251.96
 1272.13        2979.75           2566          71.00       247.60
 1272.16        2980.00           2569          79.00       282.48
 1272.19        2980.25           2573          81.00       291.20
 1272.22        2980.50           2577          75.00       265.04
 1272.25        2980.75           2580          75.00       265.04
 1272.28        2981.00           2584          76.00       269.40
 1272.31        2981.25           2587          77.00       273.76
 1272.34        2981.50           2591          72.00       251.96
 1272.37        2981.75           2594          83.00       299.92
 1272.40        2982.00           2598          71.00       247.60
 1272.43        2982.25           2601          69.00       238.89
 1272.46        2982.50           2605          81.00       291.20
 1272.50        2982.75           2609          76.00       269.40
 1272.53        2983.00           2612          77.00       273.76
 1272.56        2983.25           2616          78.00       278.12
 1272.59        2983.50           2619          72.00       251.96
 1272.62        2983.75           2623          66.00       225.81
 1272.65        2984.00           2626          71.00       247.60
HS scan finished at 21:12:52
end
