************************************************************
  HS Scan of (1) Internal mercury lamp
************************************************************
Integration time is 0.2294 seconds per sample
dh010718Reading 51.44 .94 3.58pr1000
************************************************************
Dead Time -------------------------  3.4E-08 
Number of Cycles Used -------------  4 
Starting Wavelength (Angstroms) ---  2950 
Final Wavelength (Angstoms) -------  2984 
Wavelength Increment (Angstroms) --  .25 
Filter Wheel #1 Position ---------- (1) Ground quartz diffuser (ND=2.32)
Filter Wheel #2 Position ---------- (1) Neutral Density 0.494



************************************************************
HS scan start time = 01:16:27
Dark Count =  2.8 


Time (GMT)  Wavelength (Ang)  Step Number  Raw Counts  Counts/Second

   77.35        2950.00           2144          80.00       336.53
   77.54        2950.25           2147          78.00       327.82
   77.57        2950.50           2151          77.00       323.46
   77.60        2950.75           2155          76.00       319.10
   77.64        2951.00           2158          76.00       319.10
   77.67        2951.25           2162          83.00       349.61
   77.70        2951.50           2165          79.00       332.17
   77.73        2951.75           2169          74.00       310.38
   77.76        2952.00           2172          95.00       401.92
   77.79        2952.25           2176          90.00       380.13
   77.82        2952.50           2179          90.00       380.13
   77.85        2952.75           2183          83.00       349.61
   77.88        2953.00           2186          81.00       340.89
   77.91        2953.25           2190          78.00       327.82
   77.94        2953.50           2193          86.00       362.69
   77.97        2953.75           2197          85.00       358.33
   78.00        2954.00           2200          84.00       353.97
   78.03        2954.25           2204          89.00       375.77
   78.06        2954.50           2208          97.00       410.64
   78.09        2954.75           2211          91.00       384.49
   78.12        2955.00           2215          97.00       410.64
   78.16        2955.25           2218          90.00       380.13
   78.19        2955.50           2222          87.00       367.05
   78.22        2955.75           2225          88.00       371.41
   78.25        2956.00           2229         101.00       428.08
   78.28        2956.25           2232          99.00       419.36
   78.31        2956.50           2236          89.00       375.77
   78.34        2956.75           2239          92.00       388.85
   78.37        2957.00           2243          93.00       393.20
   78.40        2957.25           2246         110.00       467.31
   78.43        2957.50           2250         110.00       467.31
   78.46        2957.75           2254         102.00       432.44
   78.49        2958.00           2257         101.00       428.08
   78.52        2958.25           2261         121.00       515.27
   78.55        2958.50           2264         131.00       558.86
   78.58        2958.75           2268         139.00       593.73
   78.61        2959.00           2271         129.00       550.14
   78.64        2959.25           2275         119.00       506.55
   78.68        2959.50           2278         147.00       628.61
   78.71        2959.75           2282         120.00       510.91
   78.74        2960.00           2285         119.00       506.55
   78.77        2960.25           2289         129.00       550.14
   78.80        2960.50           2293         157.00       672.20
   78.83        2960.75           2296         152.00       650.41
   78.86        2961.00           2300         170.00       728.88
   78.89        2961.25           2303         387.00      1674.90
   78.92        2961.50           2307        1314.00      5716.89
   78.95        2961.75           2310        2451.00     10676.06
   78.98        2962.00           2314        4271.00     18617.71
   79.01        2962.25           2317        5860.00     25554.89
   79.04        2962.50           2321        8218.00     35855.37
   79.07        2962.75           2324        9893.00     43176.68
   79.10        2963.00           2328       12263.00     53542.03
   79.13        2963.25           2331       13960.00     60968.46
   79.17        2963.50           2335       16133.00     70483.44
   79.20        2963.75           2339       18408.00     80451.66
   79.23        2964.00           2342       20316.00     88817.06
   79.26        2964.25           2346       22575.00     98727.54
   79.29        2964.50           2349       24168.00    105720.20
   79.32        2964.75           2353       26371.00    115396.10
   79.35        2965.00           2356       28046.00    122757.20
   79.38        2965.25           2360       29890.00    130865.20
   79.41        2965.50           2363       31222.00    136724.80
   79.44        2965.75           2367       33770.00    147940.20
   79.47        2966.00           2370       35349.00    154894.70
   79.50        2966.25           2374       37040.00    162346.10
   79.53        2966.50           2378       37909.00    166176.90
   79.56        2966.75           2381       38174.00    167345.30
   79.59        2967.00           2385       38274.00    167786.20
   79.62        2967.25           2388       38437.00    168504.90
   79.65        2967.50           2392       38483.00    168707.80
   79.68        2967.75           2395       37923.00    166238.60
   79.72        2968.00           2399       36971.00    162042.00
   79.75        2968.25           2402       35661.00    156269.30
   79.78        2968.50           2406       33399.00    146306.60
   79.81        2968.75           2409       32013.00    140205.60
   79.84        2969.00           2413       29984.00    131278.60
   79.87        2969.25           2417       27999.00    122550.60
   79.90        2969.50           2420       26256.00    114890.80
   79.94        2969.75           2424       24062.00    105254.80
   79.97        2970.00           2427       22213.00     97138.96
   80.00        2970.25           2431       20061.00     87698.77
   80.03        2970.50           2434       18374.00     80302.65
   80.06        2970.75           2438       16179.00     70684.93
   80.09        2971.00           2441       14405.00     62916.49
   80.12        2971.25           2445       11990.00     52347.67
   80.15        2971.50           2449        9610.00     41939.45
   80.18        2971.75           2452        7964.00     34745.47
   80.21        2972.00           2456        5797.00     25279.79
   80.24        2972.25           2459        4146.00     18072.13
   80.27        2972.50           2463        2169.00      9445.93
   80.30        2972.75           2466        1090.00      4740.08
   80.33        2973.00           2470         320.00      1382.80
   80.36        2973.25           2473         180.00       772.47
   80.39        2973.50           2477         154.00       659.13
   80.43        2973.75           2481         150.00       641.69
   80.46        2974.00           2484         141.00       602.45
   80.49        2974.25           2488         123.00       523.98
   80.52        2974.50           2491         123.00       523.98
   80.55        2974.75           2495         162.00       694.00
   80.58        2975.00           2498         128.00       545.78
   80.61        2975.25           2502         118.00       502.19
   80.64        2975.50           2505         113.00       480.39
   80.67        2975.75           2509         136.00       580.66
   80.70        2976.00           2512         111.00       471.67
   80.73        2976.25           2516         105.00       445.52
   80.76        2976.50           2520         119.00       506.55
   80.79        2976.75           2523         107.00       454.24
   80.82        2977.00           2527         101.00       428.08
   80.85        2977.25           2530         101.00       428.08
   80.88        2977.50           2534         101.00       428.08
   80.91        2977.75           2537         126.00       537.06
   80.95        2978.00           2541          92.00       388.85
   80.98        2978.25           2544         100.00       423.72
   81.01        2978.50           2548         115.00       489.11
   81.04        2978.75           2552         101.00       428.08
   81.07        2979.00           2555          97.00       410.64
   81.10        2979.25           2559          98.00       415.00
   81.13        2979.50           2562          97.00       410.64
   81.16        2979.75           2566          92.00       388.85
   81.19        2980.00           2569          87.00       367.05
   81.22        2980.25           2573          90.00       380.13
   81.25        2980.50           2577          92.00       388.85
   81.28        2980.75           2580          89.00       375.77
   81.31        2981.00           2584          93.00       393.20
   81.34        2981.25           2587         114.00       484.75
   81.37        2981.50           2591         106.00       449.88
   81.40        2981.75           2594          89.00       375.77
   81.43        2982.00           2598          82.00       345.25
   81.47        2982.25           2601          93.00       393.20
   81.50        2982.50           2605          99.00       419.36
   81.53        2982.75           2609          81.00       340.89
   81.56        2983.00           2612          85.00       358.33
   81.59        2983.25           2616          91.00       384.49
   81.62        2983.50           2619          92.00       388.85
   81.65        2983.75           2623          81.00       340.89
   81.68        2984.00           2626          84.00       353.97
HS scan finished at 01:21:54
end
************************************************************
  HS Scan of (1) Internal mercury lamp
************************************************************
Integration time is 0.2294 seconds per sample
dh010718Reading 51.44 .94 4.23pr1000
************************************************************
Dead Time -------------------------  3.4E-08 
Number of Cycles Used -------------  4 
Starting Wavelength (Angstroms) ---  2950 
Final Wavelength (Angstoms) -------  2984 
Wavelength Increment (Angstroms) --  .25 
Filter Wheel #1 Position ---------- (1) Ground quartz diffuser (ND=2.32)
Filter Wheel #2 Position ---------- (1) Neutral Density 0.494



************************************************************
HS scan start time = 21:07:23
Dark Count =  15 


Time (GMT)  Wavelength (Ang)  Step Number  Raw Counts  Counts/Second

 1268.28        2950.00           2144          63.00       209.24
 1268.47        2950.25           2147          67.00       226.68
 1268.50        2950.50           2151          66.00       222.32
 1268.53        2950.75           2155          66.00       222.32
 1268.56        2951.00           2158          69.00       235.40
 1268.59        2951.25           2162          76.00       265.91
 1268.62        2951.50           2165          74.00       257.19
 1268.65        2951.75           2169          61.00       200.52
 1268.69        2952.00           2172          64.00       213.60
 1268.72        2952.25           2176          70.00       239.76
 1268.75        2952.50           2179          70.00       239.76
 1268.78        2952.75           2183          66.00       222.32
 1268.81        2953.00           2186          70.00       239.76
 1268.84        2953.25           2190          69.00       235.40
 1268.87        2953.50           2193          80.00       283.35
 1268.90        2953.75           2197          68.00       231.04
 1268.93        2954.00           2200          70.00       239.76
 1268.96        2954.25           2204          68.00       231.04
 1268.99        2954.50           2208          68.00       231.04
 1269.02        2954.75           2211          75.00       261.55
 1269.05        2955.00           2215          70.00       239.76
 1269.08        2955.25           2218          73.00       252.84
 1269.11        2955.50           2222          70.00       239.76
 1269.14        2955.75           2225          69.00       235.40
 1269.17        2956.00           2229          66.00       222.32
 1269.21        2956.25           2232          72.00       248.48
 1269.24        2956.50           2236          81.00       287.71
 1269.27        2956.75           2239          74.00       257.19
 1269.30        2957.00           2243          79.00       278.99
 1269.33        2957.25           2246          72.00       248.48
 1269.36        2957.50           2250          75.00       261.55
 1269.39        2957.75           2254          86.00       309.51
 1269.42        2958.00           2257          82.00       292.07
 1269.45        2958.25           2261          85.00       305.15
 1269.48        2958.50           2264          80.00       283.35
 1269.51        2958.75           2268          84.00       300.79
 1269.54        2959.00           2271          80.00       283.35
 1269.57        2959.25           2275          80.00       283.35
 1269.60        2959.50           2278          88.00       318.22
 1269.63        2959.75           2282          81.00       287.71
 1269.66        2960.00           2285          91.00       331.30
 1269.69        2960.25           2289         111.00       418.49
 1269.72        2960.50           2293          95.00       348.74
 1269.76        2960.75           2296         110.00       414.13
 1269.79        2961.00           2300         164.00       649.53
 1269.82        2961.25           2303         406.00      1704.55
 1269.85        2961.50           2307        1245.00      5362.79
 1269.88        2961.75           2310        2168.00      9388.35
 1269.91        2962.00           2314        3480.00     15112.38
 1269.94        2962.25           2317        4421.00     19219.18
 1269.97        2962.50           2321        5994.00     26086.77
 1270.00        2962.75           2324        6977.00     30380.10
 1270.03        2963.00           2328        8671.00     37781.72
 1270.06        2963.25           2331        9738.00     42445.69
 1270.09        2963.50           2335       11224.00     48943.63
 1270.12        2963.75           2339       12412.00     54140.55
 1270.15        2964.00           2342       13581.00     59256.15
 1270.18        2964.25           2346       15120.00     65993.60
 1270.21        2964.50           2349       16305.00     71183.41
 1270.24        2964.75           2353       17673.00     77176.97
 1270.28        2965.00           2356       18711.00     81726.35
 1270.31        2965.25           2360       19991.00     87338.31
 1270.34        2965.50           2363       20920.00     91412.71
 1270.37        2965.75           2367       22530.00     98476.52
 1270.40        2966.00           2370       23658.00    103427.60
 1270.43        2966.25           2374       24739.00    108173.90
 1270.46        2966.50           2378       24833.00    108586.70
 1270.49        2966.75           2381       25170.00    110066.80
 1270.52        2967.00           2385       25027.00    109438.70
 1270.55        2967.25           2388       24992.00    109285.00
 1270.58        2967.50           2392       24955.00    109122.50
 1270.61        2967.75           2395       24773.00    108323.20
 1270.64        2968.00           2399       24098.00    105359.30
 1270.67        2968.25           2402       22994.00    100512.90
 1270.70        2968.50           2406       21721.00     94926.63
 1270.73        2968.75           2409       20726.00     90561.77
 1270.76        2969.00           2413       19118.00     83510.54
 1270.80        2969.25           2417       17891.00     78132.31
 1270.83        2969.50           2420       16763.00     73189.76
 1270.86        2969.75           2424       15241.00     66523.45
 1270.89        2970.00           2427       14135.00     61681.10
 1270.92        2970.25           2431       12488.00     54473.08
 1270.95        2970.50           2434       11433.00     49857.77
 1270.98        2970.75           2438        9993.00     43560.55
 1271.01        2971.00           2441        8937.00     38944.30
 1271.04        2971.25           2445        7299.00     31786.74
 1271.07        2971.50           2449        5722.00     24899.01
 1271.10        2971.75           2452        4559.00     19821.55
 1271.13        2972.00           2456        3179.00     13798.98
 1271.16        2972.25           2459        2238.00      9693.69
 1271.19        2972.50           2463        1187.00      5109.87
 1271.22        2972.75           2466         579.00      2458.79
 1271.25        2973.00           2470         194.00       780.32
 1271.28        2973.25           2473         158.00       623.38
 1271.32        2973.50           2477         110.00       414.13
 1271.35        2973.75           2481          95.00       348.74
 1271.38        2974.00           2484          95.00       348.74
 1271.41        2974.25           2488          95.00       348.74
 1271.44        2974.50           2491          88.00       318.22
 1271.47        2974.75           2495          93.00       340.02
 1271.50        2975.00           2498          93.00       340.02
 1271.53        2975.25           2502          84.00       300.79
 1271.56        2975.50           2505          90.00       326.94
 1271.59        2975.75           2509          86.00       309.51
 1271.62        2976.00           2512          80.00       283.35
 1271.65        2976.25           2516          86.00       309.51
 1271.68        2976.50           2520          75.00       261.55
 1271.71        2976.75           2523          78.00       274.63
 1271.74        2977.00           2527          74.00       257.19
 1271.77        2977.25           2530          92.00       335.66
 1271.80        2977.50           2534          71.00       244.12
 1271.84        2977.75           2537          77.00       270.27
 1271.87        2978.00           2541          79.00       278.99
 1271.90        2978.25           2544          73.00       252.84
 1271.93        2978.50           2548          79.00       278.99
 1271.96        2978.75           2552          78.00       274.63
 1271.99        2979.00           2555          71.00       244.12
 1272.02        2979.25           2559          70.00       239.76
 1272.05        2979.50           2562          70.00       239.76
 1272.08        2979.75           2566          68.00       231.04
 1272.11        2980.00           2569          74.00       257.19
 1272.14        2980.25           2573          67.00       226.68
 1272.17        2980.50           2577          77.00       270.27
 1272.20        2980.75           2580          73.00       252.84
 1272.23        2981.00           2584          73.00       252.84
 1272.26        2981.25           2587          60.00       196.17
 1272.29        2981.50           2591          64.00       213.60
 1272.32        2981.75           2594          68.00       231.04
 1272.36        2982.00           2598          71.00       244.12
 1272.39        2982.25           2601          66.00       222.32
 1272.42        2982.50           2605          66.00       222.32
 1272.45        2982.75           2609          61.00       200.52
 1272.48        2983.00           2612          69.00       235.40
 1272.51        2983.25           2616          62.00       204.88
 1272.54        2983.50           2619          71.00       244.12
 1272.57        2983.75           2623          70.00       239.76
 1272.60        2984.00           2626          61.00       200.52
HS scan finished at 21:12:49
end
