************************************************************
  HS Scan of (1) Internal mercury lamp
************************************************************
Integration time is 0.2294 seconds per sample
dh070717Reading 51.44 .94 3.7pr1000
************************************************************
Dead Time -------------------------  3.4E-08 
Number of Cycles Used -------------  4 
Starting Wavelength (Angstroms) ---  2950 
Final Wavelength (Angstoms) -------  2984 
Wavelength Increment (Angstroms) --  .25 
Filter Wheel #1 Position ---------- (1) Ground quartz diffuser (ND=2.32)
Filter Wheel #2 Position ---------- (1) Neutral Density 0.494



************************************************************
HS scan start time = 01:12:53
Dark Count =  4 


Time (GMT)  Wavelength (Ang)  Step Number  Raw Counts  Counts/Second

   73.77        2950.00           2144         383.00      1652.23
   73.97        2950.25           2147         342.00      1473.48
   74.00        2950.50           2151         374.00      1612.99
   74.03        2950.75           2155         378.00      1630.43
   74.06        2951.00           2158         353.00      1521.44
   74.09        2951.25           2162         392.00      1691.47
   74.12        2951.50           2165         373.00      1608.63
   74.15        2951.75           2169         385.00      1660.95
   74.18        2952.00           2172         379.00      1634.79
   74.21        2952.25           2176         390.00      1682.75
   74.24        2952.50           2179         383.00      1652.23
   74.27        2952.75           2183         392.00      1691.47
   74.30        2953.00           2186         424.00      1830.98
   74.33        2953.25           2190         392.00      1691.47
   74.36        2953.50           2193         387.00      1669.67
   74.40        2953.75           2197         397.00      1713.26
   74.43        2954.00           2200         396.00      1708.90
   74.46        2954.25           2204         411.00      1774.30
   74.49        2954.50           2208         409.00      1765.58
   74.52        2954.75           2211         388.00      1674.03
   74.55        2955.00           2215         391.00      1687.11
   74.58        2955.25           2218         412.00      1778.66
   74.61        2955.50           2222         402.00      1735.06
   74.64        2955.75           2225         415.00      1791.74
   74.67        2956.00           2229         423.00      1826.62
   74.70        2956.25           2232         425.00      1835.34
   74.73        2956.50           2236         426.00      1839.70
   74.76        2956.75           2239         435.00      1878.93
   74.79        2957.00           2243         460.00      1987.93
   74.82        2957.25           2246         426.00      1839.70
   74.85        2957.50           2250         453.00      1957.41
   74.88        2957.75           2254         463.00      2001.01
   74.92        2958.00           2257         440.00      1900.73
   74.95        2958.25           2261         449.00      1939.97
   74.98        2958.50           2264         473.00      2044.61
   75.01        2958.75           2268         491.00      2123.08
   75.04        2959.00           2271         485.00      2096.92
   75.07        2959.25           2275         498.00      2153.60
   75.10        2959.50           2278         487.00      2105.64
   75.13        2959.75           2282         492.00      2127.44
   75.16        2960.00           2285         532.00      2301.84
   75.19        2960.25           2289         521.00      2253.88
   75.22        2960.50           2293         549.00      2375.96
   75.25        2960.75           2296         578.00      2502.39
   75.28        2961.00           2300         630.00      2729.11
   75.31        2961.25           2303         896.00      3888.92
   75.34        2961.50           2307        3334.00     14523.30
   75.37        2961.75           2310        7550.00     32931.36
   75.40        2962.00           2314       15258.00     66646.05
   75.44        2962.25           2317       21534.00     94154.46
   75.47        2962.50           2321       30028.00    131466.90
   75.50        2962.75           2324       36690.00    160798.20
   75.53        2963.00           2328       46394.00    203628.10
   75.56        2963.25           2331       54177.00    238070.10
   75.59        2963.50           2335       63811.00    280815.80
   75.62        2963.75           2339       73015.00    321770.50
   75.65        2964.00           2342       80102.00    353383.50
   75.68        2964.25           2346       89871.00    397072.70
   75.71        2964.50           2349       96596.00    427224.50
   75.74        2964.75           2353      106465.00    471585.70
   75.77        2965.00           2356      113680.00    504102.70
   75.80        2965.25           2360      123496.00    548458.80
   75.83        2965.50           2363      131054.00    582703.80
   75.88        2965.75           2367      139419.00    620699.50
   75.91        2966.00           2370      145443.00    648123.40
   75.94        2966.25           2374      152906.00    682170.10
   75.97        2966.50           2378      158096.00    705894.30
   76.00        2966.75           2381      159567.00    712625.60
   76.03        2967.00           2385      159614.00    712840.80
   76.06        2967.25           2388      159973.00    714484.00
   76.09        2967.50           2392      159740.00    713417.50
   76.12        2967.75           2395      159126.00    710607.30
   76.15        2968.00           2399      155649.00    694704.00
   76.18        2968.25           2402      150439.00    670906.60
   76.22        2968.50           2406      141654.00    630868.10
   76.25        2968.75           2409      134809.00    599747.60
   76.28        2969.00           2413      125716.00    558509.10
   76.31        2969.25           2417      116856.00    518439.40
   76.34        2969.50           2420      110549.00    489982.80
   76.37        2969.75           2424      102216.00    452469.90
   76.40        2970.00           2427       94922.00    419713.30
   76.43        2970.25           2431       85043.00    375464.50
   76.46        2970.50           2434       77767.00    342960.20
   76.49        2970.75           2438       67710.00    298151.00
   76.52        2971.00           2441       60182.00    264699.40
   76.55        2971.25           2445       51226.00    225001.50
   76.58        2971.50           2449       41843.00    183526.10
   76.61        2971.75           2452       34431.00    150845.80
   76.64        2972.00           2456       25150.00    110027.20
   76.67        2972.25           2459       18866.00     82454.03
   76.70        2972.50           2463       10666.00     46551.39
   76.74        2972.75           2466        5631.00     24549.69
   76.77        2973.00           2470        1622.00      7054.87
   76.80        2973.25           2473         877.00      3806.07
   76.83        2973.50           2477         643.00      2785.79
   76.86        2973.75           2481         628.00      2720.39
   76.89        2974.00           2484         578.00      2502.39
   76.92        2974.25           2488         551.00      2384.67
   76.95        2974.50           2491         539.00      2332.36
   76.98        2974.75           2495         551.00      2384.67
   77.01        2975.00           2498         531.00      2297.48
   77.04        2975.25           2502         523.00      2262.60
   77.07        2975.50           2505         520.00      2249.52
   77.10        2975.75           2509         509.00      2201.56
   77.13        2976.00           2512         528.00      2284.40
   77.16        2976.25           2516         487.00      2105.64
   77.19        2976.50           2520         477.00      2062.05
   77.22        2976.75           2523         456.00      1970.49
   77.25        2977.00           2527         458.00      1979.21
   77.29        2977.25           2530         459.00      1983.57
   77.32        2977.50           2534         452.00      1953.05
   77.35        2977.75           2537         446.00      1926.89
   77.38        2978.00           2541         452.00      1953.05
   77.41        2978.25           2544         449.00      1939.97
   77.44        2978.50           2548         433.00      1870.21
   77.47        2978.75           2552         438.00      1892.01
   77.50        2979.00           2555         419.00      1809.18
   77.53        2979.25           2559         412.00      1778.66
   77.56        2979.50           2562         420.00      1813.54
   77.59        2979.75           2566         405.00      1748.14
   77.62        2980.00           2569         411.00      1774.30
   77.65        2980.25           2573         399.00      1721.98
   77.68        2980.50           2577         392.00      1691.47
   77.71        2980.75           2580         408.00      1761.22
   77.74        2981.00           2584         421.00      1817.90
   77.78        2981.25           2587         386.00      1665.31
   77.81        2981.50           2591         380.00      1639.15
   77.84        2981.75           2594         390.00      1682.75
   77.87        2982.00           2598         388.00      1674.03
   77.90        2982.25           2601         397.00      1713.26
   77.93        2982.50           2605         378.00      1630.43
   77.96        2982.75           2609         378.00      1630.43
   77.99        2983.00           2612         387.00      1669.67
   78.02        2983.25           2616         401.00      1730.70
   78.05        2983.50           2619         384.00      1656.59
   78.08        2983.75           2623         370.00      1595.55
   78.11        2984.00           2626         360.00      1551.96
HS scan finished at 01:18:20
end
************************************************************
  HS Scan of (1) Internal mercury lamp
************************************************************
Integration time is 0.2294 seconds per sample
dh070717Reading 51.44 .94 3.84pr1000
************************************************************
Dead Time -------------------------  3.4E-08 
Number of Cycles Used -------------  4 
Starting Wavelength (Angstroms) ---  2950 
Final Wavelength (Angstoms) -------  2984 
Wavelength Increment (Angstroms) --  .25 
Filter Wheel #1 Position ---------- (1) Ground quartz diffuser (ND=2.32)
Filter Wheel #2 Position ---------- (1) Neutral Density 0.494



************************************************************
HS scan start time = 21:07:24
Dark Count =  6.3 


Time (GMT)  Wavelength (Ang)  Step Number  Raw Counts  Counts/Second

 1268.29        2950.00           2144         271.00      1153.93
 1268.48        2950.25           2147         250.00      1062.37
 1268.51        2950.50           2151         267.00      1136.49
 1268.54        2950.75           2155         250.00      1062.37
 1268.58        2951.00           2158         249.00      1058.02
 1268.61        2951.25           2162         273.00      1162.64
 1268.64        2951.50           2165         242.00      1027.50
 1268.67        2951.75           2169         271.00      1153.93
 1268.70        2952.00           2172         265.00      1127.77
 1268.73        2952.25           2176         248.00      1053.66
 1268.76        2952.50           2179         279.00      1188.80
 1268.79        2952.75           2183         282.00      1201.88
 1268.82        2953.00           2186         276.00      1175.72
 1268.85        2953.25           2190         280.00      1193.16
 1268.88        2953.50           2193         268.00      1140.85
 1268.91        2953.75           2197         286.00      1219.32
 1268.94        2954.00           2200         282.00      1201.88
 1268.97        2954.25           2204         261.00      1110.33
 1269.00        2954.50           2208         315.00      1345.75
 1269.03        2954.75           2211         279.00      1188.80
 1269.06        2955.00           2215         275.00      1171.36
 1269.10        2955.25           2218         275.00      1171.36
 1269.13        2955.50           2222         282.00      1201.88
 1269.16        2955.75           2225         294.00      1254.19
 1269.19        2956.00           2229         319.00      1363.18
 1269.22        2956.25           2232         280.00      1193.16
 1269.25        2956.50           2236         299.00      1275.99
 1269.28        2956.75           2239         314.00      1341.39
 1269.31        2957.00           2243         281.00      1197.52
 1269.34        2957.25           2246         302.00      1289.07
 1269.37        2957.50           2250         314.00      1341.39
 1269.40        2957.75           2254         296.00      1262.91
 1269.43        2958.00           2257         318.00      1358.83
 1269.46        2958.25           2261         321.00      1371.90
 1269.49        2958.50           2264         296.00      1262.91
 1269.52        2958.75           2268         329.00      1406.78
 1269.55        2959.00           2271         333.00      1424.22
 1269.58        2959.25           2275         326.00      1393.70
 1269.61        2959.50           2278         334.00      1428.58
 1269.65        2959.75           2282         361.00      1546.29
 1269.68        2960.00           2285         379.00      1624.76
 1269.71        2960.25           2289         374.00      1602.96
 1269.74        2960.50           2293         374.00      1602.96
 1269.77        2960.75           2296         401.00      1720.68
 1269.80        2961.00           2300         474.00      2038.94
 1269.83        2961.25           2303         981.00      4249.52
 1269.86        2961.50           2307        3547.00     15442.72
 1269.89        2961.75           2310        6915.00     30147.28
 1269.92        2962.00           2314       12259.00     53509.21
 1269.95        2962.25           2317       16573.00     72395.51
 1269.98        2962.50           2321       22418.00     98023.18
 1270.01        2962.75           2324       26681.00    116742.80
 1270.04        2963.00           2328       32832.00    143795.00
 1270.07        2963.25           2331       37588.00    164746.30
 1270.10        2963.50           2335       44273.00    194246.00
 1270.13        2963.75           2339       50954.00    223787.40
 1270.17        2964.00           2342       55526.00    244037.80
 1270.20        2964.25           2346       61765.00    271717.10
 1270.23        2964.50           2349       65347.00    287632.20
 1270.26        2964.75           2353       72156.00    317933.10
 1270.29        2965.00           2356       76578.00    337645.20
 1270.33        2965.25           2360       82591.00    364492.30
 1270.36        2965.50           2363       87376.00    385891.80
 1270.40        2965.75           2367       93085.00    411464.80
 1270.43        2966.00           2370       97239.00    430100.40
 1270.46        2966.25           2374      102245.00    452590.00
 1270.49        2966.50           2378      106210.00    470427.40
 1270.52        2966.75           2381      107859.00    477852.20
 1270.55        2967.00           2385      107631.00    476825.40
 1270.58        2967.25           2388      108764.00    481928.70
 1270.61        2967.50           2392      108352.00    480072.70
 1270.64        2967.75           2395      107802.00    477595.50
 1270.67        2968.00           2399      105401.00    466786.20
 1270.70        2968.25           2402      102858.00    455346.20
 1270.73        2968.50           2406       97221.00    430019.60
 1270.76        2968.75           2409       92090.00    407004.50
 1270.79        2969.00           2413       86098.00    380173.20
 1270.82        2969.25           2417       79258.00    349604.90
 1270.85        2969.50           2420       74490.00    328334.20
 1270.88        2969.75           2424       68344.00    300961.60
 1270.91        2970.00           2427       64016.00    281716.50
 1270.95        2970.25           2431       56407.00    247943.20
 1270.98        2970.50           2434       51486.00    226142.30
 1271.01        2970.75           2438       45302.00    198792.00
 1271.04        2971.00           2441       40371.00    177020.00
 1271.07        2971.25           2445       34597.00    151566.80
 1271.10        2971.50           2449       28468.00    124596.90
 1271.13        2971.75           2452       23671.00    103522.80
 1271.16        2972.00           2456       17077.00     74603.55
 1271.19        2972.25           2459       12119.00     52896.71
 1271.22        2972.50           2463        6396.00     27880.39
 1271.25        2972.75           2466        3285.00     14299.45
 1271.28        2973.00           2470        1087.00      4711.74
 1271.31        2973.25           2473         560.00      2413.89
 1271.34        2973.50           2477         464.00      1995.34
 1271.37        2973.75           2481         432.00      1855.83
 1271.40        2974.00           2484         407.00      1746.83
 1271.43        2974.25           2488         398.00      1707.60
 1271.47        2974.50           2491         377.00      1616.04
 1271.50        2974.75           2495         346.00      1480.89
 1271.53        2975.00           2498         359.00      1537.57
 1271.56        2975.25           2502         361.00      1546.29
 1271.59        2975.50           2505         354.00      1515.77
 1271.62        2975.75           2509         367.00      1572.45
 1271.65        2976.00           2512         359.00      1537.57
 1271.68        2976.25           2516         354.00      1515.77
 1271.71        2976.50           2520         330.00      1411.14
 1271.74        2976.75           2523         330.00      1411.14
 1271.77        2977.00           2527         302.00      1289.07
 1271.80        2977.25           2530         314.00      1341.39
 1271.83        2977.50           2534         317.00      1354.47
 1271.86        2977.75           2537         307.00      1310.87
 1271.89        2978.00           2541         298.00      1271.63
 1271.92        2978.25           2544         279.00      1188.80
 1271.95        2978.50           2548         302.00      1289.07
 1271.99        2978.75           2552         304.00      1297.79
 1272.02        2979.00           2555         289.00      1232.40
 1272.05        2979.25           2559         285.00      1214.96
 1272.08        2979.50           2562         276.00      1175.72
 1272.11        2979.75           2566         277.00      1180.08
 1272.14        2980.00           2569         293.00      1249.84
 1272.17        2980.25           2573         290.00      1236.76
 1272.20        2980.50           2577         265.00      1127.77
 1272.23        2980.75           2580         275.00      1171.36
 1272.26        2981.00           2584         294.00      1254.19
 1272.29        2981.25           2587         287.00      1223.68
 1272.32        2981.50           2591         258.00      1097.25
 1272.35        2981.75           2594         268.00      1140.85
 1272.38        2982.00           2598         264.00      1123.41
 1272.41        2982.25           2601         260.00      1105.97
 1272.44        2982.50           2605         282.00      1201.88
 1272.47        2982.75           2609         267.00      1136.49
 1272.51        2983.00           2612         248.00      1053.66
 1272.54        2983.25           2616         258.00      1097.25
 1272.57        2983.50           2619         264.00      1123.41
 1272.60        2983.75           2623         252.00      1071.09
 1272.63        2984.00           2626         247.00      1049.30
HS scan finished at 21:12:51
end
