************************************************************
  HS Scan of (1) Internal mercury lamp
************************************************************
Integration time is 0.2294 seconds per sample
dh030717Reading 51.44 .94 3.45pr1000
************************************************************
Dead Time -------------------------  3.4E-08 
Number of Cycles Used -------------  4 
Starting Wavelength (Angstroms) ---  2950 
Final Wavelength (Angstoms) -------  2984 
Wavelength Increment (Angstroms) --  .25 
Filter Wheel #1 Position ---------- (1) Ground quartz diffuser (ND=2.32)
Filter Wheel #2 Position ---------- (1) Neutral Density 0.494



************************************************************
HS scan start time = 01:21:30
Dark Count =  2.2 


Time (GMT)  Wavelength (Ang)  Step Number  Raw Counts  Counts/Second

   82.40        2950.00           2144         291.00      1258.99
   82.60        2950.25           2147         284.00      1228.47
   82.63        2950.50           2151         285.00      1232.83
   82.66        2950.75           2155         278.00      1202.32
   82.69        2951.00           2158         302.00      1306.95
   82.72        2951.25           2162         288.00      1245.91
   82.75        2951.50           2165         285.00      1232.83
   82.78        2951.75           2169         286.00      1237.19
   82.81        2952.00           2172         283.00      1224.11
   82.84        2952.25           2176         277.00      1197.96
   82.87        2952.50           2179         295.00      1276.43
   82.90        2952.75           2183         291.00      1258.99
   82.93        2953.00           2186         293.00      1267.71
   82.96        2953.25           2190         296.00      1280.79
   82.99        2953.50           2193         291.00      1258.99
   83.02        2953.75           2197         292.00      1263.35
   83.06        2954.00           2200         291.00      1258.99
   83.09        2954.25           2204         302.00      1306.95
   83.12        2954.50           2208         309.00      1337.46
   83.16        2954.75           2211         295.00      1276.43
   83.19        2955.00           2215         298.00      1289.51
   83.22        2955.25           2218         321.00      1389.78
   83.25        2955.50           2222         294.00      1272.07
   83.28        2955.75           2225         335.00      1450.81
   83.31        2956.00           2229         340.00      1472.61
   83.34        2956.25           2232         324.00      1402.86
   83.37        2956.50           2236         318.00      1376.70
   83.40        2956.75           2239         327.00      1415.94
   83.44        2957.00           2243         326.00      1411.58
   83.47        2957.25           2246         338.00      1463.89
   83.50        2957.50           2250         345.00      1494.41
   83.53        2957.75           2254         344.00      1490.05
   83.56        2958.00           2257         375.00      1625.20
   83.59        2958.25           2261         349.00      1511.85
   83.62        2958.50           2264         365.00      1581.60
   83.65        2958.75           2268         368.00      1594.68
   83.68        2959.00           2271         380.00      1647.00
   83.71        2959.25           2275         368.00      1594.68
   83.74        2959.50           2278         373.00      1616.48
   83.77        2959.75           2282         377.00      1633.92
   83.80        2960.00           2285         415.00      1799.59
   83.83        2960.25           2289         425.00      1843.18
   83.86        2960.50           2293         418.00      1812.67
   83.89        2960.75           2296         444.00      1926.02
   83.92        2961.00           2300         494.00      2144.01
   83.96        2961.25           2303         745.00      3238.37
   83.99        2961.50           2307        2766.00     12052.89
   84.02        2961.75           2310        6295.00     27457.18
   84.05        2962.00           2314       12387.00     54087.17
   84.08        2962.25           2317       17625.00     77022.73
   84.11        2962.50           2321       23856.00    104353.00
   84.14        2962.75           2324       28902.00    126523.10
   84.17        2963.00           2328       36584.00    160339.00
   84.20        2963.25           2331       41984.00    184156.50
   84.23        2963.50           2335       48932.00    214858.60
   84.26        2963.75           2339       55545.00    244140.20
   84.29        2964.00           2342       60534.00    266269.80
   84.32        2964.25           2346       67989.00    299400.20
   84.35        2964.50           2349       72910.00    321310.60
   84.38        2964.75           2353       79494.00    350676.80
   84.41        2965.00           2356       83814.00    369977.10
   84.44        2965.25           2360       90461.00    399723.50
   84.47        2965.50           2363       94704.00    418743.40
   84.51        2965.75           2367      102065.00    451799.10
   84.54        2966.00           2370      107121.00    474547.30
   84.57        2966.25           2374      111766.00    495477.60
   84.60        2966.50           2378      114354.00    507152.10
   84.63        2966.75           2381      115162.00    510798.90
   84.66        2967.00           2385      115330.00    511557.30
   84.69        2967.25           2388      114100.00    506005.90
   84.72        2967.50           2392      115203.00    510984.00
   84.75        2967.75           2395      113982.00    505473.40
   84.78        2968.00           2399      111058.00    492285.40
   84.81        2968.25           2402      106753.00    472890.30
   84.84        2968.50           2406      100358.00    444126.90
   84.87        2968.75           2409       95793.00    423629.10
   84.90        2969.00           2413       89226.00    394192.10
   84.93        2969.25           2417       82095.00    362294.10
   84.96        2969.50           2420       77134.00    340143.80
   85.00        2969.75           2424       70932.00    312499.80
   85.03        2970.00           2427       65840.00    289842.30
   85.06        2970.25           2431       59224.00    260455.90
   85.09        2970.50           2434       54357.00    238875.60
   85.12        2970.75           2438       46992.00    206279.50
   85.15        2971.00           2441       41399.00    181574.40
   85.18        2971.25           2445       34270.00    150144.70
   85.21        2971.50           2449       28116.00    123067.50
   85.24        2971.75           2452       23482.00    102711.20
   85.27        2972.00           2456       17281.00     75515.35
   85.30        2972.25           2459       12252.00     53496.53
   85.33        2972.50           2463        6071.00     26478.93
   85.36        2972.75           2466        2846.00     12401.92
   85.39        2973.00           2470         951.00      4136.59
   85.42        2973.25           2473         563.00      2444.84
   85.45        2973.50           2477         458.00      1987.06
   85.48        2973.75           2481         468.00      2030.65
   85.52        2974.00           2484         462.00      2004.50
   85.55        2974.25           2488         443.00      1921.66
   85.58        2974.50           2491         408.00      1769.07
   85.61        2974.75           2495         406.00      1760.35
   85.64        2975.00           2498         389.00      1686.23
   85.67        2975.25           2502         410.00      1777.79
   85.70        2975.50           2505         414.00      1795.23
   85.73        2975.75           2509         369.00      1599.04
   85.76        2976.00           2512         397.00      1721.11
   85.79        2976.25           2516         370.00      1603.40
   85.82        2976.50           2520         358.00      1551.08
   85.85        2976.75           2523         371.00      1607.76
   85.88        2977.00           2527         362.00      1568.52
   85.91        2977.25           2530         340.00      1472.61
   85.94        2977.50           2534         354.00      1533.65
   85.97        2977.75           2537         342.00      1481.33
   86.00        2978.00           2541         326.00      1411.58
   86.03        2978.25           2544         347.00      1503.13
   86.07        2978.50           2548         331.00      1433.37
   86.10        2978.75           2552         326.00      1411.58
   86.13        2979.00           2555         330.00      1429.01
   86.16        2979.25           2559         326.00      1411.58
   86.19        2979.50           2562         325.00      1407.22
   86.22        2979.75           2566         323.00      1398.50
   86.25        2980.00           2569         312.00      1350.54
   86.28        2980.25           2573         307.00      1328.74
   86.31        2980.50           2577         291.00      1258.99
   86.34        2980.75           2580         302.00      1306.95
   86.37        2981.00           2584         297.00      1285.15
   86.40        2981.25           2587         314.00      1359.26
   86.43        2981.50           2591         313.00      1354.90
   86.46        2981.75           2594         290.00      1254.63
   86.49        2982.00           2598         299.00      1293.87
   86.52        2982.25           2601         280.00      1211.03
   86.55        2982.50           2605         284.00      1228.47
   86.59        2982.75           2609         279.00      1206.68
   86.62        2983.00           2612         284.00      1228.47
   86.65        2983.25           2616         298.00      1289.51
   86.68        2983.50           2619         306.00      1324.38
   86.72        2983.75           2623         285.00      1232.83
   86.75        2984.00           2626         293.00      1267.71
HS scan finished at 01:26:59
end
************************************************************
  HS Scan of (1) Internal mercury lamp
************************************************************
Integration time is 0.2294 seconds per sample
dh030717Reading 51.44 .94 3.76pr1000
************************************************************
Dead Time -------------------------  3.4E-08 
Number of Cycles Used -------------  4 
Starting Wavelength (Angstroms) ---  2950 
Final Wavelength (Angstoms) -------  2984 
Wavelength Increment (Angstroms) --  .25 
Filter Wheel #1 Position ---------- (1) Ground quartz diffuser (ND=2.32)
Filter Wheel #2 Position ---------- (1) Neutral Density 0.494



************************************************************
HS scan start time = 21:07:28
Dark Count =  5.7 


Time (GMT)  Wavelength (Ang)  Step Number  Raw Counts  Counts/Second

 1268.36        2950.00           2144         273.00      1165.26
 1268.55        2950.25           2147         275.00      1173.98
 1268.58        2950.50           2151         286.00      1221.93
 1268.61        2950.75           2155         286.00      1221.93
 1268.64        2951.00           2158         290.00      1239.37
 1268.67        2951.25           2162         271.00      1156.54
 1268.70        2951.50           2165         276.00      1178.34
 1268.73        2951.75           2169         281.00      1200.14
 1268.76        2952.00           2172         285.00      1217.57
 1268.80        2952.25           2176         287.00      1226.29
 1268.83        2952.50           2179         290.00      1239.37
 1268.86        2952.75           2183         290.00      1239.37
 1268.89        2953.00           2186         298.00      1274.25
 1268.92        2953.25           2190         298.00      1274.25
 1268.95        2953.50           2193         286.00      1221.93
 1268.98        2953.75           2197         286.00      1221.93
 1269.01        2954.00           2200         294.00      1256.81
 1269.04        2954.25           2204         301.00      1287.33
 1269.07        2954.50           2208         299.00      1278.61
 1269.10        2954.75           2211         292.00      1248.09
 1269.13        2955.00           2215         326.00      1396.32
 1269.16        2955.25           2218         295.00      1261.17
 1269.19        2955.50           2222         313.00      1339.64
 1269.22        2955.75           2225         332.00      1422.48
 1269.25        2956.00           2229         304.00      1300.41
 1269.28        2956.25           2232         327.00      1400.68
 1269.31        2956.50           2236         304.00      1300.41
 1269.35        2956.75           2239         323.00      1383.24
 1269.38        2957.00           2243         316.00      1352.72
 1269.41        2957.25           2246         336.00      1439.91
 1269.44        2957.50           2250         324.00      1387.60
 1269.47        2957.75           2254         318.00      1361.44
 1269.50        2958.00           2257         372.00      1596.86
 1269.53        2958.25           2261         352.00      1509.67
 1269.56        2958.50           2264         331.00      1418.12
 1269.59        2958.75           2268         355.00      1522.75
 1269.62        2959.00           2271         367.00      1575.06
 1269.65        2959.25           2275         347.00      1487.87
 1269.68        2959.50           2278         359.00      1540.19
 1269.71        2959.75           2282         404.00      1736.37
 1269.74        2960.00           2285         362.00      1553.26
 1269.77        2960.25           2289         386.00      1657.90
 1269.80        2960.50           2293         395.00      1697.13
 1269.83        2960.75           2296         406.00      1745.09
 1269.87        2961.00           2300         448.00      1928.20
 1269.90        2961.25           2303         626.00      2704.26
 1269.93        2961.50           2307        2084.00      9062.51
 1269.96        2961.75           2310        4991.00     21747.98
 1269.99        2962.00           2314       10367.00     45236.48
 1270.02        2962.25           2317       15093.00     65916.10
 1270.05        2962.50           2321       21514.00     94059.27
 1270.08        2962.75           2324       26298.00    115062.60
 1270.11        2963.00           2328       32648.00    142987.70
 1270.14        2963.25           2331       37235.00    163192.90
 1270.17        2963.50           2335       43928.00    192724.70
 1270.20        2963.75           2339       50342.00    221081.50
 1270.23        2964.00           2342       55470.00    243792.30
 1270.26        2964.25           2346       63104.00    277667.00
 1270.29        2964.50           2349       68610.00    302147.80
 1270.32        2964.75           2353       74592.00    328791.50
 1270.36        2965.00           2356       79058.00    348714.70
 1270.39        2965.25           2360       84901.00    374821.80
 1270.42        2965.50           2363       89737.00    396464.90
 1270.45        2965.75           2367       96489.00    426736.70
 1270.48        2966.00           2370      101429.00    448924.40
 1270.51        2966.25           2374      107243.00    475080.80
 1270.54        2966.50           2378      111450.00    494037.00
 1270.57        2966.75           2381      112834.00    500278.40
 1270.60        2967.00           2385      113368.00    502687.30
 1270.63        2967.25           2388      113369.00    502691.80
 1270.66        2967.50           2392      113162.00    501758.00
 1270.69        2967.75           2395      112414.00    498384.10
 1270.72        2968.00           2399      110243.00    488595.90
 1270.75        2968.25           2402      106666.00    472482.90
 1270.78        2968.50           2406      100578.00    445099.80
 1270.81        2968.75           2409       97054.00    429272.60
 1270.84        2969.00           2413       91227.00    403139.70
 1270.87        2969.25           2417       84429.00    372711.10
 1270.91        2969.50           2420       79388.00    350187.90
 1270.94        2969.75           2424       72263.00    318412.50
 1270.97        2970.00           2427       67454.00    297004.60
 1271.00        2970.25           2431       60326.00    265331.00
 1271.03        2970.50           2434       55512.00    243978.50
 1271.06        2970.75           2438       48338.00    212215.80
 1271.09        2971.00           2441       43254.00    189748.10
 1271.12        2971.25           2445       36787.00    161218.30
 1271.15        2971.50           2449       30630.00    134107.50
 1271.18        2971.75           2452       25405.00    111139.80
 1271.21        2972.00           2456       19053.00     83266.35
 1271.24        2972.25           2459       14288.00     62391.59
 1271.27        2972.50           2463        8504.00     37092.52
 1271.30        2972.75           2466        4516.00     19674.45
 1271.33        2973.00           2470        1353.00      5874.32
 1271.36        2973.25           2473         643.00      2778.38
 1271.40        2973.50           2477         496.00      2137.47
 1271.43        2973.75           2481         442.00      1902.04
 1271.46        2974.00           2484         424.00      1823.57
 1271.49        2974.25           2488         435.00      1871.52
 1271.52        2974.50           2491         415.00      1784.33
 1271.55        2974.75           2495         397.00      1705.85
 1271.58        2975.00           2498         391.00      1679.70
 1271.61        2975.25           2502         408.00      1753.81
 1271.64        2975.50           2505         377.00      1618.66
 1271.67        2975.75           2509         383.00      1644.82
 1271.70        2976.00           2512         350.00      1500.95
 1271.73        2976.25           2516         382.00      1640.46
 1271.76        2976.50           2520         341.00      1461.71
 1271.79        2976.75           2523         331.00      1418.12
 1271.82        2977.00           2527         331.00      1418.12
 1271.85        2977.25           2530         334.00      1431.19
 1271.88        2977.50           2534         343.00      1470.43
 1271.91        2977.75           2537         334.00      1431.19
 1271.95        2978.00           2541         312.00      1335.28
 1271.98        2978.25           2544         323.00      1383.24
 1272.01        2978.50           2548         328.00      1405.04
 1272.04        2978.75           2552         329.00      1409.40
 1272.07        2979.00           2555         300.00      1282.97
 1272.10        2979.25           2559         327.00      1400.68
 1272.13        2979.50           2562         313.00      1339.64
 1272.16        2979.75           2566         300.00      1282.97
 1272.19        2980.00           2569         318.00      1361.44
 1272.22        2980.25           2573         316.00      1352.72
 1272.25        2980.50           2577         301.00      1287.33
 1272.28        2980.75           2580         306.00      1309.13
 1272.31        2981.00           2584         289.00      1235.01
 1272.34        2981.25           2587         292.00      1248.09
 1272.37        2981.50           2591         296.00      1265.53
 1272.40        2981.75           2594         300.00      1282.97
 1272.43        2982.00           2598         281.00      1200.14
 1272.47        2982.25           2601         282.00      1204.50
 1272.50        2982.50           2605         277.00      1182.70
 1272.53        2982.75           2609         285.00      1217.57
 1272.56        2983.00           2612         281.00      1200.14
 1272.59        2983.25           2616         278.00      1187.06
 1272.62        2983.50           2619         275.00      1173.98
 1272.65        2983.75           2623         284.00      1213.21
 1272.68        2984.00           2626         291.00      1243.73
HS scan finished at 21:12:54
end
