************************************************************
  HS Scan of (1) Internal mercury lamp
************************************************************
Integration time is 0.2294 seconds per sample
dh300618Reading 51.44 .94 3.47pr1000
************************************************************
Dead Time -------------------------  3.4E-08 
Number of Cycles Used -------------  4 
Starting Wavelength (Angstroms) ---  2950 
Final Wavelength (Angstoms) -------  2984 
Wavelength Increment (Angstroms) --  .25 
Filter Wheel #1 Position ---------- (1) Ground quartz diffuser (ND=2.32)
Filter Wheel #2 Position ---------- (1) Neutral Density 0.494



************************************************************
HS scan start time = 01:11:34
Dark Count =  2.4 


Time (GMT)  Wavelength (Ang)  Step Number  Raw Counts  Counts/Second

   72.46        2950.00           2144          82.00       347.00
   72.65        2950.25           2147          75.00       316.48
   72.68        2950.50           2151          80.00       338.28
   72.71        2950.75           2155          78.00       329.56
   72.74        2951.00           2158          80.00       338.28
   72.78        2951.25           2162          79.00       333.92
   72.81        2951.50           2165          67.00       281.61
   72.84        2951.75           2169          79.00       333.92
   72.87        2952.00           2172          74.00       312.12
   72.90        2952.25           2176          67.00       281.61
   72.93        2952.50           2179          73.00       307.76
   72.96        2952.75           2183          79.00       333.92
   72.99        2953.00           2186          75.00       316.48
   73.02        2953.25           2190          79.00       333.92
   73.05        2953.50           2193          69.00       290.33
   73.08        2953.75           2197          85.00       360.07
   73.11        2954.00           2200          86.00       364.43
   73.14        2954.25           2204          81.00       342.64
   73.17        2954.50           2208          74.00       312.12
   73.20        2954.75           2211          86.00       364.43
   73.23        2955.00           2215          78.00       329.56
   73.26        2955.25           2218          86.00       364.43
   73.30        2955.50           2222          81.00       342.64
   73.33        2955.75           2225          84.00       355.71
   73.36        2956.00           2229          86.00       364.43
   73.39        2956.25           2232          83.00       351.36
   73.42        2956.50           2236          91.00       386.23
   73.45        2956.75           2239          88.00       373.15
   73.48        2957.00           2243          92.00       390.59
   73.51        2957.25           2246         126.00       538.81
   73.54        2957.50           2250          91.00       386.23
   73.57        2957.75           2254          94.00       399.31
   73.60        2958.00           2257          98.00       416.75
   73.63        2958.25           2261         116.00       495.21
   73.66        2958.50           2264          93.00       394.95
   73.69        2958.75           2268          94.00       399.31
   73.73        2959.00           2271         108.00       460.34
   73.76        2959.25           2275         106.00       451.62
   73.79        2959.50           2278         106.00       451.62
   73.82        2959.75           2282         109.00       464.70
   73.85        2960.00           2285         128.00       547.53
   73.88        2960.25           2289         112.00       477.78
   73.91        2960.50           2293         129.00       551.88
   73.94        2960.75           2296         128.00       547.53
   73.97        2961.00           2300         157.00       673.95
   74.00        2961.25           2303         360.00      1558.93
   74.04        2961.50           2307        1330.00      5788.41
   74.07        2961.75           2310        2423.00     10555.66
   74.10        2962.00           2314        4062.00     17707.26
   74.13        2962.25           2317        5526.00     24098.20
   74.16        2962.50           2321        7220.00     31496.66
   74.19        2962.75           2324        8628.00     37648.86
   74.22        2963.00           2328       10415.00     45460.80
   74.25        2963.25           2331       12105.00     52852.52
   74.28        2963.50           2335       14247.00     62226.55
   74.31        2963.75           2339       16436.00     71812.44
   74.34        2964.00           2342       17871.00     78099.88
   74.37        2964.25           2346       19717.00     86192.06
   74.40        2964.50           2349       21166.00     92547.07
   74.43        2964.75           2353       23096.00    101015.90
   74.46        2965.00           2356       24562.00    107452.00
   74.49        2965.25           2360       26569.00    116267.80
   74.53        2965.50           2363       27731.00    121374.30
   74.56        2965.75           2367       29385.00    128646.00
   74.59        2966.00           2370       30708.00    134465.10
   74.62        2966.25           2374       32254.00    141268.00
   74.65        2966.50           2378       33273.00    145753.70
   74.68        2966.75           2381       33915.00    148580.40
   74.71        2967.00           2385       34552.00    151385.80
   74.74        2967.25           2388       34646.00    151799.80
   74.77        2967.50           2392       34367.00    150571.00
   74.80        2967.75           2395       34489.00    151108.30
   74.83        2968.00           2399       33481.00    146669.40
   74.86        2968.25           2402       32579.00    142698.50
   74.89        2968.50           2406       30741.00    134610.30
   74.92        2968.75           2409       29123.00    127493.90
   74.95        2969.00           2413       26750.00    117063.10
   74.98        2969.25           2417       24577.00    107517.90
   75.01        2969.50           2420       22905.00    100177.60
   75.05        2969.75           2424       20841.00     91121.46
   75.08        2970.00           2427       19287.00     84306.71
   75.11        2970.25           2431       17138.00     74887.91
   75.14        2970.50           2434       15545.00     67909.88
   75.17        2970.75           2438       13546.00     59158.11
   75.20        2971.00           2441       12170.00     53136.89
   75.23        2971.25           2445       10182.00     44441.99
   75.26        2971.50           2449        8221.00     35870.23
   75.29        2971.75           2452        6839.00     29832.34
   75.32        2972.00           2456        4967.00     21657.62
   75.35        2972.25           2459        3563.00     15529.56
   75.38        2972.50           2463        1783.00      7764.04
   75.41        2972.75           2466         853.00      3708.40
   75.44        2973.00           2470         272.00      1175.29
   75.47        2973.25           2473         163.00       700.10
   75.50        2973.50           2477         148.00       634.71
   75.53        2973.75           2481         146.00       625.99
   75.57        2974.00           2484         137.00       586.76
   75.60        2974.25           2488         132.00       564.96
   75.63        2974.50           2491         108.00       460.34
   75.66        2974.75           2495         103.00       438.54
   75.69        2975.00           2498         145.00       621.63
   75.72        2975.25           2502         111.00       473.42
   75.75        2975.50           2505         106.00       451.62
   75.78        2975.75           2509          98.00       416.75
   75.81        2976.00           2512         104.00       442.90
   75.84        2976.25           2516          96.00       408.03
   75.87        2976.50           2520          99.00       421.10
   75.90        2976.75           2523         117.00       499.57
   75.93        2977.00           2527          92.00       390.59
   75.96        2977.25           2530          98.00       416.75
   75.99        2977.50           2534          93.00       394.95
   76.02        2977.75           2537         100.00       425.46
   76.05        2978.00           2541          91.00       386.23
   76.09        2978.25           2544          92.00       390.59
   76.12        2978.50           2548          86.00       364.43
   76.15        2978.75           2552          83.00       351.36
   76.18        2979.00           2555          83.00       351.36
   76.21        2979.25           2559          75.00       316.48
   76.24        2979.50           2562          83.00       351.36
   76.27        2979.75           2566          81.00       342.64
   76.30        2980.00           2569          86.00       364.43
   76.33        2980.25           2573          80.00       338.28
   76.36        2980.50           2577          80.00       338.28
   76.39        2980.75           2580          80.00       338.28
   76.42        2981.00           2584          78.00       329.56
   76.45        2981.25           2587          75.00       316.48
   76.48        2981.50           2591          66.00       277.25
   76.51        2981.75           2594          78.00       329.56
   76.54        2982.00           2598          84.00       355.71
   76.57        2982.25           2601          75.00       316.48
   76.60        2982.50           2605          80.00       338.28
   76.64        2982.75           2609          72.00       303.40
   76.67        2983.00           2612          78.00       329.56
   76.70        2983.25           2616          76.00       320.84
   76.73        2983.50           2619          77.00       325.20
   76.76        2983.75           2623          73.00       307.76
   76.79        2984.00           2626          77.00       325.20
HS scan finished at 01:17:01
end
************************************************************
  HS Scan of (1) Internal mercury lamp
************************************************************
Integration time is 0.2294 seconds per sample
dh300618Reading 51.44 .94 3.96pr1000
************************************************************
Dead Time -------------------------  3.4E-08 
Number of Cycles Used -------------  4 
Starting Wavelength (Angstroms) ---  2950 
Final Wavelength (Angstoms) -------  2984 
Wavelength Increment (Angstroms) --  .25 
Filter Wheel #1 Position ---------- (1) Ground quartz diffuser (ND=2.32)
Filter Wheel #2 Position ---------- (1) Neutral Density 0.494



************************************************************
HS scan start time = 21:07:25
Dark Count =  7.7 


Time (GMT)  Wavelength (Ang)  Step Number  Raw Counts  Counts/Second

 1268.31        2950.00           2144          68.00       262.86
 1268.50        2950.25           2147          70.00       271.58
 1268.53        2950.50           2151          68.00       262.86
 1268.56        2950.75           2155          59.00       223.63
 1268.59        2951.00           2158          68.00       262.86
 1268.62        2951.25           2162          71.00       275.94
 1268.65        2951.50           2165          69.00       267.22
 1268.68        2951.75           2169          71.00       275.94
 1268.71        2952.00           2172          65.00       249.78
 1268.74        2952.25           2176          76.00       297.74
 1268.77        2952.50           2179          69.00       267.22
 1268.81        2952.75           2183          71.00       275.94
 1268.84        2953.00           2186          79.00       310.81
 1268.87        2953.25           2190          72.00       280.30
 1268.90        2953.50           2193          75.00       293.38
 1268.93        2953.75           2197          77.00       302.10
 1268.96        2954.00           2200          81.00       319.53
 1268.99        2954.25           2204          80.00       315.17
 1269.02        2954.50           2208          75.00       293.38
 1269.05        2954.75           2211          75.00       293.38
 1269.08        2955.00           2215          79.00       310.81
 1269.11        2955.25           2218          83.00       328.25
 1269.14        2955.50           2222          77.00       302.10
 1269.17        2955.75           2225          81.00       319.53
 1269.20        2956.00           2229          77.00       302.10
 1269.23        2956.25           2232          91.00       363.13
 1269.26        2956.50           2236          79.00       310.81
 1269.29        2956.75           2239          74.00       289.02
 1269.32        2957.00           2243          88.00       350.05
 1269.36        2957.25           2246          87.00       345.69
 1269.39        2957.50           2250          78.00       306.45
 1269.42        2957.75           2254          83.00       328.25
 1269.45        2958.00           2257          79.00       310.81
 1269.48        2958.25           2261          84.00       332.61
 1269.51        2958.50           2264          95.00       380.56
 1269.54        2958.75           2268         104.00       419.80
 1269.57        2959.00           2271          90.00       358.77
 1269.60        2959.25           2275          96.00       384.92
 1269.63        2959.50           2278          98.00       393.64
 1269.66        2959.75           2282          95.00       380.56
 1269.69        2960.00           2285          95.00       380.56
 1269.72        2960.25           2289         121.00       493.91
 1269.75        2960.50           2293         105.00       424.16
 1269.78        2960.75           2296         108.00       437.23
 1269.81        2961.00           2300         169.00       703.16
 1269.84        2961.25           2303         408.00      1745.09
 1269.88        2961.50           2307        1420.00      6157.78
 1269.91        2961.75           2310        2470.00     10737.57
 1269.94        2962.00           2314        3930.00     17108.03
 1269.97        2962.25           2317        5104.00     22232.58
 1270.00        2962.50           2321        6844.00     29831.03
 1270.03        2962.75           2324        8243.00     35943.20
 1270.06        2963.00           2328       10062.00     43894.15
 1270.09        2963.25           2331       11347.00     49513.54
 1270.12        2963.50           2335       12978.00     56649.12
 1270.15        2963.75           2339       14514.00     63372.23
 1270.18        2964.00           2342       16019.00     69962.66
 1270.21        2964.25           2346       17875.00     78094.18
 1270.24        2964.50           2349       19141.00     83643.38
 1270.27        2964.75           2353       20772.00     90795.56
 1270.30        2965.00           2356       22011.00     96231.08
 1270.33        2965.25           2360       23423.00    102428.00
 1270.36        2965.50           2363       24838.00    108640.80
 1270.40        2965.75           2367       26555.00    116183.00
 1270.43        2966.00           2370       27590.00    120731.30
 1270.46        2966.25           2374       29211.00    127857.60
 1270.49        2966.50           2378       29797.00    130434.60
 1270.52        2966.75           2381       29786.00    130386.20
 1270.55        2967.00           2385       29847.00    130654.50
 1270.58        2967.25           2388       29682.00    129928.90
 1270.61        2967.50           2392       29719.00    130091.60
 1270.64        2967.75           2395       29455.00    128930.60
 1270.67        2968.00           2399       28374.00    124177.50
 1270.70        2968.25           2402       27270.00    119324.90
 1270.73        2968.50           2406       25725.00    112536.60
 1270.76        2968.75           2409       24632.00    107736.10
 1270.79        2969.00           2413       23041.00    100751.30
 1270.82        2969.25           2417       21266.00     92962.51
 1270.85        2969.50           2420       19959.00     87230.00
 1270.88        2969.75           2424       18169.00     79382.68
 1270.92        2970.00           2427       16776.00     73278.69
 1270.95        2970.25           2431       15013.00     65557.04
 1270.98        2970.50           2434       13831.00     60382.34
 1271.01        2970.75           2438       12019.00     52453.10
 1271.04        2971.00           2441       10802.00     47129.96
 1271.07        2971.25           2445        8751.00     38163.26
 1271.10        2971.50           2449        6984.00     30442.57
 1271.13        2971.75           2452        5587.00     24341.41
 1271.16        2972.00           2456        3921.00     17068.75
 1271.19        2972.25           2459        2770.00     12046.35
 1271.22        2972.50           2463        1322.00      5730.41
 1271.25        2972.75           2466         641.00      2760.94
 1271.28        2973.00           2470         214.00       899.33
 1271.31        2973.25           2473         138.00       568.01
 1271.34        2973.50           2477         109.00       441.59
 1271.37        2973.75           2481         109.00       441.59
 1271.40        2974.00           2484         102.00       411.08
 1271.43        2974.25           2488         142.00       585.45
 1271.47        2974.50           2491         103.00       415.44
 1271.50        2974.75           2495         107.00       432.87
 1271.53        2975.00           2498         100.00       402.36
 1271.56        2975.25           2502         107.00       432.87
 1271.59        2975.50           2505          91.00       363.13
 1271.62        2975.75           2509          94.00       376.20
 1271.65        2976.00           2512         107.00       432.87
 1271.68        2976.25           2516          89.00       354.41
 1271.71        2976.50           2520          91.00       363.13
 1271.74        2976.75           2523          88.00       350.05
 1271.77        2977.00           2527          84.00       332.61
 1271.80        2977.25           2530          83.00       328.25
 1271.83        2977.50           2534          77.00       302.10
 1271.86        2977.75           2537          82.00       323.89
 1271.89        2978.00           2541          82.00       323.89
 1271.92        2978.25           2544          85.00       336.97
 1271.96        2978.50           2548          84.00       332.61
 1271.99        2978.75           2552          80.00       315.17
 1272.02        2979.00           2555          85.00       336.97
 1272.05        2979.25           2559          77.00       302.10
 1272.08        2979.50           2562          78.00       306.45
 1272.11        2979.75           2566          78.00       306.45
 1272.14        2980.00           2569          75.00       293.38
 1272.17        2980.25           2573          77.00       302.10
 1272.20        2980.50           2577          80.00       315.17
 1272.23        2980.75           2580          76.00       297.74
 1272.26        2981.00           2584          77.00       302.10
 1272.29        2981.25           2587          72.00       280.30
 1272.32        2981.50           2591          63.00       241.07
 1272.35        2981.75           2594          74.00       289.02
 1272.38        2982.00           2598          70.00       271.58
 1272.41        2982.25           2601          73.00       284.66
 1272.44        2982.50           2605          73.00       284.66
 1272.47        2982.75           2609          66.00       254.14
 1272.51        2983.00           2612          75.00       293.38
 1272.54        2983.25           2616          72.00       280.30
 1272.57        2983.50           2619          67.00       258.50
 1272.60        2983.75           2623          67.00       258.50
 1272.63        2984.00           2626          68.00       262.86
HS scan finished at 21:12:51
end
