************************************************************
  HS Scan of (1) Internal mercury lamp
************************************************************
Integration time is 0.2294 seconds per sample
dh040717Reading 51.44 .94 3.5pr1000
************************************************************
Dead Time -------------------------  3.4E-08 
Number of Cycles Used -------------  4 
Starting Wavelength (Angstroms) ---  2950 
Final Wavelength (Angstoms) -------  2984 
Wavelength Increment (Angstroms) --  .25 
Filter Wheel #1 Position ---------- (1) Ground quartz diffuser (ND=2.32)
Filter Wheel #2 Position ---------- (1) Neutral Density 0.494



************************************************************
HS scan start time = 02:41:28
Dark Count =  2.5 


Time (GMT)  Wavelength (Ang)  Step Number  Raw Counts  Counts/Second

  162.36        2950.00           2144         278.00      1201.01
  162.56        2950.25           2147         292.00      1262.04
  162.59        2950.50           2151         281.00      1214.09
  162.62        2950.75           2155         281.00      1214.09
  162.65        2951.00           2158         280.00      1209.73
  162.68        2951.25           2162         288.00      1244.60
  162.71        2951.50           2165         286.00      1235.88
  162.74        2951.75           2169         293.00      1266.40
  162.77        2952.00           2172         298.00      1288.20
  162.80        2952.25           2176         280.00      1209.73
  162.83        2952.50           2179         282.00      1218.45
  162.86        2952.75           2183         297.00      1283.84
  162.89        2953.00           2186         304.00      1314.36
  162.92        2953.25           2190         299.00      1292.56
  162.95        2953.50           2193         292.00      1262.04
  162.98        2953.75           2197         310.00      1340.51
  163.02        2954.00           2200         315.00      1362.31
  163.05        2954.25           2204         300.00      1296.92
  163.08        2954.50           2208         295.00      1275.12
  163.11        2954.75           2211         307.00      1327.44
  163.14        2955.00           2215         312.00      1349.23
  163.17        2955.25           2218         301.00      1301.28
  163.20        2955.50           2222         310.00      1340.51
  163.23        2955.75           2225         318.00      1375.39
  163.26        2956.00           2229         309.00      1336.15
  163.29        2956.25           2232         328.00      1418.99
  163.32        2956.50           2236         321.00      1388.47
  163.35        2956.75           2239         326.00      1410.27
  163.38        2957.00           2243         321.00      1388.47
  163.41        2957.25           2246         343.00      1484.38
  163.44        2957.50           2250         353.00      1527.98
  163.47        2957.75           2254         332.00      1436.43
  163.50        2958.00           2257         353.00      1527.98
  163.54        2958.25           2261         348.00      1506.18
  163.57        2958.50           2264         358.00      1549.78
  163.60        2958.75           2268         366.00      1584.65
  163.63        2959.00           2271         363.00      1571.57
  163.66        2959.25           2275         366.00      1584.65
  163.69        2959.50           2278         383.00      1658.77
  163.72        2959.75           2282         382.00      1654.41
  163.75        2960.00           2285         434.00      1881.11
  163.79        2960.25           2289         402.00      1741.60
  163.83        2960.50           2293         399.00      1728.52
  163.86        2960.75           2296         436.00      1889.83
  163.89        2961.00           2300         537.00      2330.18
  163.92        2961.25           2303         968.00      4209.41
  163.95        2961.50           2307        3304.00     14398.94
  163.98        2961.75           2310        6600.00     28787.97
  164.01        2962.00           2314       12199.00     53263.33
  164.04        2962.25           2317       17832.00     77928.53
  164.07        2962.50           2321       24567.00    107473.50
  164.10        2962.75           2324       29249.00    128047.50
  164.13        2963.00           2328       35890.00    157279.50
  164.16        2963.25           2331       40488.00    177552.90
  164.19        2963.50           2335       47444.00    208276.60
  164.22        2963.75           2339       53952.00    237079.90
  164.25        2964.00           2342       59358.00    261049.10
  164.28        2964.25           2346       66814.00    294172.20
  164.32        2964.50           2349       72236.00    318306.40
  164.35        2964.75           2353       79076.00    348809.30
  164.38        2965.00           2356       84052.00    371039.80
  164.41        2965.25           2360       90434.00    399601.30
  164.44        2965.50           2363       94722.00    418822.80
  164.47        2965.75           2367      101650.00    449932.20
  164.50        2966.00           2370      107283.00    475275.40
  164.53        2966.25           2374      112769.00    499999.70
  164.56        2966.50           2378      115426.00    511989.30
  164.59        2966.75           2381      115737.00    513393.30
  164.62        2967.00           2385      116576.00    517181.70
  164.65        2967.25           2388      116211.00    515533.50
  164.68        2967.50           2392      115870.00    513993.80
  164.71        2967.75           2395      115140.00    510698.30
  164.74        2968.00           2399      111407.00    493857.50
  164.77        2968.25           2402      106912.00    473604.90
  164.80        2968.50           2406      100846.00    446318.50
  164.84        2968.75           2409       96394.00    426324.70
  164.87        2969.00           2413       90136.00    398266.40
  164.90        2969.25           2417       83874.00    370244.00
  164.93        2969.50           2420       78852.00    347809.40
  164.96        2969.75           2424       71578.00    315375.40
  164.99        2970.00           2427       65793.00    289632.00
  165.02        2970.25           2431       58776.00    258466.80
  165.05        2970.50           2434       53932.00    236991.30
  165.08        2970.75           2438       47131.00    206892.70
  165.11        2971.00           2441       41716.00    182972.20
  165.14        2971.25           2445       34765.00    152323.50
  165.17        2971.50           2449       28254.00    123672.80
  165.20        2971.75           2452       23087.00    100976.00
  165.23        2972.00           2456       16466.00     71943.41
  165.26        2972.25           2459       11855.00     51758.40
  165.29        2972.50           2463        6526.00     28464.76
  165.32        2972.75           2466        3203.00     13958.24
  165.36        2973.00           2470         913.00      3969.59
  165.39        2973.25           2473         550.00      2386.85
  165.42        2973.50           2477         468.00      2029.35
  165.45        2973.75           2481         464.00      2011.91
  165.48        2974.00           2484         443.00      1920.35
  165.51        2974.25           2488         441.00      1911.63
  165.54        2974.50           2491         404.00      1750.32
  165.57        2974.75           2495         417.00      1807.00
  165.60        2975.00           2498         424.00      1837.52
  165.63        2975.25           2502         412.00      1785.20
  165.66        2975.50           2505         399.00      1728.52
  165.69        2975.75           2509         378.00      1636.97
  165.72        2976.00           2512         377.00      1632.61
  165.75        2976.25           2516         379.00      1641.33
  165.78        2976.50           2520         402.00      1741.60
  165.81        2976.75           2523         351.00      1519.26
  165.84        2977.00           2527         376.00      1628.25
  165.87        2977.25           2530         359.00      1554.14
  165.91        2977.50           2534         367.00      1589.01
  165.94        2977.75           2537         356.00      1541.06
  165.97        2978.00           2541         320.00      1384.11
  166.00        2978.25           2544         344.00      1488.74
  166.03        2978.50           2548         341.00      1475.66
  166.06        2978.75           2552         335.00      1449.50
  166.09        2979.00           2555         337.00      1458.22
  166.12        2979.25           2559         321.00      1388.47
  166.15        2979.50           2562         338.00      1462.58
  166.18        2979.75           2566         332.00      1436.43
  166.21        2980.00           2569         327.00      1414.63
  166.24        2980.25           2573         326.00      1410.27
  166.28        2980.50           2577         327.00      1414.63
  166.31        2980.75           2580         303.00      1310.00
  166.34        2981.00           2584         309.00      1336.15
  166.37        2981.25           2587         300.00      1296.92
  166.40        2981.50           2591         297.00      1283.84
  166.43        2981.75           2594         302.00      1305.64
  166.46        2982.00           2598         305.00      1318.72
  166.49        2982.25           2601         315.00      1362.31
  166.52        2982.50           2605         304.00      1314.36
  166.55        2982.75           2609         300.00      1296.92
  166.58        2983.00           2612         285.00      1231.52
  166.61        2983.25           2616         301.00      1301.28
  166.64        2983.50           2619         307.00      1327.44
  166.67        2983.75           2623         263.00      1135.61
  166.70        2984.00           2626         273.00      1179.21
HS scan finished at 02:46:56
end
************************************************************
  HS Scan of (1) Internal mercury lamp
************************************************************
Integration time is 0.2294 seconds per sample
dh040717Reading 51.44 .94 3.9pr1000
************************************************************
Dead Time -------------------------  3.4E-08 
Number of Cycles Used -------------  4 
Starting Wavelength (Angstroms) ---  2950 
Final Wavelength (Angstoms) -------  2984 
Wavelength Increment (Angstroms) --  .25 
Filter Wheel #1 Position ---------- (1) Ground quartz diffuser (ND=2.32)
Filter Wheel #2 Position ---------- (1) Neutral Density 0.494



************************************************************
HS scan start time = 21:07:26
Dark Count =  7.5 


Time (GMT)  Wavelength (Ang)  Step Number  Raw Counts  Counts/Second

 1268.34        2950.00           2144         153.00       634.28
 1268.53        2950.25           2147         166.00       690.95
 1268.56        2950.50           2151         165.00       686.59
 1268.59        2950.75           2155         158.00       656.07
 1268.62        2951.00           2158         166.00       690.95
 1268.65        2951.25           2162         158.00       656.07
 1268.68        2951.50           2165         162.00       673.51
 1268.71        2951.75           2169         167.00       695.31
 1268.74        2952.00           2172         169.00       704.03
 1268.78        2952.25           2176         176.00       734.54
 1268.81        2952.50           2179         177.00       738.90
 1268.84        2952.75           2183         166.00       690.95
 1268.87        2953.00           2186         182.00       760.70
 1268.90        2953.25           2190         168.00       699.67
 1268.93        2953.50           2193         174.00       725.82
 1268.96        2953.75           2197         170.00       708.39
 1268.99        2954.00           2200         172.00       717.11
 1269.02        2954.25           2204         165.00       686.59
 1269.05        2954.50           2208         168.00       699.67
 1269.08        2954.75           2211         189.00       791.22
 1269.11        2955.00           2215         177.00       738.90
 1269.14        2955.25           2218         186.00       778.14
 1269.17        2955.50           2222         188.00       786.86
 1269.20        2955.75           2225         173.00       721.46
 1269.23        2956.00           2229         176.00       734.54
 1269.26        2956.25           2232         185.00       773.78
 1269.30        2956.50           2236         192.00       804.29
 1269.33        2956.75           2239         196.00       821.73
 1269.36        2957.00           2243         190.00       795.58
 1269.39        2957.25           2246         186.00       778.14
 1269.42        2957.50           2250         199.00       834.81
 1269.45        2957.75           2254         203.00       852.25
 1269.48        2958.00           2257         209.00       878.40
 1269.51        2958.25           2261         194.00       813.01
 1269.54        2958.50           2264         209.00       878.40
 1269.57        2958.75           2268         219.00       922.00
 1269.60        2959.00           2271         243.00      1026.63
 1269.63        2959.25           2275         216.00       908.92
 1269.66        2959.50           2278         203.00       852.25
 1269.69        2959.75           2282         249.00      1052.78
 1269.72        2960.00           2285         241.00      1017.91
 1269.75        2960.25           2289         253.00      1070.22
 1269.78        2960.50           2293         252.00      1065.86
 1269.82        2960.75           2296         240.00      1013.55
 1269.85        2961.00           2300         313.00      1331.80
 1269.88        2961.25           2303         561.00      2413.01
 1269.91        2961.50           2307        2053.00      8919.44
 1269.94        2961.75           2310        4174.00     18173.82
 1269.97        2962.00           2314        7561.00     32964.13
 1270.00        2962.25           2317       10417.00     45447.24
 1270.03        2962.50           2321       13979.00     61031.05
 1270.06        2962.75           2324       16707.00     72977.28
 1270.09        2963.00           2328       20609.00     90081.49
 1270.12        2963.25           2331       23758.00    103899.50
 1270.15        2963.50           2335       28138.00    123140.90
 1270.18        2963.75           2339       32203.00    141021.10
 1270.21        2964.00           2342       35339.00    154829.90
 1270.24        2964.25           2346       38847.00    170292.20
 1270.27        2964.50           2349       41815.00    183387.10
 1270.30        2964.75           2353       46393.00    203608.20
 1270.34        2965.00           2356       49344.00    216657.70
 1270.37        2965.25           2360       52775.00    231844.40
 1270.40        2965.50           2363       55485.00    243850.80
 1270.43        2965.75           2367       59257.00    260578.80
 1270.46        2966.00           2370       61679.00    271329.90
 1270.49        2966.25           2374       65329.00    287546.90
 1270.52        2966.50           2378       67752.00    298322.30
 1270.55        2966.75           2381       68828.00    303110.00
 1270.58        2967.00           2385       69008.00    303911.00
 1270.61        2967.25           2388       68980.00    303786.40
 1270.64        2967.50           2392       68794.00    302958.60
 1270.67        2967.75           2395       68852.00    303216.80
 1270.70        2968.00           2399       67635.00    297801.80
 1270.73        2968.25           2402       65590.00    288707.20
 1270.76        2968.50           2406       62015.00    272822.00
 1270.79        2968.75           2409       59196.00    260308.10
 1270.82        2969.00           2413       54957.00    241510.80
 1270.86        2969.25           2417       50610.00    222259.60
 1270.89        2969.50           2420       48156.00    211402.90
 1270.92        2969.75           2424       44411.00    194850.30
 1270.95        2970.00           2427       40939.00    179520.90
 1270.98        2970.25           2431       36161.00    158451.60
 1271.01        2970.50           2434       33062.00    144802.30
 1271.04        2970.75           2438       28993.00    126899.90
 1271.07        2971.00           2441       25905.00    113328.20
 1271.10        2971.25           2445       22182.00     96982.30
 1271.13        2971.50           2449       18224.00     79624.60
 1271.16        2971.75           2452       15248.00     66586.94
 1271.19        2972.00           2456       10951.00     47782.45
 1271.22        2972.25           2459        8001.00     34886.61
 1271.25        2972.50           2463        4456.00     19404.69
 1271.28        2972.75           2466        2185.00      9495.22
 1271.31        2973.00           2470         683.00      2944.93
 1271.34        2973.25           2473         372.00      1589.01
 1271.38        2973.50           2477         284.00      1205.37
 1271.41        2973.75           2481         286.00      1214.09
 1271.44        2974.00           2484         255.00      1078.94
 1271.47        2974.25           2488         247.00      1044.07
 1271.50        2974.50           2491         268.00      1135.61
 1271.53        2974.75           2495         244.00      1030.99
 1271.56        2975.00           2498         236.00       996.11
 1271.59        2975.25           2502         225.00       948.16
 1271.62        2975.50           2505         222.00       935.08
 1271.65        2975.75           2509         224.00       943.80
 1271.68        2976.00           2512         225.00       948.16
 1271.71        2976.25           2516         238.00      1004.83
 1271.74        2976.50           2520         220.00       926.36
 1271.77        2976.75           2523         208.00       874.05
 1271.80        2977.00           2527         204.00       856.61
 1271.83        2977.25           2530         208.00       874.05
 1271.86        2977.50           2534         188.00       786.86
 1271.89        2977.75           2537         209.00       878.40
 1271.93        2978.00           2541         184.00       769.42
 1271.96        2978.25           2544         188.00       786.86
 1271.99        2978.50           2548         186.00       778.14
 1272.02        2978.75           2552         190.00       795.58
 1272.05        2979.00           2555         195.00       817.37
 1272.08        2979.25           2559         221.00       930.72
 1272.11        2979.50           2562         174.00       725.82
 1272.14        2979.75           2566         190.00       795.58
 1272.17        2980.00           2569         193.00       808.65
 1272.20        2980.25           2573         191.00       799.93
 1272.23        2980.50           2577         174.00       725.82
 1272.26        2980.75           2580         191.00       799.93
 1272.29        2981.00           2584         178.00       743.26
 1272.32        2981.25           2587         174.00       725.82
 1272.35        2981.50           2591         177.00       738.90
 1272.38        2981.75           2594         173.00       721.46
 1272.41        2982.00           2598         169.00       704.03
 1272.45        2982.25           2601         168.00       699.67
 1272.48        2982.50           2605         163.00       677.87
 1272.51        2982.75           2609         168.00       699.67
 1272.54        2983.00           2612         166.00       690.95
 1272.57        2983.25           2616         170.00       708.39
 1272.60        2983.50           2619         158.00       656.07
 1272.63        2983.75           2623         172.00       717.11
 1272.66        2984.00           2626         169.00       704.03
HS scan finished at 21:12:53
end
