************************************************************
  HS Scan of (1) Internal mercury lamp
************************************************************
Integration time is 0.2294 seconds per sample
dh050717Reading 51.44 .94 3.52pr1000
************************************************************
Dead Time -------------------------  3.4E-08 
Number of Cycles Used -------------  4 
Starting Wavelength (Angstroms) ---  2950 
Final Wavelength (Angstoms) -------  2984 
Wavelength Increment (Angstroms) --  .25 
Filter Wheel #1 Position ---------- (1) Ground quartz diffuser (ND=2.32)
Filter Wheel #2 Position ---------- (1) Neutral Density 0.494



************************************************************
HS scan start time = 01:34:33
Dark Count =  2.9 


Time (GMT)  Wavelength (Ang)  Step Number  Raw Counts  Counts/Second

   95.44        2950.00           2144         299.00      1290.82
   95.63        2950.25           2147         273.00      1177.47
   95.66        2950.50           2151         276.00      1190.55
   95.69        2950.75           2155         280.00      1207.98
   95.73        2951.00           2158         298.00      1286.46
   95.76        2951.25           2162         289.00      1247.22
   95.79        2951.50           2165         296.00      1277.74
   95.82        2951.75           2169         279.00      1203.62
   95.85        2952.00           2172         291.00      1255.94
   95.88        2952.25           2176         298.00      1286.46
   95.91        2952.50           2179         311.00      1343.13
   95.94        2952.75           2183         287.00      1238.50
   95.97        2953.00           2186         290.00      1251.58
   96.00        2953.25           2190         288.00      1242.86
   96.03        2953.50           2193         292.00      1260.30
   96.06        2953.75           2197         296.00      1277.74
   96.09        2954.00           2200         311.00      1343.13
   96.12        2954.25           2204         311.00      1343.13
   96.15        2954.50           2208         313.00      1351.85
   96.18        2954.75           2211         304.00      1312.61
   96.21        2955.00           2215         302.00      1303.89
   96.24        2955.25           2218         312.00      1347.49
   96.28        2955.50           2222         319.00      1378.01
   96.31        2955.75           2225         301.00      1299.53
   96.34        2956.00           2229         318.00      1373.65
   96.37        2956.25           2232         324.00      1399.81
   96.40        2956.50           2236         318.00      1373.65
   96.43        2956.75           2239         325.00      1404.16
   96.46        2957.00           2243         338.00      1460.84
   96.49        2957.25           2246         336.00      1452.12
   96.52        2957.50           2250         330.00      1425.96
   96.55        2957.75           2254         348.00      1504.44
   96.58        2958.00           2257         359.00      1552.39
   96.61        2958.25           2261         360.00      1556.75
   96.64        2958.50           2264         367.00      1587.27
   96.67        2958.75           2268         338.00      1460.84
   96.70        2959.00           2271         355.00      1534.95
   96.73        2959.25           2275         383.00      1657.02
   96.77        2959.50           2278         378.00      1635.23
   96.80        2959.75           2282         402.00      1739.86
   96.83        2960.00           2285         393.00      1700.62
   96.86        2960.25           2289         420.00      1818.33
   96.89        2960.50           2293         430.00      1861.93
   96.92        2960.75           2296         443.00      1918.61
   96.95        2961.00           2300         502.00      2175.84
   96.99        2961.25           2303         809.00      3514.37
   97.02        2961.50           2307        3089.00     13459.08
   97.05        2961.75           2310        6984.00     30463.54
   97.08        2962.00           2314       12721.00     55545.52
   97.11        2962.25           2317       17084.00     74649.13
   97.14        2962.50           2321       23196.00    101452.70
   97.17        2962.75           2324       27958.00    122369.90
   97.20        2963.00           2328       34848.00    152687.30
   97.23        2963.25           2331       40361.00    176990.80
   97.26        2963.50           2335       47288.00    207585.10
   97.29        2963.75           2339       53686.00    235899.80
   97.32        2964.00           2342       58506.00    257267.20
   97.35        2964.25           2346       65477.00    288225.30
   97.38        2964.50           2349       70458.00    310386.10
   97.41        2964.75           2353       77768.00    342969.60
   97.44        2965.00           2356       82603.00    364561.00
   97.47        2965.25           2360       88310.00    390087.70
   97.51        2965.50           2363       92679.00    409659.90
   97.54        2965.75           2367       99160.00    438741.70
   97.57        2966.00           2370      103979.00    460403.30
   97.60        2966.25           2374      109859.00    486877.80
   97.63        2966.50           2378      114054.00    505795.20
   97.66        2966.75           2381      115306.00    511445.80
   97.69        2967.00           2385      115604.00    512791.10
   97.72        2967.25           2388      115814.00    513739.20
   97.75        2967.50           2392      115438.00    512041.70
   97.78        2967.75           2395      115570.00    512637.60
   97.81        2968.00           2399      113561.00    503570.70
   97.84        2968.25           2402      110080.00    487873.80
   97.87        2968.50           2406      103449.00    458019.40
   97.90        2968.75           2409       98718.00    436756.50
   97.93        2969.00           2413       92475.00    408745.40
   97.96        2969.25           2417       86478.00    381888.60
   97.99        2969.50           2420       81500.00    359632.60
   98.03        2969.75           2424       74056.00    326414.70
   98.06        2970.00           2427       68332.00    300923.30
   98.09        2970.25           2431       61212.00    269276.70
   98.12        2970.50           2434       55924.00    245817.10
   98.15        2970.75           2438       48843.00    214461.80
   98.18        2971.00           2441       44077.00    193395.20
   98.21        2971.25           2445       37153.00    162843.80
   98.24        2971.50           2449       30802.00    134876.50
   98.27        2971.75           2452       25303.00    110704.10
   98.30        2972.00           2456       18406.00     80442.48
   98.33        2972.25           2459       13620.00     59479.80
   98.36        2972.50           2463        7490.00     32674.03
   98.39        2972.75           2466        3945.00     17194.45
   98.42        2973.00           2470        1200.00      5219.32
   98.45        2973.25           2473         672.00      2917.03
   98.48        2973.50           2477         473.00      2049.40
   98.51        2973.75           2481         455.00      1970.93
   98.55        2974.00           2484         443.00      1918.61
   98.58        2974.25           2488         409.00      1770.38
   98.62        2974.50           2491         411.00      1779.10
   98.65        2974.75           2495         408.00      1766.02
   98.68        2975.00           2498         384.00      1661.38
   98.71        2975.25           2502         389.00      1683.18
   98.74        2975.50           2505         395.00      1709.34
   98.77        2975.75           2509         369.00      1595.99
   98.80        2976.00           2512         364.00      1574.19
   98.83        2976.25           2516         394.00      1704.98
   98.86        2976.50           2520         389.00      1683.18
   98.89        2976.75           2523         387.00      1674.46
   98.93        2977.00           2527         368.00      1591.63
   98.96        2977.25           2530         376.00      1626.51
   98.99        2977.50           2534         374.00      1617.79
   99.02        2977.75           2537         337.00      1456.48
   99.05        2978.00           2541         346.00      1495.72
   99.08        2978.25           2544         343.00      1482.64
   99.11        2978.50           2548         345.00      1491.36
   99.14        2978.75           2552         313.00      1351.85
   99.17        2979.00           2555         331.00      1430.32
   99.20        2979.25           2559         315.00      1360.57
   99.23        2979.50           2562         321.00      1386.73
   99.26        2979.75           2566         315.00      1360.57
   99.29        2980.00           2569         319.00      1378.01
   99.33        2980.25           2573         316.00      1364.93
   99.36        2980.50           2577         294.00      1269.02
   99.39        2980.75           2580         305.00      1316.97
   99.42        2981.00           2584         308.00      1330.05
   99.45        2981.25           2587         308.00      1330.05
   99.48        2981.50           2591         315.00      1360.57
   99.51        2981.75           2594         298.00      1286.46
   99.54        2982.00           2598         280.00      1207.98
   99.57        2982.25           2601         295.00      1273.38
   99.60        2982.50           2605         297.00      1282.10
   99.63        2982.75           2609         282.00      1216.70
   99.66        2983.00           2612         296.00      1277.74
   99.69        2983.25           2616         277.00      1194.90
   99.72        2983.50           2619         302.00      1303.89
   99.75        2983.75           2623         295.00      1273.38
   99.78        2984.00           2626         286.00      1234.14
HS scan finished at 01:40:00
end
************************************************************
  HS Scan of (1) Internal mercury lamp
************************************************************
Integration time is 0.2294 seconds per sample
dh050717Reading 51.44 .94 4.13pr1000
************************************************************
Dead Time -------------------------  3.4E-08 
Number of Cycles Used -------------  4 
Starting Wavelength (Angstroms) ---  2950 
Final Wavelength (Angstoms) -------  2984 
Wavelength Increment (Angstroms) --  .25 
Filter Wheel #1 Position ---------- (1) Ground quartz diffuser (ND=2.32)
Filter Wheel #2 Position ---------- (1) Neutral Density 0.494



************************************************************
HS scan start time = 21:07:21
Dark Count =  13.7 


Time (GMT)  Wavelength (Ang)  Step Number  Raw Counts  Counts/Second

 1268.25        2950.00           2144         269.00      1112.95
 1268.44        2950.25           2147         310.00      1291.69
 1268.47        2950.50           2151         262.00      1082.43
 1268.50        2950.75           2155         267.00      1104.23
 1268.53        2951.00           2158         275.00      1139.10
 1268.56        2951.25           2162         271.00      1121.66
 1268.59        2951.50           2165         273.00      1130.38
 1268.62        2951.75           2169         274.00      1134.74
 1268.65        2952.00           2172         260.00      1073.71
 1268.68        2952.25           2176         259.00      1069.35
 1268.72        2952.50           2179         280.00      1160.90
 1268.75        2952.75           2183         294.00      1221.93
 1268.78        2953.00           2186         279.00      1156.54
 1268.81        2953.25           2190         283.00      1173.98
 1268.84        2953.50           2193         269.00      1112.95
 1268.87        2953.75           2197         278.00      1152.18
 1268.91        2954.00           2200         274.00      1134.74
 1268.94        2954.25           2204         281.00      1165.26
 1268.97        2954.50           2208         273.00      1130.38
 1269.00        2954.75           2211         294.00      1221.93
 1269.03        2955.00           2215         286.00      1187.06
 1269.06        2955.25           2218         299.00      1243.73
 1269.09        2955.50           2222         297.00      1235.01
 1269.12        2955.75           2225         294.00      1221.93
 1269.15        2956.00           2229         286.00      1187.06
 1269.18        2956.25           2232         304.00      1265.53
 1269.21        2956.50           2236         294.00      1221.93
 1269.24        2956.75           2239         306.00      1274.25
 1269.27        2957.00           2243         304.00      1265.53
 1269.30        2957.25           2246         324.00      1352.72
 1269.33        2957.50           2250         295.00      1226.29
 1269.36        2957.75           2254         313.00      1304.77
 1269.39        2958.00           2257         314.00      1309.13
 1269.43        2958.25           2261         318.00      1326.56
 1269.46        2958.50           2264         304.00      1265.53
 1269.49        2958.75           2268         316.00      1317.84
 1269.52        2959.00           2271         326.00      1361.44
 1269.55        2959.25           2275         366.00      1535.83
 1269.58        2959.50           2278         346.00      1448.63
 1269.61        2959.75           2282         348.00      1457.35
 1269.64        2960.00           2285         353.00      1479.15
 1269.67        2960.25           2289         338.00      1413.76
 1269.70        2960.50           2293         406.00      1710.21
 1269.73        2960.75           2296         406.00      1710.21
 1269.76        2961.00           2300         484.00      2050.27
 1269.79        2961.25           2303         833.00      3571.92
 1269.82        2961.50           2307        3221.00     13987.91
 1269.85        2961.75           2310        6737.00     29337.45
 1269.88        2962.00           2314       12611.00     55016.94
 1269.91        2962.25           2317       17194.00     75083.77
 1269.95        2962.50           2321       23325.00    101971.50
 1269.98        2962.75           2324       27460.00    120133.60
 1270.01        2963.00           2328       33595.00    147121.60
 1270.04        2963.25           2331       38957.00    170750.00
 1270.07        2963.50           2335       45473.00    199514.90
 1270.10        2963.75           2339       51603.00    226627.50
 1270.13        2964.00           2342       56416.00    247950.30
 1270.16        2964.25           2346       62387.00    274446.60
 1270.19        2964.50           2349       66974.00    294834.00
 1270.22        2964.75           2353       73801.00    325230.00
 1270.25        2965.00           2356       78560.00    346456.00
 1270.28        2965.25           2360       84641.00    373623.40
 1270.31        2965.50           2363       89215.00    394091.40
 1270.34        2965.75           2367       95028.00    420145.20
 1270.37        2966.00           2370       99058.00    438235.00
 1270.40        2966.25           2374      103757.00    459356.20
 1270.43        2966.50           2378      106335.00    470956.80
 1270.47        2966.75           2381      107168.00    474707.10
 1270.50        2967.00           2385      107631.00    476792.00
 1270.53        2967.25           2388      107255.00    475098.90
 1270.56        2967.50           2392      107211.00    474900.70
 1270.59        2967.75           2395      106578.00    472050.70
 1270.62        2968.00           2399      103505.00    458222.70
 1270.65        2968.25           2402      100412.00    444317.90
 1270.68        2968.50           2406       94573.00    418104.20
 1270.71        2968.75           2409       89857.00    396966.50
 1270.74        2969.00           2413       83533.00    368669.50
 1270.77        2969.25           2417       77930.00    343644.30
 1270.80        2969.50           2420       73783.00    325149.70
 1270.83        2969.75           2424       68062.00    299673.90
 1270.86        2970.00           2427       63954.00    281408.10
 1270.89        2970.25           2431       56631.00    248903.60
 1270.92        2970.50           2434       51530.00    226304.40
 1270.95        2970.75           2438       45211.00    198357.20
 1270.98        2971.00           2441       40556.00    177803.60
 1271.02        2971.25           2445       34560.00    151371.20
 1271.05        2971.50           2449       28375.00    124155.50
 1271.08        2971.75           2452       23911.00    104544.00
 1271.11        2972.00           2456       18410.00     80412.66
 1271.14        2972.25           2459       14129.00     61660.52
 1271.17        2972.50           2463        8114.00     35353.28
 1271.20        2972.75           2466        4296.00     18679.25
 1271.23        2973.00           2470        1302.00      5617.03
 1271.26        2973.25           2473         650.00      2774.02
 1271.29        2973.50           2477         463.00      1958.72
 1271.32        2973.75           2481         381.00      1601.22
 1271.35        2974.00           2484         397.00      1670.98
 1271.38        2974.25           2488         390.00      1640.46
 1271.41        2974.50           2491         381.00      1601.22
 1271.44        2974.75           2495         379.00      1592.50
 1271.47        2975.00           2498         370.00      1553.26
 1271.51        2975.25           2502         337.00      1409.40
 1271.54        2975.50           2505         349.00      1461.71
 1271.57        2975.75           2509         340.00      1422.48
 1271.60        2976.00           2512         327.00      1365.80
 1271.63        2976.25           2516         332.00      1387.60
 1271.66        2976.50           2520         310.00      1291.69
 1271.69        2976.75           2523         334.00      1396.32
 1271.72        2977.00           2527         310.00      1291.69
 1271.75        2977.25           2530         319.00      1330.92
 1271.78        2977.50           2534         295.00      1226.29
 1271.81        2977.75           2537         324.00      1352.72
 1271.84        2978.00           2541         290.00      1204.50
 1271.87        2978.25           2544         294.00      1221.93
 1271.90        2978.50           2548         291.00      1208.86
 1271.93        2978.75           2552         273.00      1130.38
 1271.96        2979.00           2555         296.00      1230.65
 1271.99        2979.25           2559         309.00      1287.33
 1272.02        2979.50           2562         278.00      1152.18
 1272.06        2979.75           2566         282.00      1169.62
 1272.09        2980.00           2569         270.00      1117.30
 1272.12        2980.25           2573         276.00      1143.46
 1272.15        2980.50           2577         261.00      1078.07
 1272.18        2980.75           2580         277.00      1147.82
 1272.21        2981.00           2584         268.00      1108.59
 1272.24        2981.25           2587         292.00      1213.21
 1272.27        2981.50           2591         259.00      1069.35
 1272.30        2981.75           2594         255.00      1051.91
 1272.33        2982.00           2598         282.00      1169.62
 1272.36        2982.25           2601         259.00      1069.35
 1272.39        2982.50           2605         257.00      1060.63
 1272.42        2982.75           2609         258.00      1064.99
 1272.45        2983.00           2612         275.00      1139.10
 1272.48        2983.25           2616         255.00      1051.91
 1272.51        2983.50           2619         264.00      1091.15
 1272.54        2983.75           2623         253.00      1043.19
 1272.58        2984.00           2626         256.00      1056.27
HS scan finished at 21:12:48
end
