************************************************************
  HS Scan of (1) Internal mercury lamp
************************************************************
Integration time is 0.2294 seconds per sample
dh290618Reading 51.44 .94 3.56pr1000
************************************************************
Dead Time -------------------------  3.4E-08 
Number of Cycles Used -------------  4 
Starting Wavelength (Angstroms) ---  2950 
Final Wavelength (Angstoms) -------  2984 
Wavelength Increment (Angstroms) --  .25 
Filter Wheel #1 Position ---------- (1) Ground quartz diffuser (ND=2.32)
Filter Wheel #2 Position ---------- (1) Neutral Density 0.494



************************************************************
HS scan start time = 01:11:17
Dark Count =  2.8 


Time (GMT)  Wavelength (Ang)  Step Number  Raw Counts  Counts/Second

   72.18        2950.00           2144          74.00       310.38
   72.37        2950.25           2147          73.00       306.02
   72.40        2950.50           2151          78.00       327.82
   72.43        2950.75           2155          77.00       323.46
   72.47        2951.00           2158          73.00       306.02
   72.50        2951.25           2162          78.00       327.82
   72.53        2951.50           2165          71.00       297.30
   72.56        2951.75           2169          77.00       323.46
   72.59        2952.00           2172          70.00       292.94
   72.62        2952.25           2176          72.00       301.66
   72.65        2952.50           2179          70.00       292.94
   72.68        2952.75           2183          78.00       327.82
   72.71        2953.00           2186          71.00       297.30
   72.74        2953.25           2190          69.00       288.58
   72.77        2953.50           2193          74.00       310.38
   72.80        2953.75           2197          77.00       323.46
   72.83        2954.00           2200          81.00       340.89
   72.86        2954.25           2204          73.00       306.02
   72.89        2954.50           2208          75.00       314.74
   72.92        2954.75           2211          79.00       332.17
   72.95        2955.00           2215          86.00       362.69
   72.98        2955.25           2218          83.00       349.61
   73.02        2955.50           2222          74.00       310.38
   73.05        2955.75           2225          72.00       301.66
   73.08        2956.00           2229          90.00       380.13
   73.11        2956.25           2232          78.00       327.82
   73.14        2956.50           2236          80.00       336.53
   73.17        2956.75           2239          91.00       384.49
   73.20        2957.00           2243          87.00       367.05
   73.23        2957.25           2246          85.00       358.33
   73.26        2957.50           2250          82.00       345.25
   73.29        2957.75           2254          83.00       349.61
   73.32        2958.00           2257          89.00       375.77
   73.35        2958.25           2261          82.00       345.25
   73.38        2958.50           2264          94.00       397.56
   73.41        2958.75           2268          91.00       384.49
   73.44        2959.00           2271          96.00       406.28
   73.47        2959.25           2275          93.00       393.20
   73.50        2959.50           2278          93.00       393.20
   73.54        2959.75           2282          94.00       397.56
   73.57        2960.00           2285          98.00       415.00
   73.60        2960.25           2289         102.00       432.44
   73.63        2960.50           2293         118.00       502.19
   73.66        2960.75           2296         125.00       532.70
   73.69        2961.00           2300         161.00       689.64
   73.72        2961.25           2303         404.00      1749.01
   73.75        2961.50           2307        1179.00      5128.18
   73.78        2961.75           2310        2045.00      8905.05
   73.81        2962.00           2314        3581.00     15606.36
   73.84        2962.25           2317        4974.00     21686.43
   73.87        2962.50           2321        6540.00     28524.60
   73.90        2962.75           2324        7860.00     34291.05
   73.93        2963.00           2328        9443.00     41209.40
   73.96        2963.25           2331       10688.00     46652.85
   73.99        2963.50           2335       12591.00     54977.13
   74.02        2963.75           2339       14075.00     61471.85
   74.06        2964.00           2342       15390.00     67229.35
   74.09        2964.25           2346       17367.00     75889.55
   74.12        2964.50           2349       19471.00     85111.68
   74.15        2964.75           2353       21294.00     93106.83
   74.18        2965.00           2356       22403.00     97972.72
   74.21        2965.25           2360       23758.00    103920.20
   74.24        2965.50           2363       25162.00    110085.20
   74.27        2965.75           2367       27164.00    118880.60
   74.30        2966.00           2370       27861.00    121944.00
   74.33        2966.25           2374       29518.00    129229.20
   74.36        2966.50           2378       29668.00    129888.80
   74.39        2966.75           2381       30209.00    132268.30
   74.42        2967.00           2385       30847.00    135074.90
   74.45        2967.25           2388       30920.00    135396.10
   74.48        2967.50           2392       30431.00    133244.80
   74.51        2967.75           2395       30118.00    131868.00
   74.54        2968.00           2399       29286.00    128208.90
   74.58        2968.25           2402       27807.00    121706.60
   74.61        2968.50           2406       26227.00    114763.40
   74.64        2968.75           2409       25059.00    109632.80
   74.67        2969.00           2413       23502.00    102796.30
   74.70        2969.25           2417       21762.00     95160.05
   74.73        2969.50           2420       20402.00     89194.22
   74.76        2969.75           2424       18770.00     82038.45
   74.79        2970.00           2427       17103.00     74732.81
   74.82        2970.25           2431       15136.00     66117.08
   74.85        2970.50           2434       13740.00     60005.48
   74.88        2970.75           2438       11975.00     52282.05
   74.91        2971.00           2441       10530.00     45961.92
   74.94        2971.25           2445        8621.00     37616.52
   74.97        2971.50           2449        6818.00     29738.86
   75.00        2971.75           2452        5588.00     24367.18
   75.03        2972.00           2456        3881.00     16915.57
   75.06        2972.25           2459        2637.00     11487.49
   75.09        2972.50           2463        1302.00      5664.56
   75.13        2972.75           2466         597.00      2590.46
   75.16        2973.00           2470         194.00       833.50
   75.19        2973.25           2473         144.00       615.53
   75.22        2973.50           2477         115.00       489.11
   75.25        2973.75           2481         162.00       694.00
   75.28        2974.00           2484         123.00       523.98
   75.31        2974.25           2488         103.00       436.80
   75.34        2974.50           2491         103.00       436.80
   75.37        2974.75           2495          96.00       406.28
   75.40        2975.00           2498          94.00       397.56
   75.43        2975.25           2502         106.00       449.88
   75.46        2975.50           2505         100.00       423.72
   75.49        2975.75           2509          89.00       375.77
   75.52        2976.00           2512          92.00       388.85
   75.55        2976.25           2516          95.00       401.92
   75.58        2976.50           2520          92.00       388.85
   75.61        2976.75           2523          89.00       375.77
   75.65        2977.00           2527          93.00       393.20
   75.68        2977.25           2530          80.00       336.53
   75.71        2977.50           2534          90.00       380.13
   75.74        2977.75           2537          86.00       362.69
   75.77        2978.00           2541          88.00       371.41
   75.80        2978.25           2544          80.00       336.53
   75.83        2978.50           2548          87.00       367.05
   75.86        2978.75           2552          78.00       327.82
   75.89        2979.00           2555          88.00       371.41
   75.92        2979.25           2559          82.00       345.25
   75.95        2979.50           2562          82.00       345.25
   75.98        2979.75           2566          76.00       319.10
   76.01        2980.00           2569          71.00       297.30
   76.04        2980.25           2573          73.00       306.02
   76.07        2980.50           2577          79.00       332.17
   76.10        2980.75           2580          79.00       332.17
   76.13        2981.00           2584          77.00       323.46
   76.17        2981.25           2587          76.00       319.10
   76.20        2981.50           2591          80.00       336.53
   76.23        2981.75           2594          84.00       353.97
   76.26        2982.00           2598          72.00       301.66
   76.29        2982.25           2601          76.00       319.10
   76.32        2982.50           2605          72.00       301.66
   76.35        2982.75           2609          75.00       314.74
   76.38        2983.00           2612          71.00       297.30
   76.41        2983.25           2616          76.00       319.10
   76.44        2983.50           2619          65.00       271.14
   76.47        2983.75           2623          70.00       292.94
   76.50        2984.00           2626          63.00       262.43
HS scan finished at 01:16:43
end
************************************************************
  HS Scan of (1) Internal mercury lamp
************************************************************
Integration time is 0.2294 seconds per sample
dh290618Reading 51.44 .94 4.03pr1000
************************************************************
Dead Time -------------------------  3.4E-08 
Number of Cycles Used -------------  4 
Starting Wavelength (Angstroms) ---  2950 
Final Wavelength (Angstoms) -------  2984 
Wavelength Increment (Angstroms) --  .25 
Filter Wheel #1 Position ---------- (1) Ground quartz diffuser (ND=2.32)
Filter Wheel #2 Position ---------- (1) Neutral Density 0.494



************************************************************
HS scan start time = 21:07:22
Dark Count =  10.2 


Time (GMT)  Wavelength (Ang)  Step Number  Raw Counts  Counts/Second

 1268.27        2950.00           2144          64.00       234.53
 1268.46        2950.25           2147          68.00       251.96
 1268.49        2950.50           2151          72.00       269.40
 1268.52        2950.75           2155          70.00       260.68
 1268.55        2951.00           2158          63.00       230.17
 1268.58        2951.25           2162          70.00       260.68
 1268.61        2951.50           2165          62.00       225.81
 1268.64        2951.75           2169          72.00       269.40
 1268.67        2952.00           2172          64.00       234.53
 1268.70        2952.25           2176          66.00       243.25
 1268.74        2952.50           2179          73.00       273.76
 1268.77        2952.75           2183          58.00       208.37
 1268.80        2953.00           2186          75.00       282.48
 1268.83        2953.25           2190          69.00       256.32
 1268.86        2953.50           2193          66.00       243.25
 1268.89        2953.75           2197          68.00       251.96
 1268.92        2954.00           2200          69.00       256.32
 1268.95        2954.25           2204          67.00       247.60
 1268.98        2954.50           2208          73.00       273.76
 1269.01        2954.75           2211          73.00       273.76
 1269.04        2955.00           2215          76.00       286.84
 1269.07        2955.25           2218          81.00       308.63
 1269.10        2955.50           2222          78.00       295.56
 1269.13        2955.75           2225          77.00       291.20
 1269.16        2956.00           2229          84.00       321.71
 1269.19        2956.25           2232          73.00       273.76
 1269.23        2956.50           2236          71.00       265.04
 1269.26        2956.75           2239          83.00       317.35
 1269.29        2957.00           2243          84.00       321.71
 1269.32        2957.25           2246          94.00       365.31
 1269.35        2957.50           2250          79.00       299.92
 1269.38        2957.75           2254          82.00       312.99
 1269.41        2958.00           2257          77.00       291.20
 1269.44        2958.25           2261          83.00       317.35
 1269.47        2958.50           2264          86.00       330.43
 1269.50        2958.75           2268          94.00       365.31
 1269.53        2959.00           2271          96.00       374.02
 1269.56        2959.25           2275          88.00       339.15
 1269.59        2959.50           2278          94.00       365.31
 1269.62        2959.75           2282          91.00       352.23
 1269.65        2960.00           2285          86.00       330.43
 1269.68        2960.25           2289          97.00       378.38
 1269.71        2960.50           2293         102.00       400.18
 1269.75        2960.75           2296         108.00       426.34
 1269.78        2961.00           2300         146.00       591.99
 1269.81        2961.25           2303         274.00      1150.00
 1269.84        2961.50           2307         939.00      4049.38
 1269.87        2961.75           2310        1838.00      7969.90
 1269.90        2962.00           2314        3257.00     14160.26
 1269.93        2962.25           2317        4382.00     19069.90
 1269.96        2962.50           2321        5928.00     25819.52
 1269.99        2962.75           2324        7129.00     31065.05
 1270.02        2963.00           2328        8788.00     38314.05
 1270.05        2963.25           2331       10185.00     44421.01
 1270.08        2963.50           2335       11835.00     51637.23
 1270.11        2963.75           2339       13492.00     58887.62
 1270.14        2964.00           2342       14626.00     63851.64
 1270.17        2964.25           2346       16376.00     71515.45
 1270.20        2964.50           2349       17584.00     76808.00
 1270.23        2964.75           2353       19234.00     84040.15
 1270.26        2965.00           2356       20439.00     89324.06
 1270.30        2965.25           2360       21893.00     95702.36
 1270.33        2965.50           2363       22708.00     99278.75
 1270.36        2965.75           2367       24394.00    106680.10
 1270.39        2966.00           2370       25540.00    111713.00
 1270.42        2966.25           2374       27203.00    119019.50
 1270.45        2966.50           2378       27878.00    121986.20
 1270.48        2966.75           2381       28085.00    122896.10
 1270.51        2967.00           2385       28147.00    123168.60
 1270.54        2967.25           2388       28240.00    123577.40
 1270.57        2967.50           2392       28381.00    124197.30
 1270.60        2967.75           2395       28303.00    123854.40
 1270.63        2968.00           2399       27682.00    121124.70
 1270.66        2968.25           2402       26641.00    116549.90
 1270.69        2968.50           2406       25259.00    110478.70
 1270.72        2968.75           2409       23830.00    104203.80
 1270.75        2969.00           2413       22319.00     97571.62
 1270.78        2969.25           2417       20769.00     90771.44
 1270.82        2969.50           2420       19675.00     85973.71
 1270.85        2969.75           2424       18082.00     78990.41
 1270.88        2970.00           2427       16504.00     72076.16
 1270.91        2970.25           2431       14530.00     63431.34
 1270.94        2970.50           2434       13465.00     58769.46
 1270.97        2970.75           2438       11702.00     51055.42
 1271.00        2971.00           2441       10471.00     45671.57
 1271.03        2971.25           2445        8773.00     38248.49
 1271.06        2971.50           2449        7127.00     31056.31
 1271.09        2971.75           2452        5888.00     25644.85
 1271.12        2972.00           2456        4208.00     18310.44
 1271.15        2972.25           2459        3017.00     13113.08
 1271.18        2972.50           2463        1599.00      6927.53
 1271.21        2972.75           2466         781.00      3360.45
 1271.24        2973.00           2470         260.00      1088.97
 1271.27        2973.25           2473         144.00       583.27
 1271.30        2973.50           2477         122.00       487.37
 1271.34        2973.75           2481         117.00       465.57
 1271.37        2974.00           2484         132.00       530.96
 1271.40        2974.25           2488          96.00       374.02
 1271.43        2974.50           2491         101.00       395.82
 1271.46        2974.75           2495         110.00       435.05
 1271.49        2975.00           2498         100.00       391.46
 1271.52        2975.25           2502          89.00       343.51
 1271.55        2975.50           2505          95.00       369.66
 1271.58        2975.75           2509          94.00       365.31
 1271.61        2976.00           2512          87.00       334.79
 1271.64        2976.25           2516         128.00       513.52
 1271.67        2976.50           2520          89.00       343.51
 1271.70        2976.75           2523          80.00       304.28
 1271.73        2977.00           2527          87.00       334.79
 1271.76        2977.25           2530          87.00       334.79
 1271.79        2977.50           2534          86.00       330.43
 1271.82        2977.75           2537          80.00       304.28
 1271.86        2978.00           2541          80.00       304.28
 1271.89        2978.25           2544          80.00       304.28
 1271.92        2978.50           2548          81.00       308.63
 1271.95        2978.75           2552          77.00       291.20
 1271.98        2979.00           2555          73.00       273.76
 1272.01        2979.25           2559          81.00       308.63
 1272.04        2979.50           2562          77.00       291.20
 1272.07        2979.75           2566          77.00       291.20
 1272.10        2980.00           2569          76.00       286.84
 1272.13        2980.25           2573          73.00       273.76
 1272.16        2980.50           2577          73.00       273.76
 1272.19        2980.75           2580          78.00       295.56
 1272.22        2981.00           2584          66.00       243.25
 1272.25        2981.25           2587          74.00       278.12
 1272.28        2981.50           2591          76.00       286.84
 1272.31        2981.75           2594          65.00       238.89
 1272.34        2982.00           2598          67.00       247.60
 1272.38        2982.25           2601          69.00       256.32
 1272.41        2982.50           2605          75.00       282.48
 1272.44        2982.75           2609          71.00       265.04
 1272.47        2983.00           2612          68.00       251.96
 1272.50        2983.25           2616          60.00       217.09
 1272.53        2983.50           2619          68.00       251.96
 1272.56        2983.75           2623          75.00       282.48
 1272.59        2984.00           2626          70.00       260.68
HS scan finished at 21:12:49
end
