************************************************************
  HS Scan of (1) Internal mercury lamp
************************************************************
Integration time is 0.2294 seconds per sample
dh160718Reading 51.44 .94 3.62pr1000
************************************************************
Dead Time -------------------------  3.4E-08 
Number of Cycles Used -------------  4 
Starting Wavelength (Angstroms) ---  2950 
Final Wavelength (Angstoms) -------  2984 
Wavelength Increment (Angstroms) --  .25 
Filter Wheel #1 Position ---------- (1) Ground quartz diffuser (ND=2.32)
Filter Wheel #2 Position ---------- (1) Neutral Density 0.494



************************************************************
HS scan start time = 01:22:12
Dark Count =  3.1 


Time (GMT)  Wavelength (Ang)  Step Number  Raw Counts  Counts/Second

   83.10        2950.00           2144          85.00       357.02
   83.29        2950.25           2147          77.00       322.15
   83.32        2950.50           2151          81.00       339.59
   83.35        2950.75           2155          85.00       357.02
   83.38        2951.00           2158          81.00       339.59
   83.41        2951.25           2162          87.00       365.74
   83.44        2951.50           2165          90.00       378.82
   83.47        2951.75           2169          83.00       348.30
   83.50        2952.00           2172          76.00       317.79
   83.53        2952.25           2176          91.00       383.18
   83.56        2952.50           2179          79.00       330.87
   83.60        2952.75           2183          89.00       374.46
   83.63        2953.00           2186          86.00       361.38
   83.66        2953.25           2190          90.00       378.82
   83.69        2953.50           2193         100.00       422.41
   83.72        2953.75           2197         109.00       461.65
   83.75        2954.00           2200          97.00       409.33
   83.78        2954.25           2204          94.00       396.26
   83.81        2954.50           2208          95.00       400.62
   83.84        2954.75           2211          86.00       361.38
   83.87        2955.00           2215          99.00       418.05
   83.90        2955.25           2218          98.00       413.69
   83.93        2955.50           2222         118.00       500.88
   83.96        2955.75           2225          89.00       374.46
   83.99        2956.00           2229          95.00       400.62
   84.02        2956.25           2232         100.00       422.41
   84.05        2956.50           2236         110.00       466.01
   84.08        2956.75           2239         108.00       457.29
   84.12        2957.00           2243          95.00       400.62
   84.15        2957.25           2246          99.00       418.05
   84.18        2957.50           2250         103.00       435.49
   84.21        2957.75           2254         123.00       522.68
   84.24        2958.00           2257         127.00       540.11
   84.27        2958.25           2261         120.00       509.60
   84.30        2958.50           2264          97.00       409.33
   84.33        2958.75           2268         109.00       461.65
   84.36        2959.00           2271         145.00       618.58
   84.39        2959.25           2275         145.00       618.58
   84.42        2959.50           2278         113.00       479.08
   84.45        2959.75           2282         146.00       622.94
   84.48        2960.00           2285         171.00       731.93
   84.51        2960.25           2289         151.00       644.74
   84.54        2960.50           2293         137.00       583.71
   84.57        2960.75           2296         153.00       653.46
   84.60        2961.00           2300         217.00       932.46
   84.64        2961.25           2303         629.00      2728.68
   84.67        2961.50           2307        2056.00      8951.72
   84.70        2961.75           2310        3250.00     14160.70
   84.73        2962.00           2314        5160.00     22497.15
   84.76        2962.25           2317        6873.00     29977.79
   84.79        2962.50           2321        8983.00     39197.37
   84.82        2962.75           2324       10819.00     47224.42
   84.85        2963.00           2328       12845.00     56087.24
   84.88        2963.25           2331       14445.00     63090.29
   84.91        2963.50           2335       16812.00     73456.56
   84.94        2963.75           2339       19221.00     84014.28
   84.97        2964.00           2342       21006.00     91842.14
   85.00        2964.25           2346       23280.00    101820.50
   85.03        2964.50           2349       25072.00    109688.60
   85.06        2964.75           2353       27206.00    119063.80
   85.09        2965.00           2356       28805.00    126092.60
   85.12        2965.25           2360       30925.00    135416.70
   85.15        2965.50           2363       32305.00    141489.40
   85.19        2965.75           2367       34131.00    149528.50
   85.22        2966.00           2370       35975.00    157651.40
   85.25        2966.25           2374       37845.00    165893.40
   85.28        2966.50           2378       38240.00    167635.00
   85.31        2966.75           2381       38451.00    168565.30
   85.34        2967.00           2385       38604.00    169240.00
   85.37        2967.25           2388       38623.00    169323.80
   85.40        2967.50           2392       38401.00    168344.90
   85.43        2967.75           2395       37790.00    165650.90
   85.46        2968.00           2399       36276.00    158977.70
   85.49        2968.25           2402       34704.00    152052.10
   85.52        2968.50           2406       32515.00    142413.70
   85.55        2968.75           2409       30708.00    134462.10
   85.58        2969.00           2413       28569.00    125055.00
   85.61        2969.25           2417       26439.00    115693.50
   85.64        2969.50           2420       24665.00    107901.20
   85.67        2969.75           2424       22504.00     98414.63
   85.71        2970.00           2427       20555.00     89863.96
   85.74        2970.25           2431       18417.00     80489.81
   85.77        2970.50           2434       16883.00     73767.61
   85.80        2970.75           2438       14561.00     63598.15
   85.83        2971.00           2441       13056.00     57010.58
   85.86        2971.25           2445       10989.00     47967.89
   85.89        2971.50           2449        8498.00     37077.67
   85.92        2971.75           2452        6811.00     29706.98
   85.95        2972.00           2456        4861.00     21191.81
   85.98        2972.25           2459        3532.00     15391.23
   86.01        2972.50           2463        1835.00      7987.78
   86.04        2972.75           2466         867.00      3766.39
   86.07        2973.00           2470         248.00      1067.61
   86.10        2973.25           2473         168.00       718.85
   86.13        2973.50           2477         146.00       622.94
   86.16        2973.75           2481         132.00       561.91
   86.20        2974.00           2484         138.00       588.07
   86.23        2974.25           2488         145.00       618.58
   86.26        2974.50           2491         148.00       631.66
   86.29        2974.75           2495         157.00       670.90
   86.32        2975.00           2498         125.00       531.40
   86.35        2975.25           2502         116.00       492.16
   86.38        2975.50           2505         107.00       452.93
   86.41        2975.75           2509         125.00       531.40
   86.44        2976.00           2512         115.00       487.80
   86.47        2976.25           2516         111.00       470.37
   86.50        2976.50           2520         113.00       479.08
   86.53        2976.75           2523         106.00       448.57
   86.56        2977.00           2527          98.00       413.69
   86.59        2977.25           2530         100.00       422.41
   86.62        2977.50           2534          96.00       404.98
   86.65        2977.75           2537          94.00       396.26
   86.68        2978.00           2541         115.00       487.80
   86.71        2978.25           2544          92.00       387.54
   86.75        2978.50           2548         113.00       479.08
   86.78        2978.75           2552         121.00       513.96
   86.81        2979.00           2555         116.00       492.16
   86.84        2979.25           2559         100.00       422.41
   86.87        2979.50           2562          94.00       396.26
   86.90        2979.75           2566          79.00       330.87
   86.93        2980.00           2569          77.00       322.15
   86.96        2980.25           2573          81.00       339.59
   86.99        2980.50           2577          88.00       370.10
   87.02        2980.75           2580          80.00       335.23
   87.05        2981.00           2584          86.00       361.38
   87.08        2981.25           2587          85.00       357.02
   87.11        2981.50           2591          85.00       357.02
   87.14        2981.75           2594          84.00       352.66
   87.17        2982.00           2598          88.00       370.10
   87.20        2982.25           2601          88.00       370.10
   87.23        2982.50           2605          80.00       335.23
   87.27        2982.75           2609          80.00       335.23
   87.30        2983.00           2612          83.00       348.30
   87.33        2983.25           2616          87.00       365.74
   87.36        2983.50           2619          76.00       317.79
   87.39        2983.75           2623          75.00       313.43
   87.42        2984.00           2626          78.00       326.51
HS scan finished at 01:27:38
end
************************************************************
  HS Scan of (1) Internal mercury lamp
************************************************************
Integration time is 0.2294 seconds per sample
dh160718Reading 51.44 .94 3.8pr1000
************************************************************
Dead Time -------------------------  3.4E-08 
Number of Cycles Used -------------  4 
Starting Wavelength (Angstroms) ---  2950 
Final Wavelength (Angstoms) -------  2984 
Wavelength Increment (Angstroms) --  .25 
Filter Wheel #1 Position ---------- (1) Ground quartz diffuser (ND=2.32)
Filter Wheel #2 Position ---------- (1) Neutral Density 0.494



************************************************************
HS scan start time = 21:07:31
Dark Count =  6.6 


Time (GMT)  Wavelength (Ang)  Step Number  Raw Counts  Counts/Second

 1268.42        2950.00           2144          60.00       232.78
 1268.61        2950.25           2147          51.00       193.55
 1268.64        2950.50           2151          64.00       250.22
 1268.68        2950.75           2155          60.00       232.78
 1268.71        2951.00           2158          59.00       228.42
 1268.74        2951.25           2162          62.00       241.50
 1268.77        2951.50           2165          60.00       232.78
 1268.80        2951.75           2169          55.00       210.99
 1268.83        2952.00           2172          56.00       215.35
 1268.86        2952.25           2176          54.00       206.63
 1268.89        2952.50           2179          59.00       228.42
 1268.92        2952.75           2183          61.00       237.14
 1268.95        2953.00           2186          61.00       237.14
 1268.98        2953.25           2190          59.00       228.42
 1269.01        2953.50           2193          65.00       254.58
 1269.04        2953.75           2197          59.00       228.42
 1269.07        2954.00           2200          58.00       224.06
 1269.10        2954.25           2204          57.00       219.71
 1269.13        2954.50           2208          56.00       215.35
 1269.16        2954.75           2211          56.00       215.35
 1269.20        2955.00           2215          64.00       250.22
 1269.23        2955.25           2218          68.00       267.66
 1269.26        2955.50           2222          52.00       197.91
 1269.29        2955.75           2225          68.00       267.66
 1269.32        2956.00           2229          64.00       250.22
 1269.35        2956.25           2232          70.00       276.38
 1269.38        2956.50           2236          64.00       250.22
 1269.41        2956.75           2239          64.00       250.22
 1269.44        2957.00           2243          62.00       241.50
 1269.47        2957.25           2246          71.00       280.74
 1269.50        2957.50           2250          68.00       267.66
 1269.53        2957.75           2254          66.00       258.94
 1269.56        2958.00           2257          71.00       280.74
 1269.59        2958.25           2261          80.00       319.97
 1269.62        2958.50           2264          80.00       319.97
 1269.65        2958.75           2268          72.00       285.09
 1269.68        2959.00           2271          79.00       315.61
 1269.71        2959.25           2275          75.00       298.17
 1269.75        2959.50           2278          71.00       280.74
 1269.78        2959.75           2282          76.00       302.53
 1269.81        2960.00           2285          76.00       302.53
 1269.84        2960.25           2289          85.00       341.77
 1269.87        2960.50           2293          79.00       315.61
 1269.90        2960.75           2296          90.00       363.56
 1269.93        2961.00           2300         143.00       594.61
 1269.96        2961.25           2303         354.00      1514.46
 1269.99        2961.50           2307        1124.00      4871.78
 1270.02        2961.75           2310        1997.00      8679.11
 1270.05        2962.00           2314        3218.00     14005.80
 1270.08        2962.25           2317        4224.00     18395.98
 1270.11        2962.50           2321        5509.00     24005.64
 1270.14        2962.75           2324        6510.00     28376.97
 1270.17        2963.00           2328        7899.00     34444.85
 1270.20        2963.25           2331        9066.00     39544.85
 1270.23        2963.50           2335       10548.00     46024.02
 1270.27        2963.75           2339       12017.00     52449.17
 1270.30        2964.00           2342       13138.00     57354.11
 1270.33        2964.25           2346       14280.00     62352.63
 1270.36        2964.50           2349       15242.00     66564.61
 1270.39        2964.75           2353       16854.00     73625.23
 1270.42        2965.00           2356       17900.00     78208.56
 1270.45        2965.25           2360       19210.00     83950.71
 1270.48        2965.50           2363       20193.00     88260.98
 1270.51        2965.75           2367       21221.00     92769.92
 1270.54        2966.00           2370       22349.00     97719.07
 1270.57        2966.25           2374       23594.00    103183.50
 1270.60        2966.50           2378       24255.00    106085.50
 1270.63        2966.75           2381       24161.00    105672.80
 1270.66        2967.00           2385       24230.00    105975.80
 1270.69        2967.25           2388       24277.00    106182.10
 1270.72        2967.50           2392       24209.00    105883.60
 1270.75        2967.75           2395       24070.00    105273.30
 1270.79        2968.00           2399       23275.00    101783.20
 1270.82        2968.25           2402       22556.00     98627.49
 1270.85        2968.50           2406       21131.00     92375.12
 1270.88        2968.75           2409       20030.00     87546.16
 1270.91        2969.00           2413       18536.00     80996.07
 1270.94        2969.25           2417       17109.00     74742.46
 1270.97        2969.50           2420       16193.00     70729.61
 1271.00        2969.75           2424       14869.00     64931.34
 1271.03        2970.00           2427       13708.00     59848.78
 1271.06        2970.25           2431       12064.00     52654.78
 1271.09        2970.50           2434       10879.00     47471.50
 1271.12        2970.75           2438        9494.00     41415.74
 1271.15        2971.00           2441        8470.00     36940.00
 1271.18        2971.25           2445        7167.00     31246.78
 1271.21        2971.50           2449        5706.00     24865.83
 1271.24        2971.75           2452        4662.00     20307.83
 1271.27        2972.00           2456        3137.00     13652.37
 1271.31        2972.25           2459        2152.00      9355.20
 1271.34        2972.50           2463        1070.00      4636.30
 1271.37        2972.75           2466         461.00      1980.95
 1271.40        2973.00           2470         158.00       660.00
 1271.43        2973.25           2473         143.00       594.61
 1271.46        2973.50           2477         102.00       415.87
 1271.49        2973.75           2481          88.00       354.84
 1271.52        2974.00           2484          92.00       372.28
 1271.55        2974.25           2488          85.00       341.77
 1271.58        2974.50           2491          86.00       346.12
 1271.61        2974.75           2495          85.00       341.77
 1271.64        2975.00           2498          77.00       306.89
 1271.67        2975.25           2502          77.00       306.89
 1271.70        2975.50           2505          68.00       267.66
 1271.73        2975.75           2509          79.00       315.61
 1271.76        2976.00           2512          75.00       298.17
 1271.79        2976.25           2516          78.00       311.25
 1271.82        2976.50           2520          75.00       298.17
 1271.86        2976.75           2523          70.00       276.38
 1271.89        2977.00           2527          74.00       293.81
 1271.92        2977.25           2530          69.00       272.02
 1271.95        2977.50           2534          74.00       293.81
 1271.98        2977.75           2537          58.00       224.06
 1272.01        2978.00           2541          64.00       250.22
 1272.04        2978.25           2544          63.00       245.86
 1272.07        2978.50           2548          64.00       250.22
 1272.10        2978.75           2552          66.00       258.94
 1272.13        2979.00           2555          59.00       228.42
 1272.16        2979.25           2559          58.00       224.06
 1272.19        2979.50           2562          69.00       272.02
 1272.22        2979.75           2566          66.00       258.94
 1272.25        2980.00           2569          67.00       263.30
 1272.28        2980.25           2573          56.00       215.35
 1272.31        2980.50           2577          66.00       258.94
 1272.35        2980.75           2580          66.00       258.94
 1272.38        2981.00           2584          60.00       232.78
 1272.41        2981.25           2587          63.00       245.86
 1272.44        2981.50           2591          61.00       237.14
 1272.47        2981.75           2594          61.00       237.14
 1272.50        2982.00           2598          63.00       245.86
 1272.53        2982.25           2601          54.00       206.63
 1272.56        2982.50           2605          56.00       215.35
 1272.59        2982.75           2609          57.00       219.71
 1272.62        2983.00           2612          56.00       215.35
 1272.65        2983.25           2616          54.00       206.63
 1272.68        2983.50           2619          51.00       193.55
 1272.71        2983.75           2623          59.00       228.42
 1272.74        2984.00           2626          53.00       202.27
HS scan finished at 21:12:58
end
