************************************************************
  HS Scan of (1) Internal mercury lamp
************************************************************
Integration time is 0.2294 seconds per sample
dh130717Reading 51.44 .94 3.47pr1000
************************************************************
Dead Time -------------------------  3.4E-08 
Number of Cycles Used -------------  4 
Starting Wavelength (Angstroms) ---  2950 
Final Wavelength (Angstoms) -------  2984 
Wavelength Increment (Angstroms) --  .25 
Filter Wheel #1 Position ---------- (1) Ground quartz diffuser (ND=2.32)
Filter Wheel #2 Position ---------- (1) Neutral Density 0.494



************************************************************
HS scan start time = 01:13:40
Dark Count =  2.1 


Time (GMT)  Wavelength (Ang)  Step Number  Raw Counts  Counts/Second

   74.57        2950.00           2144         323.00      1398.93
   74.76        2950.25           2147         308.00      1333.54
   74.79        2950.50           2151         331.00      1433.81
   74.82        2950.75           2155         328.00      1420.73
   74.86        2951.00           2158         321.00      1390.21
   74.89        2951.25           2162         337.00      1459.97
   74.92        2951.50           2165         316.00      1368.42
   74.95        2951.75           2169         324.00      1403.29
   74.98        2952.00           2172         321.00      1390.21
   75.01        2952.25           2176         337.00      1459.97
   75.04        2952.50           2179         338.00      1464.33
   75.07        2952.75           2183         343.00      1486.13
   75.10        2953.00           2186         337.00      1459.97
   75.13        2953.25           2190         369.00      1599.48
   75.16        2953.50           2193         361.00      1564.60
   75.19        2953.75           2197         335.00      1451.25
   75.22        2954.00           2200         358.00      1551.52
   75.25        2954.25           2204         363.00      1573.32
   75.28        2954.50           2208         353.00      1529.72
   75.31        2954.75           2211         354.00      1534.08
   75.34        2955.00           2215         378.00      1638.71
   75.38        2955.25           2218         363.00      1573.32
   75.41        2955.50           2222         371.00      1608.20
   75.44        2955.75           2225         360.00      1560.24
   75.47        2956.00           2229         347.00      1503.56
   75.50        2956.25           2232         397.00      1721.55
   75.53        2956.50           2236         375.00      1625.63
   75.56        2956.75           2239         380.00      1647.43
   75.59        2957.00           2243         384.00      1664.87
   75.62        2957.25           2246         371.00      1608.20
   75.65        2957.50           2250         388.00      1682.31
   75.68        2957.75           2254         397.00      1721.55
   75.71        2958.00           2257         397.00      1721.55
   75.74        2958.25           2261         401.00      1738.99
   75.77        2958.50           2264         413.00      1791.30
   75.80        2958.75           2268         418.00      1813.10
   75.83        2959.00           2271         428.00      1856.70
   75.86        2959.25           2275         440.00      1909.02
   75.90        2959.50           2278         431.00      1869.78
   75.93        2959.75           2282         458.00      1987.49
   75.96        2960.00           2285         456.00      1978.77
   75.99        2960.25           2289         478.00      2074.69
   76.02        2960.50           2293         497.00      2157.53
   76.05        2960.75           2296         488.00      2118.29
   76.08        2961.00           2300         552.00      2397.32
   76.11        2961.25           2303         753.00      3273.69
   76.14        2961.50           2307        2819.00     12284.55
   76.17        2961.75           2310        6576.00     28684.89
   76.20        2962.00           2314       13099.00     57203.13
   76.23        2962.25           2317       18105.00     79126.71
   76.26        2962.50           2321       25229.00    110382.60
   76.29        2962.75           2324       31222.00    136727.90
   76.32        2963.00           2328       40018.00    175481.10
   76.35        2963.25           2331       46448.00    203875.20
   76.38        2963.50           2335       54581.00    239868.50
   76.42        2963.75           2339       62724.00    275995.00
   76.45        2964.00           2342       68889.00    303405.40
   76.48        2964.25           2346       77183.00    340362.90
   76.51        2964.50           2349       82973.00    366218.20
   76.54        2964.75           2353       91774.00    405607.10
   76.57        2965.00           2356       97461.00    431115.80
   76.60        2965.25           2360      104998.00    464991.50
   76.63        2965.50           2363      110804.00    491140.80
   76.66        2965.75           2367      118840.00    527411.10
   76.69        2966.00           2370      123591.00    548897.30
   76.72        2966.25           2374      129643.00    576313.10
   76.75        2966.50           2378      133576.00    594157.50
   76.78        2966.75           2381      134697.00    599247.50
   76.81        2967.00           2385      134951.00    600401.10
   76.84        2967.25           2388      134858.00    599978.80
   76.87        2967.50           2392      134644.00    599006.90
   76.90        2967.75           2395      134064.00    596373.10
   76.94        2968.00           2399      130016.00    578004.50
   76.97        2968.25           2402      125405.00    557109.40
   77.00        2968.50           2406      118144.00    524266.20
   77.03        2968.75           2409      112523.00    498891.90
   77.06        2969.00           2413      104929.00    464681.00
   77.09        2969.25           2417       97022.00    429145.10
   77.12        2969.50           2420       91511.00    404428.50
   77.16        2969.75           2424       83931.00    370500.60
   77.19        2970.00           2427       78309.00    345387.50
   77.23        2970.25           2431       70752.00    311698.70
   77.26        2970.50           2434       64247.00    282761.60
   77.29        2970.75           2438       55342.00    243241.00
   77.32        2971.00           2441       48692.00    213797.40
   77.35        2971.25           2445       41096.00    180237.60
   77.38        2971.50           2449       34063.00    149233.50
   77.41        2971.75           2452       28227.00    123555.90
   77.44        2972.00           2456       20364.00     89030.64
   77.47        2972.25           2459       14585.00     63707.60
   77.50        2972.50           2463        7676.00     33490.17
   77.53        2972.75           2466        3710.00     16172.36
   77.56        2973.00           2470        1194.00      5196.65
   77.59        2973.25           2473         680.00      2955.40
   77.62        2973.50           2477         558.00      2423.48
   77.65        2973.75           2481         522.00      2266.52
   77.68        2974.00           2484         515.00      2236.00
   77.71        2974.25           2488         488.00      2118.29
   77.75        2974.50           2491         480.00      2083.41
   77.78        2974.75           2495         469.00      2035.45
   77.81        2975.00           2498         469.00      2035.45
   77.84        2975.25           2502         461.00      2000.57
   77.87        2975.50           2505         441.00      1913.38
   77.90        2975.75           2509         453.00      1965.69
   77.93        2976.00           2512         460.00      1996.21
   77.96        2976.25           2516         441.00      1913.38
   77.99        2976.50           2520         436.00      1891.58
   78.02        2976.75           2523         417.00      1808.74
   78.05        2977.00           2527         408.00      1769.50
   78.08        2977.25           2530         416.00      1804.38
   78.11        2977.50           2534         411.00      1782.58
   78.14        2977.75           2537         409.00      1773.86
   78.17        2978.00           2541         389.00      1686.67
   78.20        2978.25           2544         388.00      1682.31
   78.23        2978.50           2548         407.00      1765.15
   78.27        2978.75           2552         388.00      1682.31
   78.30        2979.00           2555         374.00      1621.27
   78.33        2979.25           2559         366.00      1586.40
   78.36        2979.50           2562         402.00      1743.35
   78.39        2979.75           2566         360.00      1560.24
   78.42        2980.00           2569         361.00      1564.60
   78.45        2980.25           2573         358.00      1551.52
   78.48        2980.50           2577         359.00      1555.88
   78.51        2980.75           2580         381.00      1651.79
   78.54        2981.00           2584         347.00      1503.56
   78.57        2981.25           2587         355.00      1538.44
   78.60        2981.50           2591         358.00      1551.52
   78.63        2981.75           2594         336.00      1455.61
   78.66        2982.00           2598         347.00      1503.56
   78.69        2982.25           2601         342.00      1481.77
   78.72        2982.50           2605         324.00      1403.29
   78.75        2982.75           2609         344.00      1490.49
   78.79        2983.00           2612         318.00      1377.14
   78.82        2983.25           2616         329.00      1425.09
   78.85        2983.50           2619         353.00      1529.72
   78.88        2983.75           2623         337.00      1459.97
   78.91        2984.00           2626         357.00      1547.16
HS scan finished at 01:19:08
end
************************************************************
  HS Scan of (1) Internal mercury lamp
************************************************************
Integration time is 0.2294 seconds per sample
dh130717Reading 51.44 .94 3.7pr1000
************************************************************
Dead Time -------------------------  3.4E-08 
Number of Cycles Used -------------  4 
Starting Wavelength (Angstroms) ---  2950 
Final Wavelength (Angstoms) -------  2984 
Wavelength Increment (Angstroms) --  .25 
Filter Wheel #1 Position ---------- (1) Ground quartz diffuser (ND=2.32)
Filter Wheel #2 Position ---------- (1) Neutral Density 0.494



************************************************************
HS scan start time = 21:07:28
Dark Count =  4.4 


Time (GMT)  Wavelength (Ang)  Step Number  Raw Counts  Counts/Second

 1268.37        2950.00           2144         266.00      1140.41
 1268.56        2950.25           2147         257.00      1101.17
 1268.59        2950.50           2151         275.00      1179.65
 1268.62        2950.75           2155         267.00      1144.77
 1268.65        2951.00           2158         270.00      1157.85
 1268.68        2951.25           2162         290.00      1245.04
 1268.71        2951.50           2165         271.00      1162.21
 1268.74        2951.75           2169         292.00      1253.76
 1268.77        2952.00           2172         259.00      1109.89
 1268.80        2952.25           2176         282.00      1210.16
 1268.83        2952.50           2179         270.00      1157.85
 1268.86        2952.75           2183         259.00      1109.89
 1268.89        2953.00           2186         277.00      1188.37
 1268.93        2953.25           2190         288.00      1236.32
 1268.96        2953.50           2193         302.00      1297.35
 1268.99        2953.75           2197         288.00      1236.32
 1269.02        2954.00           2200         293.00      1258.12
 1269.05        2954.25           2204         287.00      1231.96
 1269.09        2954.50           2208         297.00      1275.56
 1269.12        2954.75           2211         282.00      1210.16
 1269.15        2955.00           2215         289.00      1240.68
 1269.18        2955.25           2218         306.00      1314.79
 1269.21        2955.50           2222         318.00      1367.11
 1269.24        2955.75           2225         296.00      1271.20
 1269.27        2956.00           2229         312.00      1340.95
 1269.30        2956.25           2232         301.00      1293.00
 1269.33        2956.50           2236         295.00      1266.84
 1269.36        2956.75           2239         302.00      1297.35
 1269.39        2957.00           2243         305.00      1310.43
 1269.42        2957.25           2246         299.00      1284.28
 1269.45        2957.50           2250         319.00      1371.47
 1269.48        2957.75           2254         323.00      1388.91
 1269.51        2958.00           2257         325.00      1397.63
 1269.54        2958.25           2261         349.00      1502.26
 1269.57        2958.50           2264         332.00      1428.14
 1269.60        2958.75           2268         375.00      1615.61
 1269.64        2959.00           2271         377.00      1624.33
 1269.67        2959.25           2275         363.00      1563.29
 1269.70        2959.50           2278         357.00      1537.13
 1269.73        2959.75           2282         371.00      1598.17
 1269.76        2960.00           2285         372.00      1602.53
 1269.79        2960.25           2289         429.00      1851.03
 1269.82        2960.50           2293         421.00      1816.15
 1269.85        2960.75           2296         409.00      1763.84
 1269.88        2961.00           2300         489.00      2112.62
 1269.91        2961.25           2303        1077.00      4676.42
 1269.94        2961.50           2307        3889.00     16943.50
 1269.97        2961.75           2310        7110.00     31007.39
 1270.00        2962.00           2314       12103.00     52835.02
 1270.03        2962.25           2317       16487.00     72027.09
 1270.06        2962.50           2321       22953.00    100379.50
 1270.09        2962.75           2324       27804.00    121686.40
 1270.12        2963.00           2328       34444.00    150901.30
 1270.16        2963.25           2331       39909.00    174990.10
 1270.19        2963.50           2335       46561.00    204364.50
 1270.22        2963.75           2339       53297.00    234170.00
 1270.25        2964.00           2342       58090.00    255415.10
 1270.28        2964.25           2346       63870.00    281076.20
 1270.31        2964.50           2349       68406.00    301245.90
 1270.34        2964.75           2353       75200.00    331508.10
 1270.37        2965.00           2356       80153.00    353609.50
 1270.40        2965.25           2360       86340.00    381264.40
 1270.43        2965.50           2363       91003.00    402142.00
 1270.46        2965.75           2367       96724.00    427797.30
 1270.49        2966.00           2370      101093.00    447420.00
 1270.52        2966.25           2374      106876.00    473434.20
 1270.55        2966.50           2378      110931.00    491703.00
 1270.58        2966.75           2381      112074.00    496856.60
 1270.61        2967.00           2385      112392.00    498290.70
 1270.64        2967.25           2388      112630.00    499364.20
 1270.68        2967.50           2392      112372.00    498200.50
 1270.71        2967.75           2395      111734.00    495323.40
 1270.74        2968.00           2399      110027.00    487628.20
 1270.77        2968.25           2402      106845.00    473294.70
 1270.80        2968.50           2406      101344.00    448548.20
 1270.83        2968.75           2409       96204.00    425463.50
 1270.86        2969.00           2413       88807.00    392306.10
 1270.89        2969.25           2417       82381.00    363562.30
 1270.92        2969.50           2420       77757.00    342913.90
 1270.95        2969.75           2424       71534.00    315171.00
 1270.98        2970.00           2427       66737.00    293821.30
 1271.01        2970.25           2431       58775.00    258453.90
 1271.04        2970.50           2434       53513.00    235126.80
 1271.07        2970.75           2438       46877.00    205761.40
 1271.10        2971.00           2441       42281.00    185457.80
 1271.13        2971.25           2445       35650.00    156213.70
 1271.16        2971.50           2449       29436.00    128861.50
 1271.20        2971.75           2452       25011.00    109415.00
 1271.23        2972.00           2456       17680.00     77254.10
 1271.26        2972.25           2459       12465.00     54418.82
 1271.29        2972.50           2463        6476.00     28238.09
 1271.32        2972.75           2466        3307.00     14403.74
 1271.35        2973.00           2470        1112.00      4829.04
 1271.38        2973.25           2473         629.00      2723.01
 1271.41        2973.50           2477         483.00      2086.46
 1271.44        2973.75           2481         446.00      1925.15
 1271.47        2974.00           2484         427.00      1842.31
 1271.50        2974.25           2488         410.00      1768.20
 1271.53        2974.50           2491         405.00      1746.40
 1271.56        2974.75           2495         397.00      1711.52
 1271.59        2975.00           2498         386.00      1663.56
 1271.62        2975.25           2502         393.00      1694.08
 1271.65        2975.50           2505         408.00      1759.48
 1271.68        2975.75           2509         407.00      1755.12
 1271.72        2976.00           2512         344.00      1480.46
 1271.75        2976.25           2516         367.00      1580.73
 1271.78        2976.50           2520         349.00      1502.26
 1271.81        2976.75           2523         343.00      1476.10
 1271.84        2977.00           2527         330.00      1419.42
 1271.87        2977.25           2530         331.00      1423.78
 1271.90        2977.50           2534         326.00      1401.98
 1271.93        2977.75           2537         323.00      1388.91
 1271.96        2978.00           2541         336.00      1445.58
 1271.99        2978.25           2544         323.00      1388.91
 1272.02        2978.50           2548         335.00      1441.22
 1272.05        2978.75           2552         313.00      1345.31
 1272.08        2979.00           2555         306.00      1314.79
 1272.11        2979.25           2559         309.00      1327.87
 1272.14        2979.50           2562         304.00      1306.07
 1272.17        2979.75           2566         312.00      1340.95
 1272.20        2980.00           2569         311.00      1336.59
 1272.24        2980.25           2573         314.00      1349.67
 1272.27        2980.50           2577         299.00      1284.28
 1272.30        2980.75           2580         299.00      1284.28
 1272.33        2981.00           2584         293.00      1258.12
 1272.36        2981.25           2587         294.00      1262.48
 1272.39        2981.50           2591         288.00      1236.32
 1272.42        2981.75           2594         293.00      1258.12
 1272.45        2982.00           2598         292.00      1253.76
 1272.48        2982.25           2601         285.00      1223.24
 1272.51        2982.50           2605         274.00      1175.29
 1272.54        2982.75           2609         290.00      1245.04
 1272.57        2983.00           2612         291.00      1249.40
 1272.60        2983.25           2616         273.00      1170.93
 1272.63        2983.50           2619         276.00      1184.01
 1272.66        2983.75           2623         271.00      1162.21
 1272.69        2984.00           2626         272.00      1166.57
HS scan finished at 21:12:55
end
