************************************************************
  HS Scan of (1) Internal mercury lamp
************************************************************
Integration time is 0.2294 seconds per sample
dh110718Reading 51.44 .94 3.6pr1000
************************************************************
Dead Time -------------------------  3.4E-08 
Number of Cycles Used -------------  4 
Starting Wavelength (Angstroms) ---  2950 
Final Wavelength (Angstoms) -------  2984 
Wavelength Increment (Angstroms) --  .25 
Filter Wheel #1 Position ---------- (1) Ground quartz diffuser (ND=2.32)
Filter Wheel #2 Position ---------- (1) Neutral Density 0.494



************************************************************
HS scan start time = 02:41:10
Dark Count =  3.1 


Time (GMT)  Wavelength (Ang)  Step Number  Raw Counts  Counts/Second

  162.06        2950.00           2144          84.00       352.66
  162.26        2950.25           2147          88.00       370.10
  162.29        2950.50           2151          88.00       370.10
  162.32        2950.75           2155          90.00       378.82
  162.35        2951.00           2158          89.00       374.46
  162.38        2951.25           2162         114.00       483.44
  162.41        2951.50           2165          91.00       383.18
  162.44        2951.75           2169          95.00       400.62
  162.47        2952.00           2172          88.00       370.10
  162.50        2952.25           2176          90.00       378.82
  162.53        2952.50           2179          93.00       391.90
  162.56        2952.75           2183          85.00       357.02
  162.59        2953.00           2186          91.00       383.18
  162.62        2953.25           2190          94.00       396.26
  162.65        2953.50           2193          92.00       387.54
  162.68        2953.75           2197         108.00       457.29
  162.71        2954.00           2200          95.00       400.62
  162.75        2954.25           2204          95.00       400.62
  162.78        2954.50           2208         108.00       457.29
  162.81        2954.75           2211         101.00       426.77
  162.84        2955.00           2215         104.00       439.85
  162.87        2955.25           2218         112.00       474.72
  162.90        2955.50           2222         107.00       452.93
  162.93        2955.75           2225         146.00       622.94
  162.96        2956.00           2229         107.00       452.93
  162.99        2956.25           2232         107.00       452.93
  163.02        2956.50           2236         163.00       697.05
  163.05        2956.75           2239         148.00       631.66
  163.08        2957.00           2243         112.00       474.72
  163.11        2957.25           2246         131.00       557.55
  163.14        2957.50           2250         111.00       470.37
  163.17        2957.75           2254         153.00       653.46
  163.20        2958.00           2257         148.00       631.66
  163.23        2958.25           2261         113.00       479.08
  163.27        2958.50           2264         154.00       657.82
  163.30        2958.75           2268         125.00       531.40
  163.33        2959.00           2271         140.00       596.79
  163.36        2959.25           2275         115.00       487.80
  163.39        2959.50           2278         148.00       631.66
  163.42        2959.75           2282         155.00       662.18
  163.45        2960.00           2285         142.00       605.51
  163.48        2960.25           2289         138.00       588.07
  163.51        2960.50           2293         174.00       745.01
  163.54        2960.75           2296         156.00       666.54
  163.57        2961.00           2300         233.00      1002.21
  163.60        2961.25           2303         626.00      2715.60
  163.63        2961.50           2307        2128.00      9265.78
  163.66        2961.75           2310        3728.00     16246.55
  163.69        2962.00           2314        6045.00     26361.46
  163.72        2962.25           2317        7779.00     33935.82
  163.75        2962.50           2321       10283.00     44880.55
  163.79        2962.75           2324       11978.00     52293.86
  163.82        2963.00           2328       14648.00     63979.04
  163.85        2963.25           2331       16497.00     72076.60
  163.88        2963.50           2335       19290.00     84316.80
  163.91        2963.75           2339       22195.00     97058.66
  163.94        2964.00           2342       24012.00    105034.00
  163.97        2964.25           2346       26507.00    115992.30
  164.00        2964.50           2349       28511.00    124800.00
  164.03        2964.75           2353       30859.00    135126.40
  164.06        2965.00           2356       32931.00    144244.90
  164.09        2965.25           2360       35534.00    155708.40
  164.12        2965.50           2363       37293.00    163460.00
  164.15        2965.75           2367       39659.00    173893.00
  164.18        2966.00           2370       41515.00    182082.30
  164.21        2966.25           2374       43766.00    192020.70
  164.24        2966.50           2378       44851.00    196813.50
  164.27        2966.75           2381       44967.00    197326.00
  164.31        2967.00           2385       45094.00    197887.10
  164.34        2967.25           2388       45027.00    197591.10
  164.37        2967.50           2392       44773.00    196468.90
  164.40        2967.75           2395       44473.00    195143.60
  164.43        2968.00           2399       43104.00    189097.20
  164.46        2968.25           2402       41405.00    181596.90
  164.49        2968.50           2406       39022.00    171083.40
  164.52        2968.75           2409       36971.00    162040.70
  164.55        2969.00           2413       34107.00    149422.90
  164.58        2969.25           2417       31495.00    137924.70
  164.61        2969.50           2420       29473.00    129030.00
  164.64        2969.75           2424       26821.00    117372.00
  164.67        2970.00           2427       24731.00    108191.10
  164.70        2970.25           2431       22041.00     96382.91
  164.73        2970.50           2434       20073.00     87750.09
  164.76        2970.75           2438       17479.00     76379.01
  164.79        2971.00           2441       15513.00     67766.69
  164.82        2971.25           2445       12716.00     55522.77
  164.86        2971.50           2449       10244.00     44710.03
  164.89        2971.75           2452        8381.00     36566.36
  164.92        2972.00           2456        6022.00     26261.01
  164.95        2972.25           2459        4126.00     17983.53
  164.98        2972.50           2463        1989.00      8659.48
  165.01        2972.75           2466         849.00      3687.91
  165.04        2973.00           2470         278.00      1198.39
  165.07        2973.25           2473         183.00       784.24
  165.10        2973.50           2477         179.00       766.80
  165.13        2973.75           2481         153.00       653.46
  165.16        2974.00           2484         151.00       644.74
  165.19        2974.25           2488         160.00       683.97
  165.22        2974.50           2491         150.00       640.38
  165.25        2974.75           2495         143.00       609.86
  165.28        2975.00           2498         134.00       570.63
  165.31        2975.25           2502         168.00       718.85
  165.34        2975.50           2505         144.00       614.22
  165.38        2975.75           2509         135.00       574.99
  165.41        2976.00           2512         141.00       601.15
  165.44        2976.25           2516         140.00       596.79
  165.47        2976.50           2520         142.00       605.51
  165.50        2976.75           2523         118.00       500.88
  165.53        2977.00           2527         111.00       470.37
  165.56        2977.25           2530         137.00       583.71
  165.59        2977.50           2534         107.00       452.93
  165.62        2977.75           2537         144.00       614.22
  165.65        2978.00           2541         125.00       531.40
  165.68        2978.25           2544         114.00       483.44
  165.71        2978.50           2548         100.00       422.41
  165.74        2978.75           2552         128.00       544.47
  165.77        2979.00           2555         102.00       431.13
  165.80        2979.25           2559         123.00       522.68
  165.83        2979.50           2562         104.00       439.85
  165.86        2979.75           2566         112.00       474.72
  165.90        2980.00           2569         136.00       579.35
  165.93        2980.25           2573          99.00       418.05
  165.96        2980.50           2577          92.00       387.54
  165.99        2980.75           2580          97.00       409.33
  166.02        2981.00           2584         101.00       426.77
  166.05        2981.25           2587          91.00       383.18
  166.08        2981.50           2591         111.00       470.37
  166.11        2981.75           2594          99.00       418.05
  166.14        2982.00           2598          99.00       418.05
  166.17        2982.25           2601          97.00       409.33
  166.20        2982.50           2605         100.00       422.41
  166.23        2982.75           2609          85.00       357.02
  166.26        2983.00           2612          81.00       339.59
  166.29        2983.25           2616          83.00       348.30
  166.32        2983.50           2619          92.00       387.54
  166.35        2983.75           2623          88.00       370.10
  166.38        2984.00           2626          79.00       330.87
HS scan finished at 02:46:36
end
************************************************************
  HS Scan of (1) Internal mercury lamp
************************************************************
Integration time is 0.2294 seconds per sample
dh110718Reading 51.44 .94 3.92pr1000
************************************************************
Dead Time -------------------------  3.4E-08 
Number of Cycles Used -------------  4 
Starting Wavelength (Angstroms) ---  2950 
Final Wavelength (Angstoms) -------  2984 
Wavelength Increment (Angstroms) --  .25 
Filter Wheel #1 Position ---------- (1) Ground quartz diffuser (ND=2.32)
Filter Wheel #2 Position ---------- (1) Neutral Density 0.494



************************************************************
HS scan start time = 21:07:27
Dark Count =  8.3 


Time (GMT)  Wavelength (Ang)  Step Number  Raw Counts  Counts/Second

 1268.35        2950.00           2144          73.00       282.04
 1268.54        2950.25           2147          69.00       264.61
 1268.57        2950.50           2151          80.00       312.56
 1268.60        2950.75           2155          80.00       312.56
 1268.63        2951.00           2158          78.00       303.84
 1268.66        2951.25           2162          79.00       308.20
 1268.69        2951.50           2165          76.00       295.12
 1268.72        2951.75           2169          79.00       308.20
 1268.75        2952.00           2172          72.00       277.68
 1268.79        2952.25           2176          79.00       308.20
 1268.82        2952.50           2179          75.00       290.76
 1268.85        2952.75           2183          77.00       299.48
 1268.88        2953.00           2186          80.00       312.56
 1268.91        2953.25           2190          84.00       329.99
 1268.94        2953.50           2193          76.00       295.12
 1268.97        2953.75           2197          82.00       321.28
 1269.00        2954.00           2200          87.00       343.07
 1269.03        2954.25           2204          82.00       321.28
 1269.06        2954.50           2208          83.00       325.64
 1269.09        2954.75           2211          82.00       321.28
 1269.12        2955.00           2215          90.00       356.15
 1269.15        2955.25           2218          86.00       338.71
 1269.18        2955.50           2222          85.00       334.35
 1269.21        2955.75           2225          83.00       325.64
 1269.24        2956.00           2229          84.00       329.99
 1269.27        2956.25           2232          84.00       329.99
 1269.30        2956.50           2236          93.00       369.23
 1269.34        2956.75           2239          79.00       308.20
 1269.37        2957.00           2243          89.00       351.79
 1269.40        2957.25           2246          92.00       364.87
 1269.43        2957.50           2250          89.00       351.79
 1269.46        2957.75           2254          88.00       347.43
 1269.49        2958.00           2257          90.00       356.15
 1269.52        2958.25           2261          94.00       373.59
 1269.55        2958.50           2264          90.00       356.15
 1269.58        2958.75           2268          93.00       369.23
 1269.61        2959.00           2271          94.00       373.59
 1269.64        2959.25           2275         113.00       456.42
 1269.67        2959.50           2278         128.00       521.81
 1269.70        2959.75           2282         137.00       561.04
 1269.73        2960.00           2285         128.00       521.81
 1269.76        2960.25           2289         131.00       534.88
 1269.79        2960.50           2293         115.00       465.13
 1269.82        2960.75           2296         123.00       500.01
 1269.86        2961.00           2300         162.00       670.02
 1269.89        2961.25           2303         400.00      1707.60
 1269.92        2961.50           2307        1523.00      6604.36
 1269.95        2961.75           2310        2694.00     11712.16
 1269.98        2962.00           2314        4564.00     19872.62
 1270.01        2962.25           2317        5980.00     26054.90
 1270.04        2962.50           2321        7966.00     34730.18
 1270.07        2962.75           2324        9301.00     40564.63
 1270.10        2963.00           2328       11335.00     49458.43
 1270.13        2963.25           2331       12759.00     55688.17
 1270.16        2963.50           2335       14620.00     63833.69
 1270.19        2963.75           2339       16617.00     72579.50
 1270.22        2964.00           2342       18417.00     80467.02
 1270.25        2964.25           2346       20327.00     88841.19
 1270.28        2964.50           2349       21848.00     95513.24
 1270.31        2964.75           2353       23903.00    104532.60
 1270.35        2965.00           2356       25214.00    110289.40
 1270.38        2965.25           2360       27066.00    118425.80
 1270.41        2965.50           2363       28303.00    123862.70
 1270.44        2965.75           2367       30205.00    132226.50
 1270.47        2966.00           2370       31393.00    137453.00
 1270.50        2966.25           2374       33115.00    145032.10
 1270.53        2966.50           2378       33515.00    146793.20
 1270.56        2966.75           2381       33840.00    148224.20
 1270.59        2967.00           2385       33716.00    147678.20
 1270.62        2967.25           2388       33887.00    148431.10
 1270.65        2967.50           2392       33800.00    148048.10
 1270.68        2967.75           2395       33321.00    145939.00
 1270.71        2968.00           2399       31854.00    139481.60
 1270.74        2968.25           2402       30539.00    133695.70
 1270.77        2968.50           2406       28695.00    125586.10
 1270.80        2968.75           2409       27243.00    119203.60
 1270.83        2969.00           2413       25602.00    111993.60
 1270.86        2969.25           2417       23518.00    102842.40
 1270.90        2969.50           2420       22075.00     96509.27
 1270.93        2969.75           2424       19867.00     86823.93
 1270.96        2970.00           2427       18548.00     81041.21
 1270.99        2970.25           2431       16457.00     71878.60
 1271.02        2970.50           2434       15076.00     65830.27
 1271.05        2970.75           2438       13157.00     57429.82
 1271.08        2971.00           2441       11948.00     52139.87
 1271.11        2971.25           2445       10075.00     43948.36
 1271.14        2971.50           2449        7895.00     34419.95
 1271.17        2971.75           2452        6360.00     27714.42
 1271.20        2972.00           2456        4368.00     19017.09
 1271.23        2972.25           2459        3071.00     13356.98
 1271.26        2972.50           2463        1690.00      7332.69
 1271.29        2972.75           2466         826.00      3564.95
 1271.32        2973.00           2470         271.00      1145.21
 1271.35        2973.25           2473         159.00       656.95
 1271.38        2973.50           2477         135.00       552.32
 1271.42        2973.75           2481         124.00       504.37
 1271.45        2974.00           2484         130.00       530.52
 1271.48        2974.25           2488         134.00       547.96
 1271.51        2974.50           2491         107.00       430.26
 1271.54        2974.75           2495         105.00       421.54
 1271.57        2975.00           2498         135.00       552.32
 1271.60        2975.25           2502         105.00       421.54
 1271.63        2975.50           2505         121.00       491.29
 1271.66        2975.75           2509         107.00       430.26
 1271.69        2976.00           2512         103.00       412.82
 1271.72        2976.25           2516         133.00       543.60
 1271.75        2976.50           2520          95.00       377.95
 1271.78        2976.75           2523          90.00       356.15
 1271.81        2977.00           2527          93.00       369.23
 1271.84        2977.25           2530          95.00       377.95
 1271.87        2977.50           2534          96.00       382.31
 1271.90        2977.75           2537          88.00       347.43
 1271.94        2978.00           2541          89.00       351.79
 1271.97        2978.25           2544          94.00       373.59
 1272.00        2978.50           2548          91.00       360.51
 1272.03        2978.75           2552          83.00       325.64
 1272.06        2979.00           2555          88.00       347.43
 1272.09        2979.25           2559          91.00       360.51
 1272.12        2979.50           2562          86.00       338.71
 1272.15        2979.75           2566          91.00       360.51
 1272.18        2980.00           2569          72.00       277.68
 1272.21        2980.25           2573          82.00       321.28
 1272.24        2980.50           2577         104.00       417.18
 1272.27        2980.75           2580          90.00       356.15
 1272.30        2981.00           2584          82.00       321.28
 1272.33        2981.25           2587          80.00       312.56
 1272.36        2981.50           2591          76.00       295.12
 1272.39        2981.75           2594          80.00       312.56
 1272.42        2982.00           2598          82.00       321.28
 1272.45        2982.25           2601          81.00       316.92
 1272.49        2982.50           2605          75.00       290.76
 1272.52        2982.75           2609          81.00       316.92
 1272.55        2983.00           2612          78.00       303.84
 1272.58        2983.25           2616          70.00       268.97
 1272.61        2983.50           2619          65.00       247.17
 1272.64        2983.75           2623          79.00       308.20
 1272.67        2984.00           2626          75.00       290.76
HS scan finished at 21:12:54
end
