************************************************************
  HS Scan of (1) Internal mercury lamp
************************************************************
Integration time is 0.2294 seconds per sample
dh100718Reading 51.44 .94 3.76pr1000
************************************************************
Dead Time -------------------------  3.4E-08 
Number of Cycles Used -------------  4 
Starting Wavelength (Angstroms) ---  2950 
Final Wavelength (Angstoms) -------  2984 
Wavelength Increment (Angstroms) --  .25 
Filter Wheel #1 Position ---------- (1) Ground quartz diffuser (ND=2.32)
Filter Wheel #2 Position ---------- (1) Neutral Density 0.494



************************************************************
HS scan start time = 01:21:27
Dark Count =  4.3 


Time (GMT)  Wavelength (Ang)  Step Number  Raw Counts  Counts/Second

   82.34        2950.00           2144          77.00       316.92
   82.53        2950.25           2147          79.00       325.64
   82.56        2950.50           2151          77.00       316.92
   82.59        2950.75           2155          80.00       329.99
   82.62        2951.00           2158          84.00       347.43
   82.66        2951.25           2162          86.00       356.15
   82.69        2951.50           2165          77.00       316.92
   82.72        2951.75           2169          83.00       343.07
   82.75        2952.00           2172          81.00       334.35
   82.78        2952.25           2176          81.00       334.35
   82.81        2952.50           2179          84.00       347.43
   82.84        2952.75           2183          88.00       364.87
   82.87        2953.00           2186          87.00       360.51
   82.90        2953.25           2190          87.00       360.51
   82.93        2953.50           2193          86.00       356.15
   82.96        2953.75           2197          84.00       347.43
   82.99        2954.00           2200          85.00       351.79
   83.02        2954.25           2204          90.00       373.59
   83.05        2954.50           2208          92.00       382.31
   83.08        2954.75           2211          90.00       373.59
   83.11        2955.00           2215          89.00       369.23
   83.14        2955.25           2218          92.00       382.31
   83.18        2955.50           2222          89.00       369.23
   83.21        2955.75           2225          97.00       404.10
   83.24        2956.00           2229          84.00       347.43
   83.27        2956.25           2232         116.00       486.93
   83.30        2956.50           2236          94.00       391.03
   83.33        2956.75           2239         133.00       561.04
   83.36        2957.00           2243         104.00       434.62
   83.39        2957.25           2246          97.00       404.10
   83.42        2957.50           2250         121.00       508.73
   83.45        2957.75           2254         119.00       500.01
   83.48        2958.00           2257          98.00       408.46
   83.51        2958.25           2261         145.00       613.35
   83.54        2958.50           2264         102.00       425.90
   83.57        2958.75           2268         108.00       452.06
   83.60        2959.00           2271         148.00       626.43
   83.63        2959.25           2275         117.00       491.29
   83.66        2959.50           2278         126.00       530.52
   83.70        2959.75           2282         119.00       500.01
   83.73        2960.00           2285         119.00       500.01
   83.76        2960.25           2289         140.00       591.56
   83.79        2960.50           2293         128.00       539.24
   83.82        2960.75           2296         142.00       600.27
   83.85        2961.00           2300         191.00       813.88
   83.88        2961.25           2303         455.00      1964.82
   83.91        2961.50           2307        1681.00      7310.88
   83.94        2961.75           2310        2938.00     12794.14
   83.97        2962.00           2314        4819.00     21003.23
   84.00        2962.25           2317        6281.00     27386.87
   84.03        2962.50           2321        8265.00     36054.20
   84.06        2962.75           2324        9685.00     42260.77
   84.09        2963.00           2328       11981.00     52301.73
   84.12        2963.25           2331       13875.00     60589.82
   84.15        2963.50           2335       16266.00     71059.45
   84.18        2963.75           2339       18631.00     81422.56
   84.22        2964.00           2342       20659.00     90314.83
   84.25        2964.25           2346       23007.00    100616.90
   84.28        2964.50           2349       24443.00    106921.10
   84.31        2964.75           2353       26774.00    117160.20
   84.34        2965.00           2356       28680.00    125537.70
   84.37        2965.25           2360       30550.00    133761.70
   84.40        2965.50           2363       31838.00    139428.80
   84.43        2965.75           2367       34052.00    149175.40
   84.46        2966.00           2370       35604.00    156011.50
   84.49        2966.25           2374       37161.00    162872.90
   84.52        2966.50           2378       38389.00    168286.60
   84.55        2966.75           2381       38642.00    169402.30
   84.58        2967.00           2385       38163.00    167290.10
   84.61        2967.25           2388       38262.00    167726.70
   84.64        2967.50           2392       38378.00    168238.10
   84.67        2967.75           2395       38261.00    167722.30
   84.70        2968.00           2399       37459.00    164186.40
   84.74        2968.25           2402       36194.00    158611.10
   84.77        2968.50           2406       33947.00    148713.00
   84.80        2968.75           2409       32303.00    141475.30
   84.83        2969.00           2413       30140.00    131958.20
   84.86        2969.25           2417       27616.00    120860.50
   84.89        2969.50           2420       25892.00    113285.10
   84.92        2969.75           2424       23691.00    103619.40
   84.95        2970.00           2427       21752.00     95109.59
   84.98        2970.25           2431       19510.00     85276.09
   85.01        2970.50           2434       17531.00     76601.60
   85.04        2970.75           2438       15408.00     67301.61
   85.07        2971.00           2441       13664.00     59666.26
   85.10        2971.25           2445       11415.00     49825.84
   85.13        2971.50           2449        9263.00     40416.01
   85.16        2971.75           2452        7646.00     33349.48
   85.19        2972.00           2456        5301.00     23107.51
   85.22        2972.25           2459        3759.00     16376.60
   85.26        2972.50           2463        1854.00      8065.42
   85.29        2972.75           2466         908.00      3939.94
   85.32        2973.00           2470         306.00      1315.23
   85.35        2973.25           2473         184.00       783.37
   85.38        2973.50           2477         156.00       661.31
   85.41        2973.75           2481         164.00       696.18
   85.44        2974.00           2484         152.00       643.87
   85.47        2974.25           2488         135.00       569.76
   85.50        2974.50           2491         143.00       604.63
   85.53        2974.75           2495         121.00       508.73
   85.56        2975.00           2498         141.00       595.91
   85.59        2975.25           2502         146.00       617.71
   85.62        2975.50           2505         113.00       473.85
   85.65        2975.75           2509         132.00       556.68
   85.68        2976.00           2512         137.00       578.48
   85.71        2976.25           2516         111.00       465.13
   85.74        2976.50           2520         123.00       517.45
   85.77        2976.75           2523         110.00       460.77
   85.81        2977.00           2527         116.00       486.93
   85.84        2977.25           2530         122.00       513.09
   85.87        2977.50           2534         102.00       425.90
   85.90        2977.75           2537         118.00       495.65
   85.93        2978.00           2541         113.00       473.85
   85.96        2978.25           2544          99.00       412.82
   85.99        2978.50           2548         114.00       478.21
   86.02        2978.75           2552          92.00       382.31
   86.05        2979.00           2555         113.00       473.85
   86.08        2979.25           2559         114.00       478.21
   86.11        2979.50           2562          91.00       377.95
   86.14        2979.75           2566          83.00       343.07
   86.17        2980.00           2569          96.00       399.74
   86.20        2980.25           2573          83.00       343.07
   86.23        2980.50           2577         107.00       447.70
   86.26        2980.75           2580          91.00       377.95
   86.30        2981.00           2584          90.00       373.59
   86.33        2981.25           2587          87.00       360.51
   86.36        2981.50           2591          82.00       338.71
   86.39        2981.75           2594          95.00       395.38
   86.42        2982.00           2598          78.00       321.28
   86.45        2982.25           2601          84.00       347.43
   86.48        2982.50           2605          83.00       343.07
   86.51        2982.75           2609          86.00       356.15
   86.54        2983.00           2612          83.00       343.07
   86.57        2983.25           2616          78.00       321.28
   86.60        2983.50           2619          80.00       329.99
   86.63        2983.75           2623          86.00       356.15
   86.66        2984.00           2626          87.00       360.51
HS scan finished at 01:26:53
end
************************************************************
  HS Scan of (1) Internal mercury lamp
************************************************************
Integration time is 0.2294 seconds per sample
dh100718Reading 51.44 .94 3.94pr1000
************************************************************
Dead Time -------------------------  3.4E-08 
Number of Cycles Used -------------  4 
Starting Wavelength (Angstroms) ---  2950 
Final Wavelength (Angstoms) -------  2984 
Wavelength Increment (Angstroms) --  .25 
Filter Wheel #1 Position ---------- (1) Ground quartz diffuser (ND=2.32)
Filter Wheel #2 Position ---------- (1) Neutral Density 0.494



************************************************************
HS scan start time = 21:07:24
Dark Count =  8.600001 


Time (GMT)  Wavelength (Ang)  Step Number  Raw Counts  Counts/Second

 1268.30        2950.00           2144          51.00       184.83
 1268.50        2950.25           2147          63.00       237.14
 1268.53        2950.50           2151          61.00       228.42
 1268.56        2950.75           2155          55.00       202.27
 1268.59        2951.00           2158          52.00       189.19
 1268.62        2951.25           2162          53.00       193.55
 1268.65        2951.50           2165          56.00       206.63
 1268.68        2951.75           2169          56.00       206.63
 1268.71        2952.00           2172          62.00       232.78
 1268.74        2952.25           2176          57.00       210.99
 1268.77        2952.50           2179          60.00       224.06
 1268.80        2952.75           2183          67.00       254.58
 1268.83        2953.00           2186          66.00       250.22
 1268.86        2953.25           2190          68.00       258.94
 1268.89        2953.50           2193          62.00       232.78
 1268.92        2953.75           2197          67.00       254.58
 1268.95        2954.00           2200          59.00       219.71
 1268.98        2954.25           2204          62.00       232.78
 1269.02        2954.50           2208          66.00       250.22
 1269.05        2954.75           2211          71.00       272.02
 1269.08        2955.00           2215          66.00       250.22
 1269.11        2955.25           2218          63.00       237.14
 1269.14        2955.50           2222          72.00       276.38
 1269.17        2955.75           2225          65.00       245.86
 1269.20        2956.00           2229          66.00       250.22
 1269.23        2956.25           2232          67.00       254.58
 1269.26        2956.50           2236          64.00       241.50
 1269.29        2956.75           2239          66.00       250.22
 1269.32        2957.00           2243          70.00       267.66
 1269.35        2957.25           2246          69.00       263.30
 1269.38        2957.50           2250          74.00       285.09
 1269.41        2957.75           2254          66.00       250.22
 1269.44        2958.00           2257          78.00       302.53
 1269.47        2958.25           2261          71.00       272.02
 1269.50        2958.50           2264          80.00       311.25
 1269.53        2958.75           2268          74.00       285.09
 1269.57        2959.00           2271          73.00       280.74
 1269.60        2959.25           2275          72.00       276.38
 1269.63        2959.50           2278          76.00       293.81
 1269.66        2959.75           2282          82.00       319.97
 1269.69        2960.00           2285          77.00       298.17
 1269.72        2960.25           2289          78.00       302.53
 1269.75        2960.50           2293          81.00       315.61
 1269.78        2960.75           2296          90.00       354.84
 1269.81        2961.00           2300         143.00       585.89
 1269.84        2961.25           2303         362.00      1540.62
 1269.87        2961.50           2307        1278.00      5534.61
 1269.90        2961.75           2310        2143.00      9307.22
 1269.93        2962.00           2314        3435.00     14943.95
 1269.96        2962.25           2317        4462.00     19426.08
 1269.99        2962.50           2321        5717.00     24905.13
 1270.02        2962.75           2324        6805.00     29656.74
 1270.05        2963.00           2328        8309.00     36227.69
 1270.09        2963.25           2331        9470.00     41302.08
 1270.12        2963.50           2335       11243.00     49054.73
 1270.15        2963.75           2339       12854.00     56102.56
 1270.18        2964.00           2342       13832.00     60382.78
 1270.21        2964.25           2346       15224.00     66477.03
 1270.24        2964.50           2349       16187.00     70694.57
 1270.27        2964.75           2353       17711.00     77371.53
 1270.30        2965.00           2356       18975.00     82911.70
 1270.33        2965.25           2360       20483.00     89524.05
 1270.36        2965.50           2363       21512.00     94037.77
 1270.39        2965.75           2367       22771.00     99562.28
 1270.42        2966.00           2370       23811.00    104127.40
 1270.45        2966.25           2374       24792.00    108434.80
 1270.48        2966.50           2378       25489.00    111496.00
 1270.51        2966.75           2381       25577.00    111882.50
 1270.54        2967.00           2385       25548.00    111755.10
 1270.57        2967.25           2388       25763.00    112699.60
 1270.61        2967.50           2392       25650.00    112203.20
 1270.64        2967.75           2395       25307.00    110696.60
 1270.67        2968.00           2399       24785.00    108404.10
 1270.70        2968.25           2402       23726.00    103754.20
 1270.73        2968.50           2406       22402.00     97942.88
 1270.76        2968.75           2409       21148.00     92440.92
 1270.79        2969.00           2413       19586.00     85590.48
 1270.82        2969.25           2417       17916.00     78269.91
 1270.85        2969.50           2420       16731.00     73077.61
 1270.88        2969.75           2424       15461.00     67514.88
 1270.91        2970.00           2427       14317.00     62505.85
 1270.94        2970.25           2431       12640.00     55166.15
 1270.97        2970.50           2434       11414.00     49802.66
 1271.00        2970.75           2438        9727.00     42425.59
 1271.03        2971.00           2441        8693.00     37905.84
 1271.06        2971.25           2445        7335.00     31971.97
 1271.09        2971.50           2449        5941.00     25883.27
 1271.13        2971.75           2452        4840.00     21076.13
 1271.16        2972.00           2456        3394.00     14765.04
 1271.19        2972.25           2459        2334.00     10140.38
 1271.22        2972.50           2463        1100.00      4758.40
 1271.25        2972.75           2466         486.00      2081.23
 1271.28        2973.00           2470         157.00       646.92
 1271.31        2973.25           2473         110.00       442.03
 1271.34        2973.50           2477         102.00       407.15
 1271.37        2973.75           2481          89.00       350.48
 1271.40        2974.00           2484          89.00       350.48
 1271.43        2974.25           2488          84.00       328.69
 1271.46        2974.50           2491          95.00       376.64
 1271.49        2974.75           2495          80.00       311.25
 1271.52        2975.00           2498          86.00       337.41
 1271.55        2975.25           2502          82.00       319.97
 1271.58        2975.50           2505          74.00       285.09
 1271.61        2975.75           2509          79.00       306.89
 1271.65        2976.00           2512          97.00       385.36
 1271.68        2976.25           2516          74.00       285.09
 1271.71        2976.50           2520          75.00       289.45
 1271.74        2976.75           2523          77.00       298.17
 1271.77        2977.00           2527          73.00       280.74
 1271.80        2977.25           2530          74.00       285.09
 1271.83        2977.50           2534          71.00       272.02
 1271.86        2977.75           2537          66.00       250.22
 1271.89        2978.00           2541          68.00       258.94
 1271.92        2978.25           2544          67.00       254.58
 1271.95        2978.50           2548          74.00       285.09
 1271.98        2978.75           2552          68.00       258.94
 1272.01        2979.00           2555          66.00       250.22
 1272.04        2979.25           2559          76.00       293.81
 1272.07        2979.50           2562          71.00       272.02
 1272.10        2979.75           2566          60.00       224.06
 1272.13        2980.00           2569          59.00       219.71
 1272.17        2980.25           2573          64.00       241.50
 1272.20        2980.50           2577          60.00       224.06
 1272.23        2980.75           2580          60.00       224.06
 1272.26        2981.00           2584          61.00       228.42
 1272.29        2981.25           2587          57.00       210.99
 1272.32        2981.50           2591          64.00       241.50
 1272.35        2981.75           2594          59.00       219.71
 1272.38        2982.00           2598          60.00       224.06
 1272.41        2982.25           2601          58.00       215.35
 1272.44        2982.50           2605          54.00       197.91
 1272.47        2982.75           2609          61.00       228.42
 1272.50        2983.00           2612          60.00       224.06
 1272.53        2983.25           2616          51.00       184.83
 1272.56        2983.50           2619          62.00       232.78
 1272.59        2983.75           2623          58.00       215.35
 1272.62        2984.00           2626          64.00       241.50
HS scan finished at 21:12:51
end
