************************************************************
  HS Scan of (1) Internal mercury lamp
************************************************************
Integration time is 0.2294 seconds per sample
dh090717Reading 51.44 .94 3.8pr1000
************************************************************
Dead Time -------------------------  3.4E-08 
Number of Cycles Used -------------  4 
Starting Wavelength (Angstroms) ---  2950 
Final Wavelength (Angstoms) -------  2984 
Wavelength Increment (Angstroms) --  .25 
Filter Wheel #1 Position ---------- (1) Ground quartz diffuser (ND=2.32)
Filter Wheel #2 Position ---------- (1) Neutral Density 0.494



************************************************************
HS scan start time = 01:21:10
Dark Count =  5.2 


Time (GMT)  Wavelength (Ang)  Step Number  Raw Counts  Counts/Second

   82.07        2950.00           2144         331.00      1420.30
   82.26        2950.25           2147         366.00      1572.88
   82.29        2950.50           2151         348.00      1494.41
   82.32        2950.75           2155         334.00      1433.37
   82.35        2951.00           2158         352.00      1511.85
   82.38        2951.25           2162         348.00      1494.41
   82.41        2951.50           2165         374.00      1607.76
   82.45        2951.75           2169         360.00      1546.72
   82.48        2952.00           2172         367.00      1577.24
   82.51        2952.25           2176         370.00      1590.32
   82.54        2952.50           2179         378.00      1625.20
   82.57        2952.75           2183         381.00      1638.28
   82.60        2953.00           2186         363.00      1559.80
   82.63        2953.25           2190         334.00      1433.37
   82.66        2953.50           2193         354.00      1520.57
   82.69        2953.75           2197         382.00      1642.64
   82.72        2954.00           2200         409.00      1760.35
   82.75        2954.25           2204         411.00      1769.07
   82.78        2954.50           2208         398.00      1712.39
   82.81        2954.75           2211         365.00      1568.52
   82.84        2955.00           2215         401.00      1725.47
   82.87        2955.25           2218         380.00      1633.92
   82.90        2955.50           2222         417.00      1795.23
   82.93        2955.75           2225         394.00      1694.95
   82.97        2956.00           2229         394.00      1694.95
   83.00        2956.25           2232         384.00      1651.36
   83.03        2956.50           2236         425.00      1830.11
   83.06        2956.75           2239         412.00      1773.43
   83.09        2957.00           2243         437.00      1882.42
   83.12        2957.25           2246         416.00      1790.87
   83.15        2957.50           2250         420.00      1808.31
   83.18        2957.75           2254         453.00      1952.18
   83.21        2958.00           2257         434.00      1869.34
   83.24        2958.25           2261         451.00      1943.46
   83.27        2958.50           2264         460.00      1982.70
   83.30        2958.75           2268         445.00      1917.30
   83.33        2959.00           2271         465.00      2004.50
   83.36        2959.25           2275         453.00      1952.18
   83.39        2959.50           2278         476.00      2052.45
   83.42        2959.75           2282         476.00      2052.45
   83.45        2960.00           2285         483.00      2082.97
   83.49        2960.25           2289         544.00      2348.92
   83.52        2960.50           2293         510.00      2200.69
   83.55        2960.75           2296         554.00      2392.52
   83.58        2961.00           2300         698.00      3020.36
   83.61        2961.25           2303        1521.00      6609.16
   83.64        2961.50           2307        5737.00     25007.30
   83.67        2961.75           2310       10710.00     46738.56
   83.70        2962.00           2314       18850.00     82378.63
   83.73        2962.25           2317       25019.00    109446.60
   83.76        2962.50           2321       33146.00    145182.20
   83.79        2962.75           2324       39366.00    172591.40
   83.82        2963.00           2328       48016.00    210794.00
   83.85        2963.25           2331       54202.00    238175.50
   83.88        2963.50           2335       63619.00    279957.30
   83.91        2963.75           2339       73025.00    321809.60
   83.94        2964.00           2342       79977.00    352820.00
   83.97        2964.25           2346       87767.00    387646.80
   84.01        2964.50           2349       94426.00    417483.00
   84.04        2964.75           2353      102991.00    455949.20
   84.07        2965.00           2356      109712.00    486205.00
   84.10        2965.25           2360      118350.00    525183.00
   84.13        2965.50           2363      124004.00    550752.60
   84.16        2965.75           2367      131903.00    586550.20
   84.19        2966.00           2370      138435.00    616219.30
   84.22        2966.25           2374      146525.00    653049.10
   84.25        2966.50           2378      150434.00    670878.40
   84.28        2966.75           2381      151094.00    673890.80
   84.31        2967.00           2385      151223.00    674479.70
   84.34        2967.25           2388      151562.00    676027.30
   84.37        2967.50           2392      151424.00    675397.30
   84.40        2967.75           2395      150954.00    673251.70
   84.43        2968.00           2399      147929.00    659450.30
   84.46        2968.25           2402      143211.00    637950.80
   84.50        2968.50           2406      134752.00    599483.30
   84.53        2968.75           2409      127850.00    568171.30
   84.56        2969.00           2413      118534.00    526014.40
   84.59        2969.25           2417      110151.00    488183.50
   84.62        2969.50           2420      104320.00    461927.00
   84.65        2969.75           2424       95340.00    421583.10
   84.68        2970.00           2427       88118.00    389217.90
   84.71        2970.25           2431       78102.00    344449.80
   84.74        2970.50           2434       71124.00    313341.40
   84.77        2970.75           2438       61880.00    272232.70
   84.80        2971.00           2441       55682.00    244734.20
   84.83        2971.25           2445       47016.00    206372.40
   84.86        2971.50           2449       38313.00    167947.60
   84.89        2971.75           2452       31679.00    138725.20
   84.92        2972.00           2456       22472.00     98264.99
   84.95        2972.25           2459       16087.00     70271.44
   84.98        2972.50           2463        8312.00     36255.65
   85.02        2972.75           2466        3835.00     16704.34
   85.05        2973.00           2470        1231.00      5344.48
   85.08        2973.25           2473         723.00      3129.37
   85.11        2973.50           2477         601.00      2597.44
   85.14        2973.75           2481         547.00      2362.00
   85.17        2974.00           2484         557.00      2405.60
   85.20        2974.25           2488         545.00      2353.28
   85.23        2974.50           2491         527.00      2274.81
   85.26        2974.75           2495         521.00      2248.65
   85.29        2975.00           2498         489.00      2109.13
   85.32        2975.25           2502         485.00      2091.69
   85.35        2975.50           2505         507.00      2187.61
   85.38        2975.75           2509         487.00      2100.41
   85.41        2976.00           2512         463.00      1995.78
   85.44        2976.25           2516         451.00      1943.46
   85.47        2976.50           2520         472.00      2035.01
   85.50        2976.75           2523         458.00      1973.98
   85.53        2977.00           2527         445.00      1917.30
   85.57        2977.25           2530         427.00      1838.82
   85.60        2977.50           2534         433.00      1864.98
   85.63        2977.75           2537         397.00      1708.03
   85.66        2978.00           2541         424.00      1825.75
   85.69        2978.25           2544         416.00      1790.87
   85.72        2978.50           2548         444.00      1912.94
   85.75        2978.75           2552         406.00      1747.27
   85.78        2979.00           2555         395.00      1699.31
   85.81        2979.25           2559         395.00      1699.31
   85.84        2979.50           2562         383.00      1647.00
   85.87        2979.75           2566         381.00      1638.28
   85.90        2980.00           2569         396.00      1703.67
   85.93        2980.25           2573         382.00      1642.64
   85.96        2980.50           2577         380.00      1633.92
   85.99        2980.75           2580         358.00      1538.01
   86.02        2981.00           2584         357.00      1533.65
   86.05        2981.25           2587         358.00      1538.01
   86.09        2981.50           2591         386.00      1660.08
   86.12        2981.75           2594         372.00      1599.04
   86.15        2982.00           2598         370.00      1590.32
   86.18        2982.25           2601         354.00      1520.57
   86.21        2982.50           2605         342.00      1468.25
   86.24        2982.75           2609         355.00      1524.93
   86.27        2983.00           2612         333.00      1429.01
   86.30        2983.25           2616         351.00      1507.49
   86.33        2983.50           2619         333.00      1429.01
   86.36        2983.75           2623         349.00      1498.77
   86.39        2984.00           2626         346.00      1485.69
HS scan finished at 01:26:37
end
************************************************************
  HS Scan of (1) Internal mercury lamp
************************************************************
Integration time is 0.2294 seconds per sample
dh090717Reading 51.44 .94 3.96pr1000
************************************************************
Dead Time -------------------------  3.4E-08 
Number of Cycles Used -------------  4 
Starting Wavelength (Angstroms) ---  2950 
Final Wavelength (Angstoms) -------  2984 
Wavelength Increment (Angstroms) --  .25 
Filter Wheel #1 Position ---------- (1) Ground quartz diffuser (ND=2.32)
Filter Wheel #2 Position ---------- (1) Neutral Density 0.494



************************************************************
HS scan start time = 21:07:27
Dark Count =  9.3 


Time (GMT)  Wavelength (Ang)  Step Number  Raw Counts  Counts/Second

 1268.35        2950.00           2144         267.00      1123.41
 1268.54        2950.25           2147         277.00      1167.00
 1268.57        2950.50           2151         295.00      1245.48
 1268.60        2950.75           2155         288.00      1214.96
 1268.63        2951.00           2158         299.00      1262.91
 1268.66        2951.25           2162         269.00      1132.13
 1268.69        2951.50           2165         271.00      1140.85
 1268.72        2951.75           2169         286.00      1206.24
 1268.76        2952.00           2172         280.00      1180.08
 1268.79        2952.25           2176         288.00      1214.96
 1268.82        2952.50           2179         271.00      1140.85
 1268.85        2952.75           2183         284.00      1197.52
 1268.88        2953.00           2186         288.00      1214.96
 1268.91        2953.25           2190         277.00      1167.00
 1268.94        2953.50           2193         286.00      1206.24
 1268.97        2953.75           2197         289.00      1219.32
 1269.00        2954.00           2200         295.00      1245.48
 1269.03        2954.25           2204         296.00      1249.84
 1269.06        2954.50           2208         308.00      1302.15
 1269.09        2954.75           2211         297.00      1254.19
 1269.12        2955.00           2215         310.00      1310.87
 1269.15        2955.25           2218         296.00      1249.84
 1269.18        2955.50           2222         299.00      1262.91
 1269.21        2955.75           2225         299.00      1262.91
 1269.24        2956.00           2229         315.00      1332.67
 1269.28        2956.25           2232         325.00      1376.26
 1269.31        2956.50           2236         307.00      1297.79
 1269.34        2956.75           2239         310.00      1310.87
 1269.37        2957.00           2243         329.00      1393.70
 1269.40        2957.25           2246         320.00      1354.47
 1269.43        2957.50           2250         326.00      1380.62
 1269.46        2957.75           2254         333.00      1411.14
 1269.49        2958.00           2257         312.00      1319.59
 1269.52        2958.25           2261         377.00      1602.96
 1269.55        2958.50           2264         338.00      1432.94
 1269.58        2958.75           2268         362.00      1537.57
 1269.61        2959.00           2271         394.00      1677.08
 1269.64        2959.25           2275         370.00      1572.45
 1269.67        2959.50           2278         395.00      1681.44
 1269.70        2959.75           2282         366.00      1555.01
 1269.73        2960.00           2285         410.00      1746.83
 1269.76        2960.25           2289         396.00      1685.80
 1269.80        2960.50           2293         397.00      1690.16
 1269.83        2960.75           2296         431.00      1838.39
 1269.86        2961.00           2300         497.00      2126.13
 1269.89        2961.25           2303        1018.00      4397.78
 1269.92        2961.50           2307        3525.00     15333.62
 1269.95        2961.75           2310        7030.00     30636.52
 1269.98        2962.00           2314       13042.00     56922.18
 1270.01        2962.25           2317       18204.00     79529.05
 1270.04        2962.50           2321       25237.00    110386.10
 1270.07        2962.75           2324       30244.00    132393.70
 1270.10        2963.00           2328       36352.00    159285.30
 1270.13        2963.25           2331       41295.00    181084.00
 1270.16        2963.50           2335       48296.00    212014.10
 1270.19        2963.75           2339       55619.00    244436.80
 1270.22        2964.00           2342       60511.00    266136.20
 1270.25        2964.25           2346       67971.00    299288.60
 1270.28        2964.50           2349       73255.00    322816.30
 1270.31        2964.75           2353       79213.00    349390.60
 1270.35        2965.00           2356       83819.00    369967.80
 1270.38        2965.25           2360       90554.00    400108.40
 1270.41        2965.50           2363       96012.00    424579.90
 1270.44        2965.75           2367      102765.00    454914.60
 1270.47        2966.00           2370      107400.00    475771.70
 1270.50        2966.25           2374      112562.00    499035.40
 1270.53        2966.50           2378      115722.00    513294.90
 1270.56        2966.75           2381      116361.00    516180.20
 1270.59        2967.00           2385      116624.00    517367.80
 1270.62        2967.25           2388      116012.00    514604.20
 1270.65        2967.50           2392      116229.00    515584.10
 1270.68        2967.75           2395      115880.00    514008.30
 1270.72        2968.00           2399      112875.00    500447.10
 1270.75        2968.25           2402      108559.00    480991.70
 1270.78        2968.50           2406      103255.00    457118.10
 1270.81        2968.75           2409       98860.00    437365.50
 1270.84        2969.00           2413       92066.00    406883.50
 1270.87        2969.25           2417       85593.00    377900.80
 1270.90        2969.50           2420       80543.00    355329.30
 1270.93        2969.75           2424       74349.00    327692.30
 1270.96        2970.00           2427       69450.00    305870.20
 1270.99        2970.25           2431       62705.00    275878.60
 1271.03        2970.50           2434       57896.00    254532.80
 1271.06        2970.75           2438       50898.00    223526.30
 1271.09        2971.00           2441       45090.00    197842.00
 1271.12        2971.25           2445       37940.00    166284.90
 1271.15        2971.50           2449       31139.00    136331.00
 1271.18        2971.75           2452       26128.00    114299.90
 1271.21        2972.00           2456       19486.00     85148.94
 1271.24        2972.25           2459       14794.00     64591.13
 1271.27        2972.50           2463        8484.00     36989.38
 1271.30        2972.75           2466        4370.00     19021.45
 1271.33        2973.00           2470        1286.00      5566.44
 1271.36        2973.25           2473         611.00      2623.16
 1271.39        2973.50           2477         497.00      2126.13
 1271.42        2973.75           2481         440.00      1877.63
 1271.45        2974.00           2484         437.00      1864.55
 1271.48        2974.25           2488         408.00      1738.12
 1271.51        2974.50           2491         388.00      1650.92
 1271.55        2974.75           2495         407.00      1733.76
 1271.58        2975.00           2498         395.00      1681.44
 1271.61        2975.25           2502         377.00      1602.96
 1271.64        2975.50           2505         398.00      1694.52
 1271.67        2975.75           2509         352.00      1493.97
 1271.70        2976.00           2512         364.00      1546.29
 1271.73        2976.25           2516         365.00      1550.65
 1271.76        2976.50           2520         342.00      1450.38
 1271.79        2976.75           2523         333.00      1411.14
 1271.82        2977.00           2527         335.00      1419.86
 1271.85        2977.25           2530         365.00      1550.65
 1271.88        2977.50           2534         342.00      1450.38
 1271.91        2977.75           2537         317.00      1341.39
 1271.94        2978.00           2541         322.00      1363.18
 1271.97        2978.25           2544         304.00      1284.71
 1272.00        2978.50           2548         331.00      1402.42
 1272.03        2978.75           2552         313.00      1323.95
 1272.07        2979.00           2555         309.00      1306.51
 1272.10        2979.25           2559         326.00      1380.62
 1272.13        2979.50           2562         311.00      1315.23
 1272.16        2979.75           2566         312.00      1319.59
 1272.19        2980.00           2569         299.00      1262.91
 1272.22        2980.25           2573         294.00      1241.12
 1272.25        2980.50           2577         291.00      1228.04
 1272.28        2980.75           2580         295.00      1245.48
 1272.31        2981.00           2584         293.00      1236.76
 1272.34        2981.25           2587         306.00      1293.43
 1272.37        2981.50           2591         295.00      1245.48
 1272.40        2981.75           2594         282.00      1188.80
 1272.43        2982.00           2598         286.00      1206.24
 1272.46        2982.25           2601         291.00      1228.04
 1272.49        2982.50           2605         289.00      1219.32
 1272.52        2982.75           2609         285.00      1201.88
 1272.55        2983.00           2612         294.00      1241.12
 1272.59        2983.25           2616         270.00      1136.49
 1272.62        2983.50           2619         264.00      1110.33
 1272.65        2983.75           2623         286.00      1206.24
 1272.68        2984.00           2626         268.00      1127.77
HS scan finished at 21:12:54
end
