************************************************************
  HS Scan of (1) Internal mercury lamp
************************************************************
Integration time is 0.2294 seconds per sample
dh140718Reading 51.44 .94 3.64pr1000
************************************************************
Dead Time -------------------------  3.4E-08 
Number of Cycles Used -------------  4 
Starting Wavelength (Angstroms) ---  2950 
Final Wavelength (Angstoms) -------  2984 
Wavelength Increment (Angstroms) --  .25 
Filter Wheel #1 Position ---------- (1) Ground quartz diffuser (ND=2.32)
Filter Wheel #2 Position ---------- (1) Neutral Density 0.494



************************************************************
HS scan start time = 01:13:44
Dark Count =  3.5 


Time (GMT)  Wavelength (Ang)  Step Number  Raw Counts  Counts/Second

   74.64        2950.00           2144          85.00       355.28
   74.83        2950.25           2147          87.00       364.00
   74.86        2950.50           2151          90.00       377.08
   74.90        2950.75           2155          82.00       342.20
   74.93        2951.00           2158          91.00       381.43
   74.96        2951.25           2162          89.00       372.72
   74.99        2951.50           2165          84.00       350.92
   75.02        2951.75           2169          96.00       403.23
   75.05        2952.00           2172          81.00       337.84
   75.08        2952.25           2176          87.00       364.00
   75.11        2952.50           2179          91.00       381.43
   75.14        2952.75           2183          82.00       342.20
   75.17        2953.00           2186          84.00       350.92
   75.20        2953.25           2190          85.00       355.28
   75.23        2953.50           2193          82.00       342.20
   75.26        2953.75           2197          93.00       390.15
   75.29        2954.00           2200         102.00       429.39
   75.32        2954.25           2204          89.00       372.72
   75.35        2954.50           2208          89.00       372.72
   75.38        2954.75           2211          96.00       403.23
   75.42        2955.00           2215          95.00       398.87
   75.45        2955.25           2218          88.00       368.36
   75.48        2955.50           2222          98.00       411.95
   75.51        2955.75           2225         107.00       451.18
   75.54        2956.00           2229          89.00       372.72
   75.57        2956.25           2232         149.00       634.28
   75.60        2956.50           2236          96.00       403.23
   75.63        2956.75           2239         133.00       564.53
   75.66        2957.00           2243         101.00       425.03
   75.69        2957.25           2246         117.00       494.78
   75.72        2957.50           2250         114.00       481.70
   75.75        2957.75           2254         101.00       425.03
   75.78        2958.00           2257         107.00       451.18
   75.81        2958.25           2261         154.00       656.07
   75.84        2958.50           2264         139.00       590.68
   75.87        2958.75           2268         129.00       547.09
   75.90        2959.00           2271         118.00       499.14
   75.94        2959.25           2275         135.00       573.25
   75.97        2959.50           2278         126.00       534.01
   76.00        2959.75           2282         142.00       603.76
   76.03        2960.00           2285         123.00       520.93
   76.06        2960.25           2289         138.00       586.32
   76.09        2960.50           2293         157.00       669.15
   76.12        2960.75           2296         147.00       625.56
   76.16        2961.00           2300         268.00      1153.05
   76.20        2961.25           2303         656.00      2844.65
   76.23        2961.50           2307        2098.00      9133.18
   76.26        2961.75           2310        3541.00     15428.76
   76.29        2962.00           2314        5549.00     24193.83
   76.32        2962.25           2317        7260.00     31666.60
   76.35        2962.50           2321        9504.00     41473.00
   76.38        2962.75           2324       11075.00     48342.25
   76.41        2963.00           2328       13593.00     59359.00
   76.44        2963.25           2331       15580.00     68058.35
   76.47        2963.50           2335       17740.00     77520.97
   76.50        2963.75           2339       19837.00     86713.43
   76.53        2964.00           2342       21519.00     94090.85
   76.56        2964.25           2346       23904.00    104558.10
   76.59        2964.50           2349       25767.00    112739.50
   76.62        2964.75           2353       28314.00    123932.20
   76.65        2965.00           2356       29920.00    130994.10
   76.68        2965.25           2360       31798.00    139256.30
   76.72        2965.50           2363       33398.00    146299.10
   76.75        2965.75           2367       35698.00    156429.20
   76.78        2966.00           2370       37312.00    163542.00
   76.81        2966.25           2374       39109.00    171465.30
   76.84        2966.50           2378       39918.00    175033.80
   76.87        2966.75           2381       40028.00    175519.00
   76.90        2967.00           2385       39911.00    175002.90
   76.93        2967.25           2388       39960.00    175219.10
   76.96        2967.50           2392       39900.00    174954.40
   76.99        2967.75           2395       39493.00    173159.00
   77.02        2968.00           2399       38199.00    167452.40
   77.05        2968.25           2402       36712.00    160897.40
   77.08        2968.50           2406       34178.00    149733.80
   77.11        2968.75           2409       32738.00    143393.60
   77.14        2969.00           2413       30557.00    133796.00
   77.17        2969.25           2417       28497.00    124736.70
   77.20        2969.50           2420       26815.00    117343.90
   77.23        2969.75           2424       24166.00    105708.40
   77.27        2970.00           2427       22186.00     97017.40
   77.30        2970.25           2431       19771.00     86424.02
   77.33        2970.50           2434       17998.00     78651.63
   77.36        2970.75           2438       15666.00     68434.99
   77.39        2971.00           2441       13841.00     60444.49
   77.42        2971.25           2445       11402.00     49772.48
   77.45        2971.50           2449        8995.00     39248.07
   77.48        2971.75           2452        7160.00     31229.75
   77.51        2972.00           2456        5004.00     21814.35
   77.54        2972.25           2459        3362.00     14647.66
   77.57        2972.50           2463        1583.00      6886.97
   77.60        2972.75           2466         728.00      3158.58
   77.63        2973.00           2470         274.00      1179.21
   77.66        2973.25           2473         175.00       747.62
   77.69        2973.50           2477         153.00       651.71
   77.72        2973.75           2481         155.00       660.43
   77.76        2974.00           2484         168.00       717.11
   77.79        2974.25           2488         156.00       664.79
   77.82        2974.50           2491         127.00       538.37
   77.85        2974.75           2495         134.00       568.89
   77.88        2975.00           2498         118.00       499.14
   77.91        2975.25           2502         119.00       503.50
   77.94        2975.50           2505         114.00       481.70
   77.97        2975.75           2509         133.00       564.53
   78.00        2976.00           2512         110.00       464.26
   78.03        2976.25           2516         108.00       455.54
   78.06        2976.50           2520         124.00       525.29
   78.09        2976.75           2523         132.00       560.17
   78.12        2977.00           2527         105.00       442.47
   78.15        2977.25           2530         126.00       534.01
   78.18        2977.50           2534         126.00       534.01
   78.21        2977.75           2537         127.00       538.37
   78.24        2978.00           2541          99.00       416.31
   78.28        2978.25           2544         103.00       433.75
   78.31        2978.50           2548          99.00       416.31
   78.34        2978.75           2552         100.00       420.67
   78.37        2979.00           2555          97.00       407.59
   78.40        2979.25           2559          96.00       403.23
   78.43        2979.50           2562          92.00       385.79
   78.46        2979.75           2566         101.00       425.03
   78.49        2980.00           2569          93.00       390.15
   78.52        2980.25           2573          98.00       411.95
   78.55        2980.50           2577          88.00       368.36
   78.58        2980.75           2580          98.00       411.95
   78.61        2981.00           2584          84.00       350.92
   78.64        2981.25           2587          94.00       394.51
   78.67        2981.50           2591          95.00       398.87
   78.70        2981.75           2594          89.00       372.72
   78.73        2982.00           2598          92.00       385.79
   78.76        2982.25           2601          81.00       337.84
   78.79        2982.50           2605          93.00       390.15
   78.83        2982.75           2609          88.00       368.36
   78.86        2983.00           2612          81.00       337.84
   78.89        2983.25           2616          84.00       350.92
   78.92        2983.50           2619          83.00       346.56
   78.95        2983.75           2623          84.00       350.92
   78.98        2984.00           2626          78.00       324.76
HS scan finished at 01:19:12
end
************************************************************
  HS Scan of (1) Internal mercury lamp
************************************************************
Integration time is 0.2294 seconds per sample
dh140718Reading 51.44 .94 4pr1000
************************************************************
Dead Time -------------------------  3.4E-08 
Number of Cycles Used -------------  4 
Starting Wavelength (Angstroms) ---  2950 
Final Wavelength (Angstoms) -------  2984 
Wavelength Increment (Angstroms) --  .25 
Filter Wheel #1 Position ---------- (1) Ground quartz diffuser (ND=2.32)
Filter Wheel #2 Position ---------- (1) Neutral Density 0.494



************************************************************
HS scan start time = 21:07:29
Dark Count =  9.3 


Time (GMT)  Wavelength (Ang)  Step Number  Raw Counts  Counts/Second

 1268.38        2950.00           2144          60.00       221.01
 1268.57        2950.25           2147          61.00       225.37
 1268.61        2950.50           2151          53.00       190.50
 1268.64        2950.75           2155          64.00       238.45
 1268.67        2951.00           2158          53.00       190.50
 1268.70        2951.25           2162          63.00       234.09
 1268.73        2951.50           2165          67.00       251.53
 1268.76        2951.75           2169          62.00       229.73
 1268.79        2952.00           2172          60.00       221.01
 1268.82        2952.25           2176          56.00       203.58
 1268.85        2952.50           2179          64.00       238.45
 1268.88        2952.75           2183          65.00       242.81
 1268.91        2953.00           2186          58.00       212.29
 1268.94        2953.25           2190          59.00       216.65
 1268.97        2953.50           2193          57.00       207.94
 1269.00        2953.75           2197          66.00       247.17
 1269.03        2954.00           2200          62.00       229.73
 1269.06        2954.25           2204          66.00       247.17
 1269.09        2954.50           2208          61.00       225.37
 1269.13        2954.75           2211          61.00       225.37
 1269.16        2955.00           2215          69.00       260.25
 1269.19        2955.25           2218          57.00       207.94
 1269.22        2955.50           2222          63.00       234.09
 1269.25        2955.75           2225          66.00       247.17
 1269.28        2956.00           2229          61.00       225.37
 1269.31        2956.25           2232          67.00       251.53
 1269.34        2956.50           2236          72.00       273.32
 1269.37        2956.75           2239          66.00       247.17
 1269.40        2957.00           2243          79.00       303.84
 1269.43        2957.25           2246          80.00       308.20
 1269.46        2957.50           2250          70.00       264.61
 1269.49        2957.75           2254          83.00       321.28
 1269.52        2958.00           2257          79.00       303.84
 1269.55        2958.25           2261          77.00       295.12
 1269.58        2958.50           2264          69.00       260.25
 1269.61        2958.75           2268          82.00       316.92
 1269.65        2959.00           2271          65.00       242.81
 1269.68        2959.25           2275          79.00       303.84
 1269.71        2959.50           2278          76.00       290.76
 1269.74        2959.75           2282          79.00       303.84
 1269.77        2960.00           2285          89.00       347.43
 1269.80        2960.25           2289          83.00       321.28
 1269.83        2960.50           2293          96.00       377.95
 1269.86        2960.75           2296         115.00       460.77
 1269.89        2961.00           2300         142.00       578.48
 1269.92        2961.25           2303         343.00      1454.74
 1269.95        2961.50           2307        1124.00      4860.00
 1269.98        2961.75           2310        1896.00      8226.80
 1270.01        2962.00           2314        3341.00     14530.72
 1270.04        2962.25           2317        4498.00     19580.16
 1270.07        2962.50           2321        5948.00     25910.79
 1270.10        2962.75           2324        6947.00     30273.95
 1270.13        2963.00           2328        8334.00     36333.87
 1270.16        2963.25           2331        9295.00     40534.03
 1270.20        2963.50           2335       10812.00     47166.69
 1270.23        2963.75           2339       12421.00     54204.87
 1270.26        2964.00           2342       13718.00     59880.73
 1270.29        2964.25           2346       15042.00     65677.01
 1270.32        2964.50           2349       16010.00     69916.23
 1270.35        2964.75           2353       17416.00     76075.78
 1270.38        2965.00           2356       18542.00     81010.53
 1270.41        2965.25           2360       19938.00     87130.89
 1270.44        2965.50           2363       20778.00     90814.86
 1270.47        2965.75           2367       22311.00     97540.47
 1270.50        2966.00           2370       23210.00    101486.00
 1270.53        2966.25           2374       24240.00    106007.80
 1270.56        2966.50           2378       24520.00    107237.30
 1270.59        2966.75           2381       24671.00    107900.40
 1270.62        2967.00           2385       24878.00    108809.40
 1270.65        2967.25           2388       24879.00    108813.80
 1270.69        2967.50           2392       24748.00    108238.50
 1270.72        2967.75           2395       24359.00    106530.30
 1270.75        2968.00           2399       23423.00    102421.00
 1270.78        2968.25           2402       22506.00     98396.21
 1270.81        2968.50           2406       21403.00     93556.50
 1270.84        2968.75           2409       20292.00     88683.31
 1270.87        2969.00           2413       19014.00     83079.60
 1270.90        2969.25           2417       17372.00     75882.98
 1270.93        2969.50           2420       16375.00     71515.01
 1270.96        2969.75           2424       15008.00     65528.14
 1270.99        2970.00           2427       14051.00     61338.34
 1271.02        2970.25           2431       12551.00     54773.67
 1271.05        2970.50           2434       11461.00     50005.18
 1271.08        2970.75           2438        9922.00     43275.05
 1271.11        2971.00           2441        8670.00     37802.27
 1271.14        2971.25           2445        7283.00     31741.74
 1271.17        2971.50           2449        5943.00     25888.95
 1271.20        2971.75           2452        4935.00     21487.80
 1271.24        2972.00           2456        3626.00     15774.37
 1271.27        2972.25           2459        2734.00     11882.31
 1271.30        2972.50           2463        1326.00      5740.88
 1271.33        2972.75           2466         579.00      2483.64
 1271.36        2973.00           2470         159.00       652.59
 1271.39        2973.25           2473         108.00       430.26
 1271.42        2973.50           2477          96.00       377.95
 1271.45        2973.75           2481          97.00       382.31
 1271.48        2974.00           2484          87.00       338.71
 1271.51        2974.25           2488          90.00       351.79
 1271.54        2974.50           2491          88.00       343.07
 1271.57        2974.75           2495          81.00       312.56
 1271.60        2975.00           2498          78.00       299.48
 1271.63        2975.25           2502          84.00       325.64
 1271.66        2975.50           2505          78.00       299.48
 1271.69        2975.75           2509          86.00       334.35
 1271.72        2976.00           2512          77.00       295.12
 1271.76        2976.25           2516          75.00       286.40
 1271.79        2976.50           2520          73.00       277.68
 1271.82        2976.75           2523          75.00       286.40
 1271.85        2977.00           2527          80.00       308.20
 1271.88        2977.25           2530          68.00       255.89
 1271.91        2977.50           2534          76.00       290.76
 1271.94        2977.75           2537          73.00       277.68
 1271.97        2978.00           2541          69.00       260.25
 1272.00        2978.25           2544          65.00       242.81
 1272.03        2978.50           2548          66.00       247.17
 1272.06        2978.75           2552          65.00       242.81
 1272.09        2979.00           2555          68.00       255.89
 1272.12        2979.25           2559          62.00       229.73
 1272.15        2979.50           2562          73.00       277.68
 1272.18        2979.75           2566          74.00       282.04
 1272.21        2980.00           2569          59.00       216.65
 1272.24        2980.25           2573          67.00       251.53
 1272.28        2980.50           2577          62.00       229.73
 1272.31        2980.75           2580          62.00       229.73
 1272.34        2981.00           2584          65.00       242.81
 1272.37        2981.25           2587          64.00       238.45
 1272.40        2981.50           2591          65.00       242.81
 1272.43        2981.75           2594          58.00       212.29
 1272.46        2982.00           2598          60.00       221.01
 1272.49        2982.25           2601          62.00       229.73
 1272.52        2982.50           2605          68.00       255.89
 1272.55        2982.75           2609          56.00       203.58
 1272.58        2983.00           2612          65.00       242.81
 1272.61        2983.25           2616          63.00       234.09
 1272.64        2983.50           2619          59.00       216.65
 1272.67        2983.75           2623          59.00       216.65
 1272.70        2984.00           2626          59.00       216.65
HS scan finished at 21:12:56
end
