************************************************************
  HS Scan of (1) Internal mercury lamp
************************************************************
Integration time is 0.2294 seconds per sample
dh090718Reading 51.44 .94 3.78pr1000
************************************************************
Dead Time -------------------------  3.4E-08 
Number of Cycles Used -------------  4 
Starting Wavelength (Angstroms) ---  2950 
Final Wavelength (Angstoms) -------  2984 
Wavelength Increment (Angstroms) --  .25 
Filter Wheel #1 Position ---------- (1) Ground quartz diffuser (ND=2.32)
Filter Wheel #2 Position ---------- (1) Neutral Density 0.494



************************************************************
HS scan start time = 01:21:14
Dark Count =  4.4 


Time (GMT)  Wavelength (Ang)  Step Number  Raw Counts  Counts/Second

   82.14        2950.00           2144          73.00       299.04
   82.33        2950.25           2147          75.00       307.76
   82.36        2950.50           2151          75.00       307.76
   82.39        2950.75           2155          82.00       338.28
   82.42        2951.00           2158          86.00       355.71
   82.45        2951.25           2162          78.00       320.84
   82.48        2951.50           2165          85.00       351.36
   82.51        2951.75           2169          80.00       329.56
   82.55        2952.00           2172          80.00       329.56
   82.58        2952.25           2176          80.00       329.56
   82.61        2952.50           2179          76.00       312.12
   82.64        2952.75           2183          82.00       338.28
   82.67        2953.00           2186          84.00       347.00
   82.70        2953.25           2190          88.00       364.43
   82.73        2953.50           2193          80.00       329.56
   82.76        2953.75           2197          77.00       316.48
   82.79        2954.00           2200          88.00       364.43
   82.82        2954.25           2204          86.00       355.71
   82.85        2954.50           2208          91.00       377.51
   82.88        2954.75           2211         129.00       543.17
   82.91        2955.00           2215          92.00       381.87
   82.94        2955.25           2218          83.00       342.64
   82.97        2955.50           2222          98.00       408.03
   83.00        2955.75           2225          92.00       381.87
   83.03        2956.00           2229         111.00       464.70
   83.07        2956.25           2232          83.00       342.64
   83.10        2956.50           2236          98.00       408.03
   83.13        2956.75           2239         103.00       429.82
   83.16        2957.00           2243          94.00       390.59
   83.19        2957.25           2246          90.00       373.15
   83.22        2957.50           2250          94.00       390.59
   83.25        2957.75           2254         105.00       438.54
   83.28        2958.00           2257         106.00       442.90
   83.31        2958.25           2261         109.00       455.98
   83.34        2958.50           2264         118.00       495.21
   83.37        2958.75           2268         109.00       455.98
   83.40        2959.00           2271         126.00       530.09
   83.43        2959.25           2275         101.00       421.10
   83.46        2959.50           2278         113.00       473.42
   83.49        2959.75           2282         134.00       564.96
   83.52        2960.00           2285         139.00       586.76
   83.55        2960.25           2289         131.00       551.88
   83.59        2960.50           2293         136.00       573.68
   83.62        2960.75           2296         153.00       647.79
   83.65        2961.00           2300         175.00       743.70
   83.68        2961.25           2303         373.00      1606.89
   83.71        2961.50           2307        1190.00      5169.17
   83.74        2961.75           2310        2282.00      9931.86
   83.77        2962.00           2314        4376.00     19069.03
   83.80        2962.25           2317        5944.00     25914.72
   83.83        2962.50           2321        8087.00     35275.94
   83.86        2962.75           2324        9551.00     41674.53
   83.89        2963.00           2328       11720.00     51159.53
   83.92        2963.25           2331       13278.00     57976.42
   83.95        2963.50           2335       15505.00     67725.96
   83.98        2963.75           2339       17855.00     78020.99
   84.01        2964.00           2342       19712.00     86161.36
   84.04        2964.25           2346       21833.00     95464.55
   84.07        2964.50           2349       23659.00    103478.50
   84.11        2964.75           2353       25896.00    113302.30
   84.14        2965.00           2356       27477.00    120249.10
   84.17        2965.25           2360       29170.00    127691.80
   84.20        2965.50           2363       30605.00    134003.20
   84.23        2965.75           2367       32885.00    144036.70
   84.26        2966.00           2370       34657.00    151839.40
   84.29        2966.25           2374       36380.00    159430.30
   84.32        2966.50           2378       37012.00    162215.70
   84.36        2966.75           2381       37885.00    166064.10
   84.39        2967.00           2385       38131.00    167148.60
   84.42        2967.25           2388       37914.00    166191.90
   84.45        2967.50           2392       37845.00    165887.70
   84.48        2967.75           2395       37120.00    162691.70
   84.51        2968.00           2399       35490.00    155508.80
   84.54        2968.25           2402       34611.00    151636.80
   84.57        2968.50           2406       32739.00    143394.00
   84.60        2968.75           2409       30990.00    135697.00
   84.63        2969.00           2413       28933.00    126649.70
   84.66        2969.25           2417       26922.00    117810.10
   84.69        2969.50           2420       25387.00    111066.40
   84.72        2969.75           2424       22841.00     99887.92
   84.75        2970.00           2427       21058.00     92064.54
   84.78        2970.25           2431       18731.00     81860.47
   84.82        2970.50           2434       17072.00     74589.97
   84.85        2970.75           2438       14873.00     64958.48
   84.88        2971.00           2441       13262.00     57906.40
   84.91        2971.25           2445       10968.00     47870.35
   84.94        2971.50           2449        8768.00     38251.98
   84.97        2971.75           2452        7031.00     30662.29
   85.00        2972.00           2456        5042.00     21976.31
   85.03        2972.25           2459        3633.00     15826.30
   85.06        2972.50           2463        1832.00      7969.03
   85.09        2972.75           2466         849.00      3682.24
   85.12        2973.00           2470         272.00      1166.57
   85.15        2973.25           2473         171.00       726.26
   85.18        2973.50           2477         139.00       586.76
   85.21        2973.75           2481         148.00       625.99
   85.24        2974.00           2484         146.00       617.28
   85.27        2974.25           2488         125.00       525.73
   85.30        2974.50           2491         135.00       569.32
   85.34        2974.75           2495         128.00       538.81
   85.37        2975.00           2498         154.00       652.15
   85.40        2975.25           2502         119.00       499.57
   85.43        2975.50           2505         128.00       538.81
   85.46        2975.75           2509         149.00       630.35
   85.49        2976.00           2512         126.00       530.09
   85.52        2976.25           2516         138.00       582.40
   85.55        2976.50           2520         101.00       421.10
   85.58        2976.75           2523         106.00       442.90
   85.61        2977.00           2527         105.00       438.54
   85.64        2977.25           2530          96.00       399.31
   85.67        2977.50           2534         103.00       429.82
   85.70        2977.75           2537          90.00       373.15
   85.73        2978.00           2541          97.00       403.67
   85.76        2978.25           2544          92.00       381.87
   85.79        2978.50           2548          95.00       394.95
   85.82        2978.75           2552          98.00       408.03
   85.86        2979.00           2555          85.00       351.36
   85.89        2979.25           2559          98.00       408.03
   85.92        2979.50           2562          83.00       342.64
   85.95        2979.75           2566          93.00       386.23
   85.98        2980.00           2569          85.00       351.36
   86.01        2980.25           2573          95.00       394.95
   86.04        2980.50           2577          86.00       355.71
   86.07        2980.75           2580          80.00       329.56
   86.10        2981.00           2584          86.00       355.71
   86.13        2981.25           2587          91.00       377.51
   86.16        2981.50           2591          83.00       342.64
   86.19        2981.75           2594          85.00       351.36
   86.22        2982.00           2598          84.00       347.00
   86.25        2982.25           2601          85.00       351.36
   86.28        2982.50           2605          79.00       325.20
   86.31        2982.75           2609          85.00       351.36
   86.34        2983.00           2612          85.00       351.36
   86.38        2983.25           2616          89.00       368.79
   86.41        2983.50           2619          80.00       329.56
   86.44        2983.75           2623          85.00       351.36
   86.47        2984.00           2626          78.00       320.84
HS scan finished at 01:26:41
end
************************************************************
  HS Scan of (1) Internal mercury lamp
************************************************************
Integration time is 0.2294 seconds per sample
dh090718Reading 51.44 .94 4.03pr1000
************************************************************
Dead Time -------------------------  3.4E-08 
Number of Cycles Used -------------  4 
Starting Wavelength (Angstroms) ---  2950 
Final Wavelength (Angstoms) -------  2984 
Wavelength Increment (Angstroms) --  .25 
Filter Wheel #1 Position ---------- (1) Ground quartz diffuser (ND=2.32)
Filter Wheel #2 Position ---------- (1) Neutral Density 0.494



************************************************************
HS scan start time = 21:07:25
Dark Count =  10.3 


Time (GMT)  Wavelength (Ang)  Step Number  Raw Counts  Counts/Second

 1268.32        2950.00           2144          71.00       264.61
 1268.52        2950.25           2147          73.00       273.32
 1268.55        2950.50           2151          71.00       264.61
 1268.58        2950.75           2155          74.00       277.68
 1268.61        2951.00           2158          84.00       321.28
 1268.64        2951.25           2162          67.00       247.17
 1268.67        2951.50           2165          83.00       316.92
 1268.70        2951.75           2169          67.00       247.17
 1268.73        2952.00           2172          76.00       286.40
 1268.76        2952.25           2176          72.00       268.97
 1268.79        2952.50           2179          76.00       286.40
 1268.82        2952.75           2183          81.00       308.20
 1268.85        2953.00           2186          75.00       282.04
 1268.89        2953.25           2190          67.00       247.17
 1268.92        2953.50           2193          76.00       286.40
 1268.95        2953.75           2197          84.00       321.28
 1268.98        2954.00           2200          73.00       273.32
 1269.01        2954.25           2204          78.00       295.12
 1269.04        2954.50           2208          74.00       277.68
 1269.07        2954.75           2211          76.00       286.40
 1269.10        2955.00           2215          77.00       290.76
 1269.13        2955.25           2218          76.00       286.40
 1269.16        2955.50           2222          76.00       286.40
 1269.19        2955.75           2225          81.00       308.20
 1269.22        2956.00           2229          85.00       325.64
 1269.25        2956.25           2232          78.00       295.12
 1269.28        2956.50           2236          82.00       312.56
 1269.31        2956.75           2239          75.00       282.04
 1269.34        2957.00           2243          88.00       338.71
 1269.37        2957.25           2246          88.00       338.71
 1269.41        2957.50           2250          87.00       334.35
 1269.44        2957.75           2254          92.00       356.15
 1269.47        2958.00           2257          90.00       347.43
 1269.50        2958.25           2261          95.00       369.23
 1269.53        2958.50           2264          83.00       316.92
 1269.56        2958.75           2268          94.00       364.87
 1269.59        2959.00           2271         101.00       395.38
 1269.62        2959.25           2275          93.00       360.51
 1269.65        2959.50           2278         120.00       478.21
 1269.68        2959.75           2282         109.00       430.26
 1269.71        2960.00           2285         105.00       412.82
 1269.74        2960.25           2289         102.00       399.74
 1269.77        2960.50           2293         109.00       430.26
 1269.80        2960.75           2296         136.00       547.96
 1269.83        2961.00           2300         174.00       713.62
 1269.86        2961.25           2303         431.00      1834.03
 1269.89        2961.50           2307        1484.00      6425.55
 1269.92        2961.75           2310        2607.00     11323.89
 1269.96        2962.00           2314        4198.00     18266.35
 1269.99        2962.25           2317        5402.00     23522.30
 1270.02        2962.50           2321        6971.00     30374.43
 1270.05        2962.75           2324        8189.00     35695.87
 1270.08        2963.00           2328       10095.00     44027.06
 1270.11        2963.25           2331       11616.00     50678.80
 1270.14        2963.50           2335       13429.00     58611.45
 1270.17        2963.75           2339       15185.00     66298.81
 1270.20        2964.00           2342       16271.00     71055.06
 1270.23        2964.25           2346       18074.00     78954.91
 1270.26        2964.50           2349       19391.00     84728.03
 1270.29        2964.75           2353       21243.00     92850.19
 1270.32        2965.00           2356       22477.00     98264.54
 1270.35        2965.25           2360       24116.00    105459.00
 1270.38        2965.50           2363       25211.00    110267.50
 1270.41        2965.75           2367       26813.00    117305.20
 1270.44        2966.00           2370       27837.00    121805.50
 1270.48        2966.25           2374       29331.00    128373.80
 1270.51        2966.50           2378       30258.00    132450.80
 1270.54        2966.75           2381       30410.00    133119.50
 1270.57        2967.00           2385       30515.00    133581.40
 1270.60        2967.25           2388       30140.00    131931.80
 1270.63        2967.50           2392       30326.00    132750.00
 1270.66        2967.75           2395       30169.00    132059.40
 1270.69        2968.00           2399       29342.00    128422.20
 1270.72        2968.25           2402       28163.00    123238.50
 1270.75        2968.50           2406       26409.00    115530.10
 1270.78        2968.75           2409       25132.00    109920.50
 1270.81        2969.00           2413       23307.00    101907.40
 1270.84        2969.25           2417       21648.00     94626.97
 1270.87        2969.50           2420       20304.00     88731.54
 1270.90        2969.75           2424       18586.00     81199.01
 1270.93        2970.00           2427       17120.00     74774.43
 1270.97        2970.25           2431       15172.00     66241.88
 1271.00        2970.50           2434       13608.00     59394.89
 1271.03        2970.75           2438       11903.00     51934.26
 1271.06        2971.00           2441       10506.00     45824.18
 1271.09        2971.25           2445        8979.00     39148.42
 1271.12        2971.50           2449        7223.00     31475.26
 1271.15        2971.75           2452        5685.00     24757.97
 1271.18        2972.00           2456        3902.00     16974.49
 1271.21        2972.25           2459        2745.00     11925.93
 1271.24        2972.50           2463        1345.00      5819.37
 1271.27        2972.75           2466         594.00      2544.68
 1271.30        2973.00           2470         199.00       822.60
 1271.33        2973.25           2473         156.00       635.15
 1271.36        2973.50           2477         139.00       561.04
 1271.39        2973.75           2481         107.00       421.54
 1271.42        2974.00           2484         109.00       430.26
 1271.45        2974.25           2488         108.00       425.90
 1271.48        2974.50           2491         105.00       412.82
 1271.52        2974.75           2495          97.00       377.95
 1271.55        2975.00           2498         103.00       404.10
 1271.58        2975.25           2502         135.00       543.60
 1271.61        2975.50           2505         100.00       391.03
 1271.64        2975.75           2509          90.00       347.43
 1271.67        2976.00           2512          89.00       343.07
 1271.70        2976.25           2516          87.00       334.35
 1271.73        2976.50           2520          87.00       334.35
 1271.76        2976.75           2523          96.00       373.59
 1271.79        2977.00           2527          85.00       325.64
 1271.82        2977.25           2530          77.00       290.76
 1271.85        2977.50           2534          81.00       308.20
 1271.88        2977.75           2537          80.00       303.84
 1271.91        2978.00           2541          88.00       338.71
 1271.94        2978.25           2544          90.00       347.43
 1271.97        2978.50           2548          78.00       295.12
 1272.00        2978.75           2552          75.00       282.04
 1272.04        2979.00           2555          74.00       277.68
 1272.07        2979.25           2559          79.00       299.48
 1272.10        2979.50           2562          79.00       299.48
 1272.13        2979.75           2566          80.00       303.84
 1272.16        2980.00           2569          74.00       277.68
 1272.19        2980.25           2573          64.00       234.09
 1272.22        2980.50           2577          83.00       316.92
 1272.25        2980.75           2580          80.00       303.84
 1272.28        2981.00           2584          75.00       282.04
 1272.31        2981.25           2587          76.00       286.40
 1272.34        2981.50           2591          70.00       260.25
 1272.37        2981.75           2594          68.00       251.53
 1272.40        2982.00           2598          75.00       282.04
 1272.43        2982.25           2601          67.00       247.17
 1272.46        2982.50           2605          65.00       238.45
 1272.49        2982.75           2609          63.00       229.73
 1272.53        2983.00           2612          75.00       282.04
 1272.56        2983.25           2616          69.00       255.89
 1272.59        2983.50           2619          67.00       247.17
 1272.62        2983.75           2623          71.00       264.61
 1272.65        2984.00           2626          71.00       264.61
HS scan finished at 21:12:52
end
