************************************************************
  HS Scan of (1) Internal mercury lamp
************************************************************
Integration time is 0.2294 seconds per sample
dh110717Reading 51.44 .94 3.54pr1000
************************************************************
Dead Time -------------------------  3.4E-08 
Number of Cycles Used -------------  4 
Starting Wavelength (Angstroms) ---  2950 
Final Wavelength (Angstoms) -------  2984 
Wavelength Increment (Angstroms) --  .25 
Filter Wheel #1 Position ---------- (1) Ground quartz diffuser (ND=2.32)
Filter Wheel #2 Position ---------- (1) Neutral Density 0.494



************************************************************
HS scan start time = 02:42:22
Dark Count =  3.1 


Time (GMT)  Wavelength (Ang)  Step Number  Raw Counts  Counts/Second

  163.26        2950.00           2144         317.00      1368.42
  163.45        2950.25           2147         335.00      1446.89
  163.48        2950.50           2151         364.00      1573.32
  163.51        2950.75           2155         336.00      1451.25
  163.54        2951.00           2158         335.00      1446.89
  163.57        2951.25           2162         359.00      1551.52
  163.61        2951.50           2165         340.00      1468.69
  163.64        2951.75           2169         353.00      1525.36
  163.67        2952.00           2172         361.00      1560.24
  163.70        2952.25           2176         343.00      1481.77
  163.73        2952.50           2179         356.00      1538.44
  163.76        2952.75           2183         382.00      1651.79
  163.79        2953.00           2186         359.00      1551.52
  163.82        2953.25           2190         347.00      1499.20
  163.85        2953.50           2193         383.00      1656.15
  163.88        2953.75           2197         381.00      1647.43
  163.91        2954.00           2200         386.00      1669.23
  163.94        2954.25           2204         345.00      1490.49
  163.97        2954.50           2208         372.00      1608.20
  164.00        2954.75           2211         372.00      1608.20
  164.03        2955.00           2215         367.00      1586.40
  164.06        2955.25           2218         377.00      1629.99
  164.09        2955.50           2222         378.00      1634.35
  164.13        2955.75           2225         391.00      1691.03
  164.16        2956.00           2229         403.00      1743.35
  164.19        2956.25           2232         412.00      1782.58
  164.22        2956.50           2236         403.00      1743.35
  164.25        2956.75           2239         410.00      1773.86
  164.28        2957.00           2243         450.00      1948.25
  164.31        2957.25           2246         410.00      1773.86
  164.34        2957.50           2250         429.00      1856.70
  164.37        2957.75           2254         423.00      1830.54
  164.40        2958.00           2257         448.00      1939.54
  164.43        2958.25           2261         429.00      1856.70
  164.46        2958.50           2264         442.00      1913.38
  164.49        2958.75           2268         436.00      1887.22
  164.53        2959.00           2271         488.00      2113.93
  164.56        2959.25           2275         495.00      2144.45
  164.59        2959.50           2278         462.00      2000.57
  164.62        2959.75           2282         500.00      2166.25
  164.65        2960.00           2285         476.00      2061.61
  164.68        2960.25           2289         503.00      2179.32
  164.71        2960.50           2293         522.00      2262.16
  164.74        2960.75           2296         533.00      2310.12
  164.77        2961.00           2300         688.00      2985.92
  164.80        2961.25           2303        1671.00      7272.50
  164.84        2961.50           2307        5995.00     26143.11
  164.87        2961.75           2310       11096.00     48435.85
  164.90        2962.00           2314       18875.00     82497.43
  164.93        2962.25           2317       25419.00    111212.70
  164.96        2962.50           2321       33748.00    147842.00
  164.99        2962.75           2324       39941.00    175137.00
  165.02        2963.00           2328       48218.00    211696.60
  165.05        2963.25           2331       54837.00    240998.50
  165.08        2963.50           2335       63910.00    281259.60
  165.11        2963.75           2339       73373.00    323369.80
  165.14        2964.00           2342       79831.00    352177.50
  165.17        2964.25           2346       87965.00    388542.40
  165.20        2964.50           2349       94218.00    416559.60
  165.23        2964.75           2353      103533.00    458396.30
  165.26        2965.00           2356      110262.00    488693.20
  165.29        2965.25           2360      118313.00    525025.30
  165.32        2965.50           2363      124650.00    553686.30
  165.36        2965.75           2367      132188.00    587853.00
  165.39        2966.00           2370      137727.00    613010.10
  165.42        2966.25           2374      144321.00    643015.80
  165.45        2966.50           2378      147156.00    655935.30
  165.48        2966.75           2381      147762.00    658698.50
  165.51        2967.00           2385      148098.00    660230.70
  165.54        2967.25           2388      148260.00    660969.50
  165.57        2967.50           2392      147971.00    659651.50
  165.60        2967.75           2395      146306.00    652060.50
  165.63        2968.00           2399      141338.00    629434.10
  165.66        2968.25           2402      136763.00    608628.60
  165.69        2968.50           2406      129690.00    576521.60
  165.72        2968.75           2409      123897.00    550277.80
  165.75        2969.00           2413      114506.00    507834.00
  165.78        2969.25           2417      105994.00    469469.50
  165.81        2969.50           2420      100452.00    444545.20
  165.84        2969.75           2424       92734.00    409905.50
  165.87        2970.00           2427       85750.00    378630.80
  165.91        2970.25           2431       76441.00    337048.30
  165.94        2970.50           2434       69226.00    304900.80
  165.97        2970.75           2438       60486.00    266052.80
  166.00        2971.00           2441       53974.00    237174.70
  166.03        2971.25           2445       45603.00    200136.20
  166.06        2971.50           2449       36547.00    160172.00
  166.09        2971.75           2452       30291.00    132627.70
  166.12        2972.00           2456       22313.00     97576.46
  166.15        2972.25           2459       16140.00     70512.79
  166.18        2972.50           2463        8616.00     37593.36
  166.21        2972.75           2466        3776.00     16456.02
  166.24        2973.00           2470        1073.00      4664.65
  166.27        2973.25           2473         676.00      2933.60
  166.30        2973.50           2477         609.00      2641.48
  166.33        2973.75           2481         561.00      2432.20
  166.36        2974.00           2484         574.00      2488.88
  166.39        2974.25           2488         522.00      2262.16
  166.43        2974.50           2491         528.00      2288.32
  166.46        2974.75           2495         516.00      2236.00
  166.49        2975.00           2498         510.00      2209.84
  166.52        2975.25           2502         488.00      2113.93
  166.55        2975.50           2505         466.00      2018.01
  166.58        2975.75           2509         477.00      2065.97
  166.61        2976.00           2512         462.00      2000.57
  166.64        2976.25           2516         465.00      2013.65
  166.67        2976.50           2520         452.00      1956.97
  166.70        2976.75           2523         425.00      1839.26
  166.73        2977.00           2527         456.00      1974.41
  166.76        2977.25           2530         430.00      1861.06
  166.79        2977.50           2534         431.00      1865.42
  166.82        2977.75           2537         402.00      1738.99
  166.85        2978.00           2541         395.00      1708.47
  166.88        2978.25           2544         425.00      1839.26
  166.91        2978.50           2548         390.00      1686.67
  166.95        2978.75           2552         411.00      1778.22
  166.98        2979.00           2555         395.00      1708.47
  167.01        2979.25           2559         417.00      1804.38
  167.04        2979.50           2562         388.00      1677.95
  167.07        2979.75           2566         407.00      1760.79
  167.10        2980.00           2569         392.00      1695.39
  167.13        2980.25           2573         408.00      1765.15
  167.16        2980.50           2577         366.00      1582.04
  167.19        2980.75           2580         396.00      1712.83
  167.22        2981.00           2584         363.00      1568.96
  167.25        2981.25           2587         379.00      1638.71
  167.28        2981.50           2591         357.00      1542.80
  167.31        2981.75           2594         388.00      1677.95
  167.34        2982.00           2598         361.00      1560.24
  167.37        2982.25           2601         342.00      1477.41
  167.40        2982.50           2605         380.00      1643.07
  167.43        2982.75           2609         351.00      1516.64
  167.47        2983.00           2612         347.00      1499.20
  167.50        2983.25           2616         358.00      1547.16
  167.53        2983.50           2619         347.00      1499.20
  167.56        2983.75           2623         342.00      1477.41
  167.59        2984.00           2626         351.00      1516.64
HS scan finished at 02:47:49
end
************************************************************
  HS Scan of (1) Internal mercury lamp
************************************************************
Integration time is 0.2294 seconds per sample
dh110717Reading 51.44 .94 3.29pr1000
************************************************************
Dead Time -------------------------  3.4E-08 
Number of Cycles Used -------------  4 
Starting Wavelength (Angstroms) ---  2950 
Final Wavelength (Angstoms) -------  2984 
Wavelength Increment (Angstroms) --  .25 
Filter Wheel #1 Position ---------- (1) Ground quartz diffuser (ND=2.32)
Filter Wheel #2 Position ---------- (1) Neutral Density 0.494



************************************************************
HS scan start time = 21:07:28
Dark Count =  1.6 


Time (GMT)  Wavelength (Ang)  Step Number  Raw Counts  Counts/Second

 1268.36        2950.00           2144         429.00      1863.24
 1268.56        2950.25           2147         412.00      1789.12
 1268.59        2950.50           2151         434.00      1885.04
 1268.62        2950.75           2155         420.00      1824.00
 1268.65        2951.00           2158         420.00      1824.00
 1268.68        2951.25           2162         432.00      1876.32
 1268.71        2951.50           2165         435.00      1889.40
 1268.74        2951.75           2169         435.00      1889.40
 1268.77        2952.00           2172         418.00      1815.28
 1268.80        2952.25           2176         443.00      1924.28
 1268.83        2952.50           2179         418.00      1815.28
 1268.86        2952.75           2183         427.00      1854.52
 1268.89        2953.00           2186         446.00      1937.36
 1268.92        2953.25           2190         438.00      1902.48
 1268.95        2953.50           2193         453.00      1967.87
 1268.98        2953.75           2197         442.00      1919.92
 1269.01        2954.00           2200         452.00      1963.51
 1269.05        2954.25           2204         487.00      2116.11
 1269.08        2954.50           2208         467.00      2028.91
 1269.11        2954.75           2211         444.00      1928.64
 1269.14        2955.00           2215         461.00      2002.75
 1269.17        2955.25           2218         484.00      2103.03
 1269.20        2955.50           2222         478.00      2076.87
 1269.23        2955.75           2225         462.00      2007.11
 1269.26        2956.00           2229         486.00      2111.75
 1269.29        2956.25           2232         471.00      2046.35
 1269.32        2956.50           2236         478.00      2076.87
 1269.35        2956.75           2239         493.00      2142.27
 1269.38        2957.00           2243         493.00      2142.27
 1269.41        2957.25           2246         489.00      2124.83
 1269.44        2957.50           2250         512.00      2225.10
 1269.47        2957.75           2254         534.00      2321.02
 1269.50        2958.00           2257         505.00      2194.58
 1269.53        2958.25           2261         514.00      2233.82
 1269.57        2958.50           2264         522.00      2268.70
 1269.60        2958.75           2268         529.00      2299.22
 1269.63        2959.00           2271         559.00      2430.02
 1269.66        2959.25           2275         551.00      2395.14
 1269.69        2959.50           2278         552.00      2399.50
 1269.72        2959.75           2282         576.00      2504.14
 1269.75        2960.00           2285         579.00      2517.22
 1269.78        2960.25           2289         549.00      2386.42
 1269.81        2960.50           2293         628.00      2730.86
 1269.84        2960.75           2296         631.00      2743.94
 1269.87        2961.00           2300         711.00      3092.74
 1269.90        2961.25           2303        1086.00      4727.87
 1269.93        2961.50           2307        4053.00     17671.47
 1269.96        2961.75           2310        8814.00     38465.27
 1269.99        2962.00           2314       17326.00     75715.16
 1270.02        2962.25           2317       24057.00    105238.10
 1270.05        2962.50           2321       32355.00    141716.10
 1270.08        2962.75           2324       39060.00    171257.60
 1270.12        2963.00           2328       48758.00    214091.50
 1270.15        2963.25           2331       56900.00    250149.90
 1270.18        2963.50           2335       67077.00    295345.90
 1270.21        2963.75           2339       76385.00    336805.20
 1270.24        2964.00           2342       82677.00    364897.60
 1270.27        2964.25           2346       91869.00    406035.00
 1270.30        2964.50           2349       99378.00    439726.80
 1270.33        2964.75           2353      110082.00    487888.70
 1270.36        2965.00           2356      116741.00    517930.90
 1270.39        2965.25           2360      125258.00    556446.00
 1270.42        2965.50           2363      131643.00    585386.80
 1270.45        2965.75           2367      140469.00    625486.80
 1270.48        2966.00           2370      146544.00    653152.10
 1270.51        2966.25           2374      155296.00    693101.40
 1270.54        2966.50           2378      162610.00    726571.10
 1270.57        2966.75           2381      164298.00    734306.60
 1270.60        2967.00           2385      164838.00    736782.10
 1270.64        2967.25           2388      164889.00    737016.00
 1270.67        2967.50           2392      164791.00    736566.60
 1270.70        2967.75           2395      164752.00    736387.80
 1270.73        2968.00           2399      162812.00    727496.60
 1270.76        2968.25           2402      158439.00    707474.60
 1270.79        2968.50           2406      149260.00    665537.80
 1270.82        2968.75           2409      142224.00    633473.50
 1270.85        2969.00           2413      132895.00    591068.50
 1270.88        2969.25           2417      123751.00    549623.70
 1270.91        2969.50           2420      116771.00    518066.40
 1270.94        2969.75           2424      107698.00    477148.30
 1270.97        2970.00           2427       99512.00    440328.70
 1271.00        2970.25           2431       88400.00    390496.50
 1271.03        2970.50           2434       81372.00    359066.60
 1271.06        2970.75           2438       70968.00    312662.80
 1271.09        2971.00           2441       63428.00    279124.70
 1271.12        2971.25           2445       53749.00    236184.60
 1271.16        2971.50           2449       44514.00    195331.30
 1271.19        2971.75           2452       37183.00    162981.70
 1271.22        2972.00           2456       27284.00    119413.20
 1271.25        2972.25           2459       20028.00     87559.32
 1271.28        2972.50           2463       11337.00     49496.48
 1271.31        2972.75           2466        6252.00     27272.01
 1271.34        2973.00           2470        2119.00      9233.06
 1271.37        2973.25           2473        1025.00      4461.88
 1271.40        2973.50           2477         751.00      3267.15
 1271.43        2973.75           2481         650.00      2826.78
 1271.46        2974.00           2484         643.00      2796.26
 1271.49        2974.25           2488         635.00      2761.38
 1271.52        2974.50           2491         601.00      2613.14
 1271.55        2974.75           2495         606.00      2634.94
 1271.58        2975.00           2498         598.00      2600.06
 1271.61        2975.25           2502         566.00      2460.54
 1271.64        2975.50           2505         553.00      2403.86
 1271.68        2975.75           2509         551.00      2395.14
 1271.71        2976.00           2512         564.00      2451.82
 1271.74        2976.25           2516         529.00      2299.22
 1271.77        2976.50           2520         551.00      2395.14
 1271.80        2976.75           2523         512.00      2225.10
 1271.83        2977.00           2527         503.00      2185.86
 1271.86        2977.25           2530         504.00      2190.22
 1271.89        2977.50           2534         532.00      2312.30
 1271.92        2977.75           2537         532.00      2312.30
 1271.95        2978.00           2541         492.00      2137.91
 1271.98        2978.25           2544         513.00      2229.46
 1272.01        2978.50           2548         453.00      1967.87
 1272.04        2978.75           2552         504.00      2190.22
 1272.07        2979.00           2555         470.00      2041.99
 1272.10        2979.25           2559         499.00      2168.42
 1272.13        2979.50           2562         462.00      2007.11
 1272.16        2979.75           2566         464.00      2015.83
 1272.20        2980.00           2569         451.00      1959.15
 1272.23        2980.25           2573         446.00      1937.36
 1272.26        2980.50           2577         441.00      1915.56
 1272.29        2980.75           2580         434.00      1885.04
 1272.32        2981.00           2584         435.00      1889.40
 1272.35        2981.25           2587         441.00      1915.56
 1272.38        2981.50           2591         430.00      1867.60
 1272.41        2981.75           2594         442.00      1919.92
 1272.44        2982.00           2598         422.00      1832.72
 1272.47        2982.25           2601         444.00      1928.64
 1272.50        2982.50           2605         441.00      1915.56
 1272.53        2982.75           2609         425.00      1845.80
 1272.56        2983.00           2612         416.00      1806.56
 1272.59        2983.25           2616         426.00      1850.16
 1272.62        2983.50           2619         412.00      1789.12
 1272.65        2983.75           2623         420.00      1824.00
 1272.68        2984.00           2626         421.00      1828.36
HS scan finished at 21:12:54
end
