************************************************************
  HS Scan of (1) Internal mercury lamp
************************************************************
Integration time is 0.2294 seconds per sample
dh180717Reading 51.44 .94 3.8pr1000
************************************************************
Dead Time -------------------------  3.4E-08 
Number of Cycles Used -------------  4 
Starting Wavelength (Angstroms) ---  2950 
Final Wavelength (Angstoms) -------  2984 
Wavelength Increment (Angstroms) --  .25 
Filter Wheel #1 Position ---------- (1) Ground quartz diffuser (ND=2.32)
Filter Wheel #2 Position ---------- (1) Neutral Density 0.494



************************************************************
HS scan start time = 02:43:13
Dark Count =  5 


Time (GMT)  Wavelength (Ang)  Step Number  Raw Counts  Counts/Second

  164.12        2950.00           2144         280.00      1198.83
  164.31        2950.25           2147         279.00      1194.47
  164.34        2950.50           2151         278.00      1190.11
  164.37        2950.75           2155         281.00      1203.19
  164.40        2951.00           2158         285.00      1220.63
  164.43        2951.25           2162         282.00      1207.55
  164.47        2951.50           2165         287.00      1229.35
  164.50        2951.75           2169         302.00      1294.74
  164.53        2952.00           2172         277.00      1185.75
  164.56        2952.25           2176         301.00      1290.38
  164.59        2952.50           2179         306.00      1312.18
  164.62        2952.75           2183         300.00      1286.02
  164.65        2953.00           2186         306.00      1312.18
  164.68        2953.25           2190         297.00      1272.94
  164.71        2953.50           2193         287.00      1229.35
  164.74        2953.75           2197         312.00      1338.33
  164.77        2954.00           2200         320.00      1373.21
  164.80        2954.25           2204         320.00      1373.21
  164.83        2954.50           2208         309.00      1325.26
  164.86        2954.75           2211         316.00      1355.77
  164.89        2955.00           2215         310.00      1329.62
  164.92        2955.25           2218         326.00      1399.37
  164.95        2955.50           2222         326.00      1399.37
  164.99        2955.75           2225         346.00      1486.56
  165.02        2956.00           2229         333.00      1429.89
  165.05        2956.25           2232         343.00      1473.48
  165.08        2956.50           2236         342.00      1469.12
  165.11        2956.75           2239         349.00      1499.64
  165.14        2957.00           2243         345.00      1482.20
  165.17        2957.25           2246         351.00      1508.36
  165.20        2957.50           2250         397.00      1708.90
  165.23        2957.75           2254         349.00      1499.64
  165.26        2958.00           2257         378.00      1626.07
  165.29        2958.25           2261         375.00      1612.99
  165.32        2958.50           2264         395.00      1700.19
  165.35        2958.75           2268         386.00      1660.95
  165.38        2959.00           2271         394.00      1695.83
  165.41        2959.25           2275         387.00      1665.31
  165.44        2959.50           2278         416.00      1791.74
  165.47        2959.75           2282         406.00      1748.14
  165.51        2960.00           2285         433.00      1865.86
  165.54        2960.25           2289         447.00      1926.89
  165.57        2960.50           2293         451.00      1944.33
  165.60        2960.75           2296         494.00      2131.80
  165.63        2961.00           2300         688.00      2977.63
  165.66        2961.25           2303        1675.00      7281.66
  165.69        2961.50           2307        5634.00     24558.42
  165.72        2961.75           2310        9974.00     43521.20
  165.75        2962.00           2314       16385.00     71577.65
  165.78        2962.25           2317       21850.00     95536.51
  165.81        2962.50           2321       29755.00    130261.80
  165.84        2962.75           2324       35494.00    155523.80
  165.87        2963.00           2328       42473.00    186302.80
  165.90        2963.25           2331       48236.00    211767.80
  165.93        2963.50           2335       55944.00    245896.40
  165.96        2963.75           2339       64047.00    281860.00
  165.99        2964.00           2342       69921.00    307986.00
  166.03        2964.25           2346       77149.00    340198.30
  166.06        2964.50           2349       83166.00    367067.90
  166.09        2964.75           2353       89869.00    397059.30
  166.12        2965.00           2356       95624.00    422858.20
  166.15        2965.25           2360      102367.00    453144.30
  166.18        2965.50           2363      107104.00    474458.20
  166.21        2965.75           2367      113415.00    502902.50
  166.24        2966.00           2370      119757.00    531542.70
  166.27        2966.25           2374      125873.00    559215.60
  166.30        2966.50           2378      128988.00    573330.30
  166.33        2966.75           2381      128889.00    572881.50
  166.36        2967.00           2385      129116.00    573910.60
  166.39        2967.25           2388      128050.00    569078.60
  166.42        2967.50           2392      129226.00    574409.30
  166.45        2967.75           2395      127654.00    567284.00
  166.48        2968.00           2399      123198.00    547105.70
  166.51        2968.25           2402      118991.00    528080.50
  166.55        2968.50           2406      112173.00    497300.30
  166.58        2968.75           2409      106378.00    471189.50
  166.61        2969.00           2413       99897.00    442043.00
  166.64        2969.25           2417       92590.00    409251.50
  166.67        2969.50           2420       87045.00    384416.30
  166.70        2969.75           2424       79755.00    351829.60
  166.73        2970.00           2427       73759.00    325081.60
  166.76        2970.25           2431       65905.00    290118.80
  166.79        2970.50           2434       61032.00    268468.20
  166.82        2970.75           2438       53279.00    234087.60
  166.85        2971.00           2441       47625.00    209065.90
  166.88        2971.25           2445       39250.00    172080.60
  166.91        2971.50           2449       31183.00    136543.50
  166.94        2971.75           2452       25733.00    112583.60
  166.97        2972.00           2456       18736.00     81879.78
  167.00        2972.25           2459       13245.00     57829.38
  167.03        2972.50           2463        6666.00     29065.33
  167.07        2972.75           2466        2866.00     12476.96
  167.10        2973.00           2470         847.00      3670.90
  167.13        2973.25           2473         558.00      2410.83
  167.16        2973.50           2477         517.00      2232.08
  167.19        2973.75           2481         511.00      2205.92
  167.22        2974.00           2484         470.00      2027.17
  167.25        2974.25           2488         467.00      2014.09
  167.28        2974.50           2491         426.00      1835.34
  167.31        2974.75           2495         437.00      1883.29
  167.34        2975.00           2498         427.00      1839.70
  167.37        2975.25           2502         438.00      1887.65
  167.40        2975.50           2505         436.00      1878.93
  167.43        2975.75           2509         415.00      1787.38
  167.46        2976.00           2512         413.00      1778.66
  167.49        2976.25           2516         411.00      1769.94
  167.52        2976.50           2520         414.00      1783.02
  167.55        2976.75           2523         391.00      1682.75
  167.58        2977.00           2527         382.00      1643.51
  167.62        2977.25           2530         372.00      1599.91
  167.65        2977.50           2534         391.00      1682.75
  167.68        2977.75           2537         370.00      1591.19
  167.71        2978.00           2541         364.00      1565.04
  167.74        2978.25           2544         354.00      1521.44
  167.77        2978.50           2548         368.00      1582.47
  167.80        2978.75           2552         338.00      1451.68
  167.83        2979.00           2555         324.00      1390.65
  167.86        2979.25           2559         339.00      1456.04
  167.89        2979.50           2562         323.00      1386.29
  167.92        2979.75           2566         329.00      1412.45
  167.95        2980.00           2569         334.00      1434.25
  167.98        2980.25           2573         354.00      1521.44
  168.01        2980.50           2577         337.00      1447.33
  168.04        2980.75           2580         319.00      1368.85
  168.07        2981.00           2584         313.00      1342.69
  168.10        2981.25           2587         331.00      1421.17
  168.14        2981.50           2591         322.00      1381.93
  168.17        2981.75           2594         321.00      1377.57
  168.20        2982.00           2598         316.00      1355.77
  168.23        2982.25           2601         309.00      1325.26
  168.26        2982.50           2605         324.00      1390.65
  168.29        2982.75           2609         316.00      1355.77
  168.32        2983.00           2612         298.00      1277.30
  168.35        2983.25           2616         301.00      1290.38
  168.38        2983.50           2619         287.00      1229.35
  168.41        2983.75           2623         326.00      1399.37
  168.44        2984.00           2626         301.00      1290.38
HS scan finished at 02:48:40
end
************************************************************
  HS Scan of (1) Internal mercury lamp
************************************************************
Integration time is 0.2294 seconds per sample
dh180717Reading 51.44 .94 3.62pr1000
************************************************************
Dead Time -------------------------  3.4E-08 
Number of Cycles Used -------------  4 
Starting Wavelength (Angstroms) ---  2950 
Final Wavelength (Angstoms) -------  2984 
Wavelength Increment (Angstroms) --  .25 
Filter Wheel #1 Position ---------- (1) Ground quartz diffuser (ND=2.32)
Filter Wheel #2 Position ---------- (1) Neutral Density 0.494



************************************************************
HS scan start time = 21:07:23
Dark Count =  3.7 


Time (GMT)  Wavelength (Ang)  Step Number  Raw Counts  Counts/Second

 1268.29        2950.00           2144         235.00      1008.32
 1268.48        2950.25           2147         237.00      1017.04
 1268.51        2950.50           2151         224.00       960.36
 1268.54        2950.75           2155         249.00      1069.35
 1268.58        2951.00           2158         223.00       956.00
 1268.61        2951.25           2162         265.00      1139.10
 1268.64        2951.50           2165         280.00      1204.50
 1268.67        2951.75           2169         242.00      1038.83
 1268.70        2952.00           2172         261.00      1121.66
 1268.73        2952.25           2176         249.00      1069.35
 1268.76        2952.50           2179         272.00      1169.62
 1268.79        2952.75           2183         252.00      1082.43
 1268.82        2953.00           2186         275.00      1182.70
 1268.85        2953.25           2190         282.00      1213.21
 1268.88        2953.50           2193         266.00      1143.46
 1268.91        2953.75           2197         254.00      1091.15
 1268.94        2954.00           2200         286.00      1230.65
 1268.97        2954.25           2204         276.00      1187.06
 1269.00        2954.50           2208         282.00      1213.21
 1269.03        2954.75           2211         287.00      1235.01
 1269.06        2955.00           2215         277.00      1191.42
 1269.09        2955.25           2218         281.00      1208.86
 1269.13        2955.50           2222         281.00      1208.86
 1269.16        2955.75           2225         273.00      1173.98
 1269.19        2956.00           2229         292.00      1256.81
 1269.22        2956.25           2232         278.00      1195.78
 1269.25        2956.50           2236         285.00      1226.29
 1269.28        2956.75           2239         281.00      1208.86
 1269.31        2957.00           2243         292.00      1256.81
 1269.34        2957.25           2246         280.00      1204.50
 1269.37        2957.50           2250         296.00      1274.25
 1269.40        2957.75           2254         280.00      1204.50
 1269.43        2958.00           2257         284.00      1221.93
 1269.46        2958.25           2261         312.00      1344.00
 1269.49        2958.50           2264         310.00      1335.28
 1269.52        2958.75           2268         303.00      1304.77
 1269.55        2959.00           2271         323.00      1391.96
 1269.58        2959.25           2275         318.00      1370.16
 1269.61        2959.50           2278         327.00      1409.40
 1269.65        2959.75           2282         333.00      1435.55
 1269.68        2960.00           2285         359.00      1548.90
 1269.71        2960.25           2289         339.00      1461.71
 1269.74        2960.50           2293         338.00      1457.35
 1269.77        2960.75           2296         384.00      1657.90
 1269.80        2961.00           2300         397.00      1714.57
 1269.83        2961.25           2303         610.00      2643.22
 1269.86        2961.50           2307        2586.00     11261.07
 1269.89        2961.75           2310        5781.00     25205.99
 1269.92        2962.00           2314       10616.00     46334.05
 1269.95        2962.25           2317       14556.00     63573.63
 1269.98        2962.50           2321       20183.00     88229.84
 1270.01        2962.75           2324       24004.00    104996.20
 1270.04        2963.00           2328       29161.00    127655.30
 1270.07        2963.25           2331       33528.00    146870.60
 1270.10        2963.50           2335       39939.00    175125.50
 1270.13        2963.75           2339       46010.00    201932.20
 1270.17        2964.00           2342       50697.00    222661.50
 1270.20        2964.25           2346       56627.00    248930.20
 1270.23        2964.50           2349       60620.00    266644.90
 1270.26        2964.75           2353       66011.00    290595.90
 1270.29        2965.00           2356       70723.00    311562.40
 1270.32        2965.25           2360       76517.00    337384.70
 1270.35        2965.50           2363       80849.00    356721.00
 1270.38        2965.75           2367       86305.00    381111.00
 1270.41        2966.00           2370       90489.00    399842.30
 1270.44        2966.25           2374       95629.00    422886.40
 1270.47        2966.50           2378       99236.00    439079.40
 1270.50        2966.75           2381      100179.00    443315.90
 1270.53        2967.00           2385      100730.00    445791.80
 1270.57        2967.25           2388      100650.00    445432.30
 1270.60        2967.50           2392      100571.00    445077.20
 1270.63        2967.75           2395      100499.00    444753.70
 1270.66        2968.00           2399       98443.00    435517.80
 1270.69        2968.25           2402       95558.00    422567.90
 1270.72        2968.50           2406       90779.00    401141.50
 1270.75        2968.75           2409       86526.00    382099.70
 1270.78        2969.00           2413       80402.00    354724.60
 1270.81        2969.25           2417       74098.00    326598.30
 1270.84        2969.50           2420       69176.00    304675.60
 1270.88        2969.75           2424       63652.00    280110.60
 1270.91        2970.00           2427       59791.00    262965.30
 1270.94        2970.25           2431       53692.00    235922.80
 1270.97        2970.50           2434       49135.00    215749.90
 1271.00        2970.75           2438       42623.00    186970.80
 1271.03        2971.00           2441       38302.00    167905.70
 1271.06        2971.25           2445       32409.00    141944.50
 1271.09        2971.50           2449       26731.00    116973.90
 1271.12        2971.75           2452       22680.00     99184.39
 1271.15        2972.00           2456       16411.00     71697.24
 1271.18        2972.25           2459       11869.00     51814.39
 1271.21        2972.50           2463        6473.00     28228.04
 1271.24        2972.75           2466        3252.00     14166.81
 1271.27        2973.00           2470        1022.00      4439.64
 1271.30        2973.25           2473         513.00      2220.31
 1271.33        2973.50           2477         408.00      1762.53
 1271.36        2973.75           2481         407.00      1758.17
 1271.40        2974.00           2484         408.00      1762.53
 1271.43        2974.25           2488         367.00      1583.78
 1271.46        2974.50           2491         374.00      1614.30
 1271.49        2974.75           2495         354.00      1527.11
 1271.52        2975.00           2498         355.00      1531.47
 1271.55        2975.25           2502         326.00      1405.04
 1271.58        2975.50           2505         317.00      1365.80
 1271.61        2975.75           2509         331.00      1426.83
 1271.64        2976.00           2512         347.00      1496.59
 1271.67        2976.25           2516         330.00      1422.48
 1271.70        2976.50           2520         326.00      1405.04
 1271.73        2976.75           2523         309.00      1330.92
 1271.76        2977.00           2527         296.00      1274.25
 1271.79        2977.25           2530         308.00      1326.56
 1271.82        2977.50           2534         288.00      1239.37
 1271.85        2977.75           2537         295.00      1269.89
 1271.88        2978.00           2541         291.00      1252.45
 1271.92        2978.25           2544         293.00      1261.17
 1271.95        2978.50           2548         286.00      1230.65
 1271.98        2978.75           2552         282.00      1213.21
 1272.01        2979.00           2555         281.00      1208.86
 1272.04        2979.25           2559         262.00      1126.02
 1272.07        2979.50           2562         307.00      1322.20
 1272.10        2979.75           2566         275.00      1182.70
 1272.13        2980.00           2569         296.00      1274.25
 1272.16        2980.25           2573         269.00      1156.54
 1272.19        2980.50           2577         261.00      1121.66
 1272.22        2980.75           2580         265.00      1139.10
 1272.25        2981.00           2584         264.00      1134.74
 1272.28        2981.25           2587         271.00      1165.26
 1272.31        2981.50           2591         247.00      1060.63
 1272.34        2981.75           2594         276.00      1187.06
 1272.37        2982.00           2598         255.00      1095.51
 1272.40        2982.25           2601         254.00      1091.15
 1272.43        2982.50           2605         264.00      1134.74
 1272.47        2982.75           2609         250.00      1073.71
 1272.50        2983.00           2612         244.00      1047.55
 1272.53        2983.25           2616         244.00      1047.55
 1272.56        2983.50           2619         249.00      1069.35
 1272.59        2983.75           2623         259.00      1112.95
 1272.62        2984.00           2626         261.00      1121.66
HS scan finished at 21:12:50
end
