************************************************************
  HS Scan of (1) Internal mercury lamp
************************************************************
Integration time is 0.2294 seconds per sample
dh130718Reading 51.44 .94 3.58pr1000
************************************************************
Dead Time -------------------------  3.4E-08 
Number of Cycles Used -------------  4 
Starting Wavelength (Angstroms) ---  2950 
Final Wavelength (Angstoms) -------  2984 
Wavelength Increment (Angstroms) --  .25 
Filter Wheel #1 Position ---------- (1) Ground quartz diffuser (ND=2.32)
Filter Wheel #2 Position ---------- (1) Neutral Density 0.494



************************************************************
HS scan start time = 01:13:40
Dark Count =  3.6 


Time (GMT)  Wavelength (Ang)  Step Number  Raw Counts  Counts/Second

   74.56        2950.00           2144          89.00       372.28
   74.75        2950.25           2147         110.00       463.83
   74.78        2950.50           2151          83.00       346.12
   74.81        2950.75           2155          84.00       350.48
   74.84        2951.00           2158          81.00       337.41
   74.87        2951.25           2162          83.00       346.12
   74.90        2951.50           2165          82.00       341.77
   74.93        2951.75           2169          87.00       363.56
   74.97        2952.00           2172          85.00       354.84
   75.00        2952.25           2176          80.00       333.05
   75.03        2952.50           2179          90.00       376.64
   75.06        2952.75           2183          91.00       381.00
   75.09        2953.00           2186          77.00       319.97
   75.12        2953.25           2190          85.00       354.84
   75.15        2953.50           2193          89.00       372.28
   75.18        2953.75           2197         106.00       446.39
   75.21        2954.00           2200          99.00       415.87
   75.24        2954.25           2204          88.00       367.92
   75.27        2954.50           2208          89.00       372.28
   75.30        2954.75           2211          98.00       411.51
   75.33        2955.00           2215          91.00       381.00
   75.36        2955.25           2218          97.00       407.15
   75.39        2955.50           2222          93.00       389.72
   75.42        2955.75           2225         116.00       489.98
   75.45        2956.00           2229         100.00       420.23
   75.48        2956.25           2232          96.00       402.80
   75.52        2956.50           2236         118.00       498.70
   75.55        2956.75           2239          98.00       411.51
   75.58        2957.00           2243         101.00       424.59
   75.61        2957.25           2246         106.00       446.39
   75.64        2957.50           2250         113.00       476.90
   75.67        2957.75           2254         108.00       455.11
   75.70        2958.00           2257         107.00       450.75
   75.73        2958.25           2261         114.00       481.26
   75.76        2958.50           2264         129.00       546.65
   75.79        2958.75           2268         129.00       546.65
   75.83        2959.00           2271         137.00       581.53
   75.86        2959.25           2275         124.00       524.86
   75.89        2959.50           2278         118.00       498.70
   75.92        2959.75           2282         118.00       498.70
   75.95        2960.00           2285         125.00       529.22
   75.99        2960.25           2289         125.00       529.22
   76.02        2960.50           2293         132.00       559.73
   76.05        2960.75           2296         150.00       638.20
   76.08        2961.00           2300         181.00       773.34
   76.11        2961.25           2303         440.00      1902.48
   76.14        2961.50           2307        1692.00      7361.91
   76.17        2961.75           2310        3018.00     13146.24
   76.20        2962.00           2314        4845.00     21119.78
   76.23        2962.25           2317        6625.00     28892.36
   76.26        2962.50           2321        8871.00     38705.66
   76.29        2962.75           2324       10385.00     45324.37
   76.32        2963.00           2328       12566.00     54864.24
   76.35        2963.25           2331       14039.00     61310.77
   76.38        2963.50           2335       16276.00     71106.32
   76.41        2963.75           2339       18597.00     81276.60
   76.44        2964.00           2342       20519.00     89703.88
   76.47        2964.25           2346       22966.00    100440.10
   76.51        2964.50           2349       24484.00    107104.20
   76.54        2964.75           2353       26699.00    116833.70
   76.57        2965.00           2356       28371.00    124182.30
   76.60        2965.25           2360       30386.00    133043.40
   76.63        2965.50           2363       32035.00    140298.90
   76.66        2965.75           2367       34446.00    150913.60
   76.69        2966.00           2370       35734.00    156587.30
   76.72        2966.25           2374       37335.00    163642.90
   76.75        2966.50           2378       39255.00    172108.80
   76.78        2966.75           2381       39644.00    173824.60
   76.81        2967.00           2385       39686.00    174009.90
   76.84        2967.25           2388       39555.00    173432.00
   76.87        2967.50           2392       39665.00    173917.30
   76.90        2967.75           2395       39018.00    171063.50
   76.93        2968.00           2399       37504.00    164387.90
   76.96        2968.25           2402       36021.00    157851.90
   76.99        2968.50           2406       34052.00    149178.50
   77.03        2968.75           2409       32260.00    141289.10
   77.06        2969.00           2413       30046.00    131547.80
   77.09        2969.25           2417       27720.00    121320.70
   77.12        2969.50           2420       25957.00    113573.70
   77.15        2969.75           2424       23702.00    103670.80
   77.18        2970.00           2427       22057.00     96450.91
   77.21        2970.25           2431       19667.00     85967.56
   77.24        2970.50           2434       17943.00     78410.16
   77.27        2970.75           2438       15283.00     66757.28
   77.30        2971.00           2441       13628.00     59511.76
   77.33        2971.25           2445       11385.00     49697.68
   77.36        2971.50           2449        9242.00     40327.27
   77.39        2971.75           2452        7524.00     32819.52
   77.42        2972.00           2456        5392.00     23507.88
   77.45        2972.25           2459        3852.00     16785.52
   77.48        2972.50           2463        1961.00      8535.17
   77.51        2972.75           2466         842.00      3655.21
   77.55        2973.00           2470         272.00      1170.06
   77.58        2973.25           2473         172.00       734.11
   77.61        2973.50           2477         151.00       642.56
   77.64        2973.75           2481         150.00       638.20
   77.67        2974.00           2484         138.00       585.89
   77.70        2974.25           2488         134.00       568.45
   77.73        2974.50           2491         146.00       620.76
   77.76        2974.75           2495         127.00       537.93
   77.79        2975.00           2498         125.00       529.22
   77.82        2975.25           2502         118.00       498.70
   77.85        2975.50           2505         128.00       542.29
   77.88        2975.75           2509         136.00       577.17
   77.91        2976.00           2512         110.00       463.83
   77.94        2976.25           2516         107.00       450.75
   77.97        2976.50           2520         105.00       442.03
   78.00        2976.75           2523         105.00       442.03
   78.03        2977.00           2527         107.00       450.75
   78.07        2977.25           2530         101.00       424.59
   78.10        2977.50           2534         102.00       428.95
   78.13        2977.75           2537          92.00       385.36
   78.16        2978.00           2541         104.00       437.67
   78.19        2978.25           2544          97.00       407.15
   78.22        2978.50           2548          96.00       402.80
   78.25        2978.75           2552          88.00       367.92
   78.28        2979.00           2555          89.00       372.28
   78.31        2979.25           2559          97.00       407.15
   78.34        2979.50           2562          99.00       415.87
   78.37        2979.75           2566          91.00       381.00
   78.40        2980.00           2569          90.00       376.64
   78.43        2980.25           2573          99.00       415.87
   78.46        2980.50           2577          87.00       363.56
   78.49        2980.75           2580          92.00       385.36
   78.52        2981.00           2584          92.00       385.36
   78.55        2981.25           2587          84.00       350.48
   78.59        2981.50           2591          91.00       381.00
   78.62        2981.75           2594          90.00       376.64
   78.65        2982.00           2598          86.00       359.20
   78.68        2982.25           2601          90.00       376.64
   78.71        2982.50           2605          87.00       363.56
   78.74        2982.75           2609          89.00       372.28
   78.77        2983.00           2612          84.00       350.48
   78.80        2983.25           2616          88.00       367.92
   78.83        2983.50           2619          76.00       315.61
   78.86        2983.75           2623          89.00       372.28
   78.89        2984.00           2626          90.00       376.64
HS scan finished at 01:19:07
end
************************************************************
  HS Scan of (1) Internal mercury lamp
************************************************************
Integration time is 0.2294 seconds per sample
dh130718Reading 51.44 .94 3.82pr1000
************************************************************
Dead Time -------------------------  3.4E-08 
Number of Cycles Used -------------  4 
Starting Wavelength (Angstroms) ---  2950 
Final Wavelength (Angstoms) -------  2984 
Wavelength Increment (Angstroms) --  .25 
Filter Wheel #1 Position ---------- (1) Ground quartz diffuser (ND=2.32)
Filter Wheel #2 Position ---------- (1) Neutral Density 0.494



************************************************************
HS scan start time = 21:07:32
Dark Count =  5.6 


Time (GMT)  Wavelength (Ang)  Step Number  Raw Counts  Counts/Second

 1268.43        2950.00           2144          45.00       171.75
 1268.62        2950.25           2147          50.00       193.55
 1268.65        2950.50           2151          59.00       232.78
 1268.68        2950.75           2155          53.00       206.63
 1268.71        2951.00           2158          49.00       189.19
 1268.74        2951.25           2162          50.00       193.55
 1268.77        2951.50           2165          51.00       197.91
 1268.80        2951.75           2169          56.00       219.71
 1268.83        2952.00           2172          67.00       267.66
 1268.86        2952.25           2176          47.00       180.47
 1268.89        2952.50           2179          61.00       241.50
 1268.92        2952.75           2183          52.00       202.27
 1268.96        2953.00           2186          58.00       228.42
 1268.99        2953.25           2190          55.00       215.35
 1269.02        2953.50           2193          57.00       224.06
 1269.05        2953.75           2197          60.00       237.14
 1269.08        2954.00           2200          56.00       219.71
 1269.11        2954.25           2204          49.00       189.19
 1269.14        2954.50           2208          59.00       232.78
 1269.17        2954.75           2211          57.00       224.06
 1269.20        2955.00           2215          57.00       224.06
 1269.23        2955.25           2218          57.00       224.06
 1269.26        2955.50           2222          55.00       215.35
 1269.29        2955.75           2225          55.00       215.35
 1269.32        2956.00           2229          62.00       245.86
 1269.35        2956.25           2232          57.00       224.06
 1269.38        2956.50           2236          63.00       250.22
 1269.41        2956.75           2239          63.00       250.22
 1269.44        2957.00           2243          64.00       254.58
 1269.48        2957.25           2246          70.00       280.74
 1269.51        2957.50           2250          65.00       258.94
 1269.54        2957.75           2254          71.00       285.09
 1269.57        2958.00           2257          60.00       237.14
 1269.60        2958.25           2261          65.00       258.94
 1269.63        2958.50           2264          69.00       276.38
 1269.66        2958.75           2268          69.00       276.38
 1269.69        2959.00           2271          73.00       293.81
 1269.72        2959.25           2275          80.00       324.33
 1269.75        2959.50           2278          77.00       311.25
 1269.78        2959.75           2282          73.00       293.81
 1269.81        2960.00           2285          77.00       311.25
 1269.84        2960.25           2289          81.00       328.69
 1269.87        2960.50           2293          84.00       341.77
 1269.90        2960.75           2296          88.00       359.20
 1269.93        2961.00           2300         136.00       568.45
 1269.96        2961.25           2303         287.00      1226.73
 1270.00        2961.50           2307        1055.00      4575.25
 1270.03        2961.75           2310        1838.00      7989.96
 1270.06        2962.00           2314        2964.00     12901.91
 1270.09        2962.25           2317        3936.00     17143.38
 1270.12        2962.50           2321        5250.00     22879.17
 1270.15        2962.75           2324        6275.00     27354.99
 1270.18        2963.00           2328        7737.00     33741.39
 1270.21        2963.25           2331        8742.00     38133.11
 1270.24        2963.50           2335        9982.00     43553.55
 1270.27        2963.75           2339       11349.00     49531.48
 1270.30        2964.00           2342       12435.00     54282.31
 1270.33        2964.25           2346       13842.00     60439.69
 1270.36        2964.50           2349       14712.00     64248.31
 1270.39        2964.75           2353       16000.00     69888.63
 1270.42        2965.00           2356       17114.00     74768.74
 1270.45        2965.25           2360       18133.00     79234.10
 1270.49        2965.50           2363       19227.00     84029.62
 1270.52        2965.75           2367       20668.00     90348.60
 1270.55        2966.00           2370       21488.00     93945.63
 1270.58        2966.25           2374       22813.00     99759.78
 1270.61        2966.50           2378       23012.00    100633.20
 1270.64        2966.75           2381       23198.00    101449.60
 1270.67        2967.00           2385       23216.00    101528.60
 1270.70        2967.25           2388       23106.00    101045.80
 1270.73        2967.50           2392       23208.00    101493.50
 1270.76        2967.75           2395       23061.00    100848.30
 1270.79        2968.00           2399       22305.00     97530.38
 1270.82        2968.25           2402       21659.00     94695.86
 1270.85        2968.50           2406       20214.00     88357.47
 1270.88        2968.75           2409       19204.00     83928.79
 1270.91        2969.00           2413       17934.00     78361.96
 1270.94        2969.25           2417       16788.00     73340.46
 1270.97        2969.50           2420       15723.00     68675.43
 1271.00        2969.75           2424       14500.00     63320.14
 1271.04        2970.00           2427       13481.00     58859.61
 1271.07        2970.25           2431       11989.00     52331.05
 1271.10        2970.50           2434       10901.00     47572.09
 1271.13        2970.75           2438        9497.00     41433.22
 1271.16        2971.00           2441        8498.00     37066.74
 1271.19        2971.25           2445        7020.00     30609.00
 1271.22        2971.50           2449        5555.00     24210.86
 1271.25        2971.75           2452        4461.00     19434.81
 1271.28        2972.00           2456        3149.00     13709.09
 1271.31        2972.25           2459        2148.00      9342.11
 1271.34        2972.50           2463        1222.00      5303.49
 1271.37        2972.75           2466         560.00      2416.94
 1271.40        2973.00           2470         176.00       742.83
 1271.43        2973.25           2473         113.00       468.19
 1271.46        2973.50           2477          85.00       346.12
 1271.49        2973.75           2481          87.00       354.84
 1271.52        2974.00           2484          87.00       354.84
 1271.56        2974.25           2488          85.00       346.12
 1271.59        2974.50           2491          77.00       311.25
 1271.62        2974.75           2495          78.00       315.61
 1271.65        2975.00           2498          72.00       289.45
 1271.68        2975.25           2502          78.00       315.61
 1271.71        2975.50           2505          80.00       324.33
 1271.74        2975.75           2509          79.00       319.97
 1271.77        2976.00           2512          73.00       293.81
 1271.80        2976.25           2516          67.00       267.66
 1271.83        2976.50           2520          66.00       263.30
 1271.86        2976.75           2523          68.00       272.02
 1271.89        2977.00           2527          68.00       272.02
 1271.92        2977.25           2530          65.00       258.94
 1271.95        2977.50           2534          68.00       272.02
 1271.98        2977.75           2537          65.00       258.94
 1272.01        2978.00           2541          66.00       263.30
 1272.04        2978.25           2544          64.00       254.58
 1272.08        2978.50           2548          61.00       241.50
 1272.11        2978.75           2552          64.00       254.58
 1272.14        2979.00           2555          60.00       237.14
 1272.17        2979.25           2559          57.00       224.06
 1272.20        2979.50           2562          60.00       237.14
 1272.23        2979.75           2566          61.00       241.50
 1272.26        2980.00           2569          55.00       215.35
 1272.29        2980.25           2573          56.00       219.71
 1272.32        2980.50           2577          62.00       245.86
 1272.35        2980.75           2580          56.00       219.71
 1272.38        2981.00           2584          54.00       210.99
 1272.41        2981.25           2587          52.00       202.27
 1272.45        2981.50           2591          50.00       193.55
 1272.48        2981.75           2594          63.00       250.22
 1272.51        2982.00           2598          56.00       219.71
 1272.54        2982.25           2601          62.00       245.86
 1272.57        2982.50           2605          55.00       215.35
 1272.60        2982.75           2609          48.00       184.83
 1272.63        2983.00           2612          64.00       254.58
 1272.66        2983.25           2616          49.00       189.19
 1272.69        2983.50           2619          54.00       210.99
 1272.72        2983.75           2623          59.00       232.78
 1272.75        2984.00           2626          53.00       206.63
HS scan finished at 21:12:59
end
