************************************************************
  HS Scan of (1) Internal mercury lamp
************************************************************
Integration time is 0.2294 seconds per sample
dh120718Reading 51.44 .94 3.54pr1000
************************************************************
Dead Time -------------------------  3.4E-08 
Number of Cycles Used -------------  4 
Starting Wavelength (Angstroms) ---  2950 
Final Wavelength (Angstoms) -------  2984 
Wavelength Increment (Angstroms) --  .25 
Filter Wheel #1 Position ---------- (1) Ground quartz diffuser (ND=2.32)
Filter Wheel #2 Position ---------- (1) Neutral Density 0.494



************************************************************
HS scan start time = 01:35:41
Dark Count =  2.4 


Time (GMT)  Wavelength (Ang)  Step Number  Raw Counts  Counts/Second

   96.59        2950.00           2144          78.00       329.56
   96.78        2950.25           2147          93.00       394.95
   96.81        2950.50           2151          80.00       338.28
   96.84        2950.75           2155          84.00       355.71
   96.87        2951.00           2158          80.00       338.28
   96.91        2951.25           2162          82.00       347.00
   96.95        2951.50           2165          82.00       347.00
   96.98        2951.75           2169          89.00       377.51
   97.01        2952.00           2172         101.00       429.82
   97.04        2952.25           2176          83.00       351.36
   97.07        2952.50           2179          86.00       364.43
   97.10        2952.75           2183          94.00       399.31
   97.13        2953.00           2186          87.00       368.79
   97.16        2953.25           2190          88.00       373.15
   97.19        2953.50           2193          94.00       399.31
   97.22        2953.75           2197          97.00       412.39
   97.25        2954.00           2200          87.00       368.79
   97.29        2954.25           2204         104.00       442.90
   97.32        2954.50           2208          89.00       377.51
   97.35        2954.75           2211          94.00       399.31
   97.38        2955.00           2215          93.00       394.95
   97.41        2955.25           2218          99.00       421.10
   97.44        2955.50           2222          91.00       386.23
   97.47        2955.75           2225         100.00       425.46
   97.50        2956.00           2229          99.00       421.10
   97.53        2956.25           2232         117.00       499.57
   97.56        2956.50           2236         110.00       469.06
   97.59        2956.75           2239         114.00       486.49
   97.62        2957.00           2243         119.00       508.29
   97.65        2957.25           2246          99.00       421.10
   97.68        2957.50           2250         109.00       464.70
   97.71        2957.75           2254         110.00       469.06
   97.74        2958.00           2257         100.00       425.46
   97.77        2958.25           2261         109.00       464.70
   97.81        2958.50           2264         112.00       477.78
   97.84        2958.75           2268         106.00       451.62
   97.87        2959.00           2271         112.00       477.78
   97.90        2959.25           2275         116.00       495.21
   97.93        2959.50           2278         118.00       503.93
   97.96        2959.75           2282         149.00       639.07
   97.99        2960.00           2285         133.00       569.32
   98.02        2960.25           2289         120.00       512.65
   98.05        2960.50           2293         137.00       586.76
   98.08        2960.75           2296         133.00       569.32
   98.11        2961.00           2300         159.00       682.67
   98.14        2961.25           2303         330.00      1428.14
   98.17        2961.50           2307        1306.00      5683.75
   98.20        2961.75           2310        2737.00     11925.50
   98.23        2962.00           2314        4860.00     21190.50
   98.26        2962.25           2317        6622.00     28884.50
   98.29        2962.50           2321        8920.00     38925.06
   98.33        2962.75           2324       10451.00     45618.22
   98.36        2963.00           2328       13080.00     57118.67
   98.39        2963.25           2331       15172.00     66276.47
   98.42        2963.50           2335       17711.00     77398.70
   98.45        2963.75           2339       20109.00     87911.02
   98.48        2964.00           2342       21800.00     95328.53
   98.51        2964.25           2346       24317.00    106376.20
   98.54        2964.50           2349       26036.00    113926.10
   98.57        2964.75           2353       28183.00    123361.10
   98.60        2965.00           2356       29906.00    130937.30
   98.63        2965.25           2360       32073.00    140471.40
   98.66        2965.50           2363       33845.00    148272.20
   98.69        2965.75           2367       36085.00    158139.20
   98.72        2966.00           2370       37710.00    165301.40
   98.75        2966.25           2374       39482.00    173115.40
   98.78        2966.50           2378       40187.00    176225.40
   98.81        2966.75           2381       40408.00    177200.40
   98.85        2967.00           2385       40404.00    177182.80
   98.88        2967.25           2388       40248.00    176494.50
   98.91        2967.50           2392       39986.00    175338.60
   98.94        2967.75           2395       39738.00    174244.60
   98.97        2968.00           2399       38480.00    168696.30
   99.00        2968.25           2402       37138.00    162779.90
   99.03        2968.50           2406       34951.00    153143.20
   99.06        2968.75           2409       33291.00    145832.90
   99.09        2969.00           2413       30667.00    134284.80
   99.12        2969.25           2417       28497.00    124741.50
   99.15        2969.50           2420       26957.00    117972.70
   99.18        2969.75           2424       24326.00    106415.70
   99.21        2970.00           2427       22492.00     98365.04
   99.24        2970.25           2431       20371.00     89060.03
   99.27        2970.50           2434       18578.00     81198.58
   99.30        2970.75           2438       16156.00     70585.94
   99.33        2971.00           2441       14116.00     61653.08
   99.36        2971.25           2445       11637.00     50805.21
   99.40        2971.50           2449        9308.00     40621.02
   99.43        2971.75           2452        7778.00     33934.51
   99.46        2972.00           2456        5630.00     24552.31
   99.49        2972.25           2459        3939.00     17170.44
   99.52        2972.50           2463        1930.00      8405.19
   99.55        2972.75           2466         836.00      3634.28
   99.58        2973.00           2470         275.00      1188.37
   99.61        2973.25           2473         188.00       809.09
   99.64        2973.50           2477         153.00       656.51
   99.67        2973.75           2481         151.00       647.79
   99.70        2974.00           2484         135.00       578.04
   99.73        2974.25           2488         123.00       525.73
   99.76        2974.50           2491         140.00       599.84
   99.79        2974.75           2495         149.00       639.07
   99.82        2975.00           2498         129.00       551.88
   99.85        2975.25           2502         158.00       678.31
   99.88        2975.50           2505         116.00       495.21
   99.92        2975.75           2509         121.00       517.01
   99.95        2976.00           2512         138.00       591.12
   99.98        2976.25           2516         138.00       591.12
  100.01        2976.50           2520         140.00       599.84
  100.04        2976.75           2523         128.00       547.53
  100.07        2977.00           2527         109.00       464.70
  100.10        2977.25           2530         131.00       560.60
  100.13        2977.50           2534         109.00       464.70
  100.16        2977.75           2537         115.00       490.85
  100.19        2978.00           2541         124.00       530.09
  100.22        2978.25           2544         142.00       608.56
  100.25        2978.50           2548         103.00       438.54
  100.28        2978.75           2552         111.00       473.42
  100.31        2979.00           2555         121.00       517.01
  100.34        2979.25           2559         100.00       425.46
  100.37        2979.50           2562          96.00       408.03
  100.40        2979.75           2566         103.00       438.54
  100.44        2980.00           2569          98.00       416.75
  100.47        2980.25           2573          86.00       364.43
  100.50        2980.50           2577          90.00       381.87
  100.53        2980.75           2580          99.00       421.10
  100.56        2981.00           2584          96.00       408.03
  100.59        2981.25           2587         111.00       473.42
  100.62        2981.50           2591          93.00       394.95
  100.65        2981.75           2594         110.00       469.06
  100.68        2982.00           2598          97.00       412.39
  100.71        2982.25           2601          91.00       386.23
  100.74        2982.50           2605          95.00       403.67
  100.77        2982.75           2609          84.00       355.71
  100.80        2983.00           2612          92.00       390.59
  100.83        2983.25           2616          91.00       386.23
  100.86        2983.50           2619          90.00       381.87
  100.89        2983.75           2623          90.00       381.87
  100.92        2984.00           2626          89.00       377.51
HS scan finished at 01:41:09
end
************************************************************
  HS Scan of (1) Internal mercury lamp
************************************************************
Integration time is 0.2294 seconds per sample
dh120718Reading 51.44 .94 3.94pr1000
************************************************************
Dead Time -------------------------  3.4E-08 
Number of Cycles Used -------------  4 
Starting Wavelength (Angstroms) ---  2950 
Final Wavelength (Angstoms) -------  2984 
Wavelength Increment (Angstroms) --  .25 
Filter Wheel #1 Position ---------- (1) Ground quartz diffuser (ND=2.32)
Filter Wheel #2 Position ---------- (1) Neutral Density 0.494



************************************************************
HS scan start time = 21:07:27
Dark Count =  7.5 


Time (GMT)  Wavelength (Ang)  Step Number  Raw Counts  Counts/Second

 1268.35        2950.00           2144          66.00       255.02
 1268.54        2950.25           2147          63.00       241.94
 1268.57        2950.50           2151          66.00       255.02
 1268.60        2950.75           2155          59.00       224.50
 1268.63        2951.00           2158          60.00       228.86
 1268.66        2951.25           2162          71.00       276.81
 1268.69        2951.50           2165          66.00       255.02
 1268.72        2951.75           2169          66.00       255.02
 1268.75        2952.00           2172          71.00       276.81
 1268.78        2952.25           2176          72.00       281.17
 1268.81        2952.50           2179          68.00       263.73
 1268.85        2952.75           2183          75.00       294.25
 1268.88        2953.00           2186          65.00       250.66
 1268.91        2953.25           2190          65.00       250.66
 1268.94        2953.50           2193          72.00       281.17
 1268.97        2953.75           2197          71.00       276.81
 1269.00        2954.00           2200          73.00       285.53
 1269.03        2954.25           2204          79.00       311.69
 1269.06        2954.50           2208          78.00       307.33
 1269.09        2954.75           2211          70.00       272.45
 1269.12        2955.00           2215          80.00       316.05
 1269.15        2955.25           2218          84.00       333.48
 1269.18        2955.50           2222          71.00       276.81
 1269.21        2955.75           2225          77.00       302.97
 1269.24        2956.00           2229          79.00       311.69
 1269.27        2956.25           2232          85.00       337.84
 1269.30        2956.50           2236          82.00       324.76
 1269.33        2956.75           2239          83.00       329.12
 1269.37        2957.00           2243          78.00       307.33
 1269.40        2957.25           2246          82.00       324.76
 1269.43        2957.50           2250          84.00       333.48
 1269.46        2957.75           2254          93.00       372.72
 1269.49        2958.00           2257          90.00       359.64
 1269.52        2958.25           2261          90.00       359.64
 1269.55        2958.50           2264          85.00       337.84
 1269.58        2958.75           2268          84.00       333.48
 1269.61        2959.00           2271          97.00       390.15
 1269.64        2959.25           2275          98.00       394.51
 1269.67        2959.50           2278         100.00       403.23
 1269.70        2959.75           2282         102.00       411.95
 1269.73        2960.00           2285          94.00       377.08
 1269.76        2960.25           2289         102.00       411.95
 1269.79        2960.50           2293         113.00       459.90
 1269.82        2960.75           2296         125.00       512.21
 1269.85        2961.00           2300         158.00       656.07
 1269.89        2961.25           2303         282.00      1196.65
 1269.92        2961.50           2307        1051.00      4549.53
 1269.95        2961.75           2310        2094.00      9098.28
 1269.98        2962.00           2314        3688.00     16052.79
 1270.01        2962.25           2317        4953.00     21574.24
 1270.04        2962.50           2321        6568.00     28626.37
 1270.07        2962.75           2324        7650.00     33352.97
 1270.10        2963.00           2328        9340.00     40738.60
 1270.13        2963.25           2331       10691.00     46645.41
 1270.16        2963.50           2335       12335.00     53836.47
 1270.19        2963.75           2339       14388.00     62821.49
 1270.22        2964.00           2342       15710.00     68610.16
 1270.25        2964.25           2346       17345.00     75772.55
 1270.28        2964.50           2349       18806.00     82175.66
 1270.31        2964.75           2353       20544.00     89796.41
 1270.36        2965.00           2356       21606.00     94454.99
 1270.39        2965.25           2360       23585.00    103140.00
 1270.42        2965.50           2363       24950.00    109133.50
 1270.45        2965.75           2367       26639.00    116552.90
 1270.48        2966.00           2370       27575.00    120666.20
 1270.51        2966.25           2374       29031.00    127067.00
 1270.54        2966.50           2378       29869.00    130752.20
 1270.57        2966.75           2381       29952.00    131117.20
 1270.60        2967.00           2385       30150.00    131988.10
 1270.63        2967.25           2388       29871.00    130761.00
 1270.67        2967.50           2392       29325.00    128359.80
 1270.70        2967.75           2395       28889.00    126442.60
 1270.73        2968.00           2399       27766.00    121505.70
 1270.76        2968.25           2402       26833.00    117405.40
 1270.79        2968.50           2406       25600.00    111988.40
 1270.82        2968.75           2409       24465.00    107003.70
 1270.85        2969.00           2413       22486.00     98316.34
 1270.88        2969.25           2417       20703.00     90493.79
 1270.91        2969.50           2420       19427.00     84898.16
 1270.94        2969.75           2424       17598.00     76881.18
 1270.97        2970.00           2427       16205.00     70778.23
 1271.00        2970.25           2431       14443.00     63062.27
 1271.03        2970.50           2434       13135.00     57337.04
 1271.06        2970.75           2438       11472.00     50061.16
 1271.09        2971.00           2441       10381.00     45289.83
 1271.12        2971.25           2445        8702.00     37949.99
 1271.15        2971.50           2449        7326.00     31937.45
 1271.19        2971.75           2452        6100.00     26582.43
 1271.22        2972.00           2456        4426.00     19273.74
 1271.25        2972.25           2459        3162.00     13757.52
 1271.28        2972.50           2463        1645.00      7139.92
 1271.31        2972.75           2466         790.00      3411.47
 1271.34        2973.00           2470         252.00      1065.86
 1271.37        2973.25           2473         144.00       595.04
 1271.40        2973.50           2477         131.00       538.37
 1271.43        2973.75           2481         115.00       468.62
 1271.46        2974.00           2484         132.00       542.73
 1271.49        2974.25           2488         127.00       520.93
 1271.52        2974.50           2491          97.00       390.15
 1271.55        2974.75           2495         102.00       411.95
 1271.58        2975.00           2498          95.00       381.43
 1271.61        2975.25           2502          97.00       390.15
 1271.64        2975.50           2505          93.00       372.72
 1271.67        2975.75           2509          96.00       385.79
 1271.71        2976.00           2512          95.00       381.43
 1271.74        2976.25           2516          89.00       355.28
 1271.77        2976.50           2520          84.00       333.48
 1271.80        2976.75           2523          95.00       381.43
 1271.83        2977.00           2527          78.00       307.33
 1271.86        2977.25           2530          93.00       372.72
 1271.89        2977.50           2534          84.00       333.48
 1271.92        2977.75           2537          72.00       281.17
 1271.95        2978.00           2541          85.00       337.84
 1271.98        2978.25           2544          79.00       311.69
 1272.01        2978.50           2548          84.00       333.48
 1272.04        2978.75           2552          81.00       320.40
 1272.07        2979.00           2555          78.00       307.33
 1272.10        2979.25           2559          74.00       289.89
 1272.13        2979.50           2562          80.00       316.05
 1272.16        2979.75           2566          83.00       329.12
 1272.19        2980.00           2569          69.00       268.09
 1272.22        2980.25           2573          76.00       298.61
 1272.26        2980.50           2577          69.00       268.09
 1272.29        2980.75           2580          68.00       263.73
 1272.32        2981.00           2584          78.00       307.33
 1272.35        2981.25           2587          76.00       298.61
 1272.38        2981.50           2591          80.00       316.05
 1272.41        2981.75           2594          81.00       320.40
 1272.44        2982.00           2598          71.00       276.81
 1272.47        2982.25           2601          73.00       285.53
 1272.50        2982.50           2605          75.00       294.25
 1272.53        2982.75           2609          72.00       281.17
 1272.56        2983.00           2612          71.00       276.81
 1272.59        2983.25           2616          67.00       259.37
 1272.62        2983.50           2619          70.00       272.45
 1272.65        2983.75           2623          66.00       255.02
 1272.68        2984.00           2626          69.00       268.09
HS scan finished at 21:12:54
end
