************************************************************
  HS Scan of (1) Internal mercury lamp
************************************************************
Integration time is 0.2294 seconds per sample
dh170718Reading 51.44 .94 3.45pr1000
************************************************************
Dead Time -------------------------  3.4E-08 
Number of Cycles Used -------------  4 
Starting Wavelength (Angstroms) ---  2950 
Final Wavelength (Angstoms) -------  2984 
Wavelength Increment (Angstroms) --  .25 
Filter Wheel #1 Position ---------- (1) Ground quartz diffuser (ND=2.32)
Filter Wheel #2 Position ---------- (1) Neutral Density 0.494



************************************************************
HS scan start time = 01:22:10
Dark Count =  2.6 


Time (GMT)  Wavelength (Ang)  Step Number  Raw Counts  Counts/Second

   83.06        2950.00           2144          84.00       354.84
   83.25        2950.25           2147          72.00       302.53
   83.28        2950.50           2151          90.00       381.00
   83.32        2950.75           2155          82.00       346.12
   83.35        2951.00           2158          80.00       337.41
   83.38        2951.25           2162          81.00       341.77
   83.41        2951.50           2165          83.00       350.48
   83.44        2951.75           2169          82.00       346.12
   83.47        2952.00           2172          81.00       341.77
   83.50        2952.25           2176          85.00       359.20
   83.53        2952.50           2179          87.00       367.92
   83.56        2952.75           2183          80.00       337.41
   83.59        2953.00           2186          84.00       354.84
   83.62        2953.25           2190          93.00       394.08
   83.65        2953.50           2193          92.00       389.72
   83.68        2953.75           2197          88.00       372.28
   83.71        2954.00           2200          86.00       363.56
   83.74        2954.25           2204          85.00       359.20
   83.77        2954.50           2208          83.00       350.48
   83.80        2954.75           2211          91.00       385.36
   83.84        2955.00           2215          88.00       372.28
   83.87        2955.25           2218          93.00       394.08
   83.90        2955.50           2222          90.00       381.00
   83.93        2955.75           2225          91.00       385.36
   83.96        2956.00           2229         100.00       424.59
   83.99        2956.25           2232          86.00       363.56
   84.02        2956.50           2236         102.00       433.31
   84.05        2956.75           2239         108.00       459.47
   84.08        2957.00           2243         116.00       494.34
   84.11        2957.25           2246          93.00       394.08
   84.14        2957.50           2250          93.00       394.08
   84.17        2957.75           2254         101.00       428.95
   84.20        2958.00           2257         126.00       537.93
   84.23        2958.25           2261          90.00       381.00
   84.26        2958.50           2264         100.00       424.59
   84.29        2958.75           2268         186.00       799.50
   84.32        2959.00           2271         110.00       468.19
   84.36        2959.25           2275         127.00       542.29
   84.39        2959.50           2278         132.00       564.09
   84.42        2959.75           2282         149.00       638.20
   84.45        2960.00           2285         159.00       681.79
   84.48        2960.25           2289         140.00       598.97
   84.51        2960.50           2293         138.00       590.25
   84.54        2960.75           2296         146.00       625.12
   84.57        2961.00           2300         167.00       716.67
   84.60        2961.25           2303         389.00      1684.49
   84.63        2961.50           2307        1423.00      6193.11
   84.66        2961.75           2310        2704.00     11780.66
   84.69        2962.00           2314        4590.00     20010.99
   84.72        2962.25           2317        6161.00     26870.22
   84.75        2962.50           2321        8204.00     35795.06
   84.78        2962.75           2324        9683.00     42259.46
   84.81        2963.00           2328       11587.00     50585.62
   84.84        2963.25           2331       13458.00     58772.08
   84.87        2963.50           2335       15981.00     69818.55
   84.91        2963.75           2339       18273.00     79860.85
   84.94        2964.00           2342       20160.00     88133.81
   84.97        2964.25           2346       22396.00     97942.88
   85.00        2964.50           2349       23838.00    104272.30
   85.03        2964.75           2353       26046.00    113969.10
   85.06        2965.00           2356       27953.00    122349.20
   85.09        2965.25           2360       30215.00    132295.60
   85.12        2965.50           2363       31881.00    139625.50
   85.15        2965.75           2367       34133.00    149539.60
   85.18        2966.00           2370       35221.00    154331.70
   85.21        2966.25           2374       37420.00    164022.00
   85.24        2966.50           2378       38611.00    169273.10
   85.27        2966.75           2381       38943.00    170737.20
   85.30        2967.00           2385       38672.00    169542.10
   85.33        2967.25           2388       38904.00    170565.20
   85.36        2967.50           2392       38729.00    169793.40
   85.39        2967.75           2395       38538.00    168951.20
   85.43        2968.00           2399       37461.00    164202.80
   85.46        2968.25           2402       36419.00    159610.10
   85.49        2968.50           2406       34245.00    150032.80
   85.52        2968.75           2409       32550.00    142570.00
   85.55        2969.00           2413       30112.00    131842.50
   85.58        2969.25           2417       27676.00    121131.70
   85.61        2969.50           2420       25952.00    113556.20
   85.64        2969.75           2424       23923.00    104645.40
   85.67        2970.00           2427       22386.00     97899.00
   85.70        2970.25           2431       19970.00     87300.59
   85.73        2970.50           2434       18127.00     79220.95
   85.76        2970.75           2438       15753.00     68819.96
   85.79        2971.00           2441       14116.00     61652.20
   85.82        2971.25           2445       11803.00     51530.49
   85.85        2971.50           2449        9509.00     41498.79
   85.88        2971.75           2452        7944.00     34658.95
   85.91        2972.00           2456        5872.00     25608.17
   85.95        2972.25           2459        4204.00     18326.15
   85.98        2972.50           2463        2090.00      9102.21
   86.01        2972.75           2466         918.00      3990.95
   86.04        2973.00           2470         283.00      1222.37
   86.07        2973.25           2473         187.00       803.86
   86.10        2973.50           2477         149.00       638.20
   86.13        2973.75           2481         155.00       664.36
   86.16        2974.00           2484         147.00       629.48
   86.19        2974.25           2488         152.00       651.28
   86.22        2974.50           2491         122.00       520.50
   86.25        2974.75           2495         140.00       598.97
   86.28        2975.00           2498         123.00       524.86
   86.31        2975.25           2502         123.00       524.86
   86.34        2975.50           2505         115.00       489.98
   86.37        2975.75           2509         128.00       546.65
   86.40        2976.00           2512         107.00       455.11
   86.43        2976.25           2516         111.00       472.54
   86.47        2976.50           2520         121.00       516.14
   86.50        2976.75           2523         109.00       463.83
   86.53        2977.00           2527         103.00       437.67
   86.56        2977.25           2530         130.00       555.37
   86.59        2977.50           2534         101.00       428.95
   86.62        2977.75           2537         109.00       463.83
   86.65        2978.00           2541         101.00       428.95
   86.68        2978.25           2544         101.00       428.95
   86.71        2978.50           2548          94.00       398.44
   86.74        2978.75           2552          87.00       367.92
   86.77        2979.00           2555         103.00       437.67
   86.80        2979.25           2559          95.00       402.80
   86.83        2979.50           2562          93.00       394.08
   86.86        2979.75           2566          81.00       341.77
   86.89        2980.00           2569          93.00       394.08
   86.92        2980.25           2573          87.00       367.92
   86.96        2980.50           2577          94.00       398.44
   86.99        2980.75           2580          98.00       415.87
   87.02        2981.00           2584          90.00       381.00
   87.05        2981.25           2587          94.00       398.44
   87.08        2981.50           2591          86.00       363.56
   87.11        2981.75           2594          86.00       363.56
   87.14        2982.00           2598          84.00       354.84
   87.17        2982.25           2601          84.00       354.84
   87.20        2982.50           2605          82.00       346.12
   87.23        2982.75           2609          82.00       346.12
   87.26        2983.00           2612          84.00       354.84
   87.29        2983.25           2616          77.00       324.33
   87.32        2983.50           2619          84.00       354.84
   87.35        2983.75           2623          87.00       367.92
   87.38        2984.00           2626          88.00       372.28
HS scan finished at 01:27:36
end
************************************************************
  HS Scan of (1) Internal mercury lamp
************************************************************
Integration time is 0.2294 seconds per sample
dh170718Reading 51.44 .94 3.76pr1000
************************************************************
Dead Time -------------------------  3.4E-08 
Number of Cycles Used -------------  4 
Starting Wavelength (Angstroms) ---  2950 
Final Wavelength (Angstoms) -------  2984 
Wavelength Increment (Angstroms) --  .25 
Filter Wheel #1 Position ---------- (1) Ground quartz diffuser (ND=2.32)
Filter Wheel #2 Position ---------- (1) Neutral Density 0.494



************************************************************
HS scan start time = 21:07:29
Dark Count =  5.1 


Time (GMT)  Wavelength (Ang)  Step Number  Raw Counts  Counts/Second

 1268.38        2950.00           2144          47.00       182.65
 1268.57        2950.25           2147          50.00       195.73
 1268.60        2950.50           2151          51.00       200.09
 1268.63        2950.75           2155          51.00       200.09
 1268.66        2951.00           2158          56.00       221.88
 1268.69        2951.25           2162          51.00       200.09
 1268.72        2951.50           2165          51.00       200.09
 1268.76        2951.75           2169          40.00       152.14
 1268.79        2952.00           2172          47.00       182.65
 1268.82        2952.25           2176          47.00       182.65
 1268.85        2952.50           2179          50.00       195.73
 1268.88        2952.75           2183          53.00       208.81
 1268.91        2953.00           2186          56.00       221.88
 1268.94        2953.25           2190          52.00       204.45
 1268.97        2953.50           2193          52.00       204.45
 1269.00        2953.75           2197          63.00       252.40
 1269.03        2954.00           2200          48.00       187.01
 1269.06        2954.25           2204          50.00       195.73
 1269.09        2954.50           2208          51.00       200.09
 1269.12        2954.75           2211          49.00       191.37
 1269.15        2955.00           2215          48.00       187.01
 1269.18        2955.25           2218          57.00       226.24
 1269.21        2955.50           2222          58.00       230.60
 1269.24        2955.75           2225          55.00       217.53
 1269.28        2956.00           2229          56.00       221.88
 1269.31        2956.25           2232          57.00       226.24
 1269.34        2956.50           2236          69.00       278.56
 1269.37        2956.75           2239          58.00       230.60
 1269.40        2957.00           2243          53.00       208.81
 1269.43        2957.25           2246          61.00       243.68
 1269.46        2957.50           2250          61.00       243.68
 1269.49        2957.75           2254          61.00       243.68
 1269.52        2958.00           2257          59.00       234.96
 1269.55        2958.25           2261          65.00       261.12
 1269.58        2958.50           2264          70.00       282.91
 1269.61        2958.75           2268          69.00       278.56
 1269.64        2959.00           2271          70.00       282.91
 1269.67        2959.25           2275          56.00       221.88
 1269.70        2959.50           2278          65.00       261.12
 1269.73        2959.75           2282          74.00       300.35
 1269.76        2960.00           2285          70.00       282.91
 1269.80        2960.25           2289          73.00       295.99
 1269.83        2960.50           2293          72.00       291.63
 1269.86        2960.75           2296          83.00       339.59
 1269.89        2961.00           2300          98.00       404.98
 1269.92        2961.25           2303         221.00       941.18
 1269.95        2961.50           2307         862.00      3735.87
 1269.98        2961.75           2310        1600.00      6954.13
 1270.01        2962.00           2314        2894.00     12598.68
 1270.04        2962.25           2317        3736.00     16272.73
 1270.07        2962.50           2321        4962.00     21624.00
 1270.10        2962.75           2324        5739.00     25016.48
 1270.13        2963.00           2328        6904.00     30104.47
 1270.16        2963.25           2331        7961.00     34722.31
 1270.19        2963.50           2335        9301.00     40578.62
 1270.22        2963.75           2339       10411.00     45431.51
 1270.25        2964.00           2342       11246.00     49083.16
 1270.28        2964.25           2346       12479.00     54477.01
 1270.32        2964.50           2349       13672.00     59697.78
 1270.35        2964.75           2353       14827.00     64754.01
 1270.38        2965.00           2356       15516.00     67771.06
 1270.41        2965.25           2360       16682.00     72878.28
 1270.44        2965.50           2363       17757.00     77588.46
 1270.47        2965.75           2367       18765.00     82006.46
 1270.50        2966.00           2370       19746.00     86307.38
 1270.53        2966.25           2374       20775.00     90820.12
 1270.56        2966.50           2378       21277.00     93022.18
 1270.59        2966.75           2381       21234.00     92833.53
 1270.62        2967.00           2385       21161.00     92513.31
 1270.65        2967.25           2388       21231.00     92820.38
 1270.68        2967.50           2392       21518.00     94079.44
 1270.71        2967.75           2395       21382.00     93482.80
 1270.74        2968.00           2399       20622.00     90149.04
 1270.77        2968.25           2402       19988.00     87368.57
 1270.80        2968.50           2406       18677.00     81620.71
 1270.84        2968.75           2409       17966.00     78504.38
 1270.87        2969.00           2413       16678.00     72860.75
 1270.90        2969.25           2417       15464.00     67543.34
 1270.93        2969.50           2420       14408.00     62919.56
 1270.96        2969.75           2424       13254.00     57868.33
 1270.99        2970.00           2427       12458.00     54385.14
 1271.02        2970.25           2431       11025.00     48116.59
 1271.05        2970.50           2434       10014.00     43695.65
 1271.08        2970.75           2438        8622.00     37610.84
 1271.11        2971.00           2441        7695.00     33560.07
 1271.14        2971.25           2445        6519.00     28422.83
 1271.17        2971.50           2449        5288.00     23047.26
 1271.20        2971.75           2452        4233.00     18441.81
 1271.23        2972.00           2456        3032.00     13200.78
 1271.26        2972.25           2459        2176.00      9466.43
 1271.29        2972.50           2463        1122.00      4869.59
 1271.32        2972.75           2466         559.00      2414.76
 1271.35        2973.00           2470         182.00       771.16
 1271.39        2973.25           2473         103.00       426.77
 1271.42        2973.50           2477          87.00       357.02
 1271.45        2973.75           2481          87.00       357.02
 1271.48        2974.00           2484          81.00       330.87
 1271.51        2974.25           2488          77.00       313.43
 1271.55        2974.50           2491          70.00       282.91
 1271.58        2974.75           2495          70.00       282.91
 1271.61        2975.00           2498          72.00       291.63
 1271.64        2975.25           2502          68.00       274.20
 1271.67        2975.50           2505          64.00       256.76
 1271.70        2975.75           2509          71.00       287.27
 1271.73        2976.00           2512          57.00       226.24
 1271.76        2976.25           2516          66.00       265.48
 1271.79        2976.50           2520          66.00       265.48
 1271.82        2976.75           2523          62.00       248.04
 1271.85        2977.00           2527          58.00       230.60
 1271.88        2977.25           2530          65.00       261.12
 1271.91        2977.50           2534          61.00       243.68
 1271.94        2977.75           2537          61.00       243.68
 1271.97        2978.00           2541          64.00       256.76
 1272.00        2978.25           2544          59.00       234.96
 1272.03        2978.50           2548          59.00       234.96
 1272.07        2978.75           2552          59.00       234.96
 1272.10        2979.00           2555          64.00       256.76
 1272.13        2979.25           2559          57.00       226.24
 1272.16        2979.50           2562          55.00       217.53
 1272.19        2979.75           2566          57.00       226.24
 1272.22        2980.00           2569          57.00       226.24
 1272.25        2980.25           2573          53.00       208.81
 1272.28        2980.50           2577          50.00       195.73
 1272.31        2980.75           2580          54.00       213.17
 1272.34        2981.00           2584          53.00       208.81
 1272.37        2981.25           2587          55.00       217.53
 1272.40        2981.50           2591          56.00       221.88
 1272.43        2981.75           2594          59.00       234.96
 1272.46        2982.00           2598          51.00       200.09
 1272.49        2982.25           2601          46.00       178.29
 1272.52        2982.50           2605          53.00       208.81
 1272.55        2982.75           2609          51.00       200.09
 1272.59        2983.00           2612          49.00       191.37
 1272.62        2983.25           2616          52.00       204.45
 1272.65        2983.50           2619          46.00       178.29
 1272.68        2983.75           2623          48.00       187.01
 1272.71        2984.00           2626          52.00       204.45
HS scan finished at 21:12:56
end
