************************************************************
  HS Scan of (1) Internal mercury lamp
************************************************************
Integration time is 0.2294 seconds per sample
dh120717Reading 51.44 .94 3.43pr1000
************************************************************
Dead Time -------------------------  3.4E-08 
Number of Cycles Used -------------  4 
Starting Wavelength (Angstroms) ---  2950 
Final Wavelength (Angstoms) -------  2984 
Wavelength Increment (Angstroms) --  .25 
Filter Wheel #1 Position ---------- (1) Ground quartz diffuser (ND=2.32)
Filter Wheel #2 Position ---------- (1) Neutral Density 0.494



************************************************************
HS scan start time = 01:35:36
Dark Count =  2.5 


Time (GMT)  Wavelength (Ang)  Step Number  Raw Counts  Counts/Second

   96.49        2950.00           2144         390.00      1689.29
   96.69        2950.25           2147         398.00      1724.16
   96.72        2950.50           2151         391.00      1693.65
   96.75        2950.75           2155         394.00      1706.73
   96.78        2951.00           2158         372.00      1610.81
   96.81        2951.25           2162         391.00      1693.65
   96.84        2951.50           2165         403.00      1745.96
   96.87        2951.75           2169         411.00      1780.84
   96.90        2952.00           2172         399.00      1728.52
   96.93        2952.25           2176         402.00      1741.60
   96.96        2952.50           2179         396.00      1715.44
   96.99        2952.75           2183         410.00      1776.48
   97.02        2953.00           2186         403.00      1745.96
   97.05        2953.25           2190         415.00      1798.28
   97.08        2953.50           2193         422.00      1828.80
   97.11        2953.75           2197         442.00      1915.99
   97.14        2954.00           2200         421.00      1824.44
   97.18        2954.25           2204         417.00      1807.00
   97.21        2954.50           2208         427.00      1850.60
   97.24        2954.75           2211         432.00      1872.39
   97.27        2955.00           2215         445.00      1929.07
   97.30        2955.25           2218         438.00      1898.55
   97.33        2955.50           2222         444.00      1924.71
   97.36        2955.75           2225         445.00      1929.07
   97.39        2956.00           2229         448.00      1942.15
   97.42        2956.25           2232         465.00      2016.27
   97.45        2956.50           2236         458.00      1985.75
   97.48        2956.75           2239         451.00      1955.23
   97.51        2957.00           2243         455.00      1972.67
   97.54        2957.25           2246         469.00      2033.71
   97.57        2957.50           2250         472.00      2046.79
   97.60        2957.75           2254         501.00      2173.22
   97.63        2958.00           2257         505.00      2190.66
   97.66        2958.25           2261         498.00      2160.14
   97.69        2958.50           2264         530.00      2299.66
   97.73        2958.75           2268         525.00      2277.86
   97.76        2959.00           2271         524.00      2273.50
   97.79        2959.25           2275         528.00      2290.94
   97.82        2959.50           2278         547.00      2373.78
   97.85        2959.75           2282         546.00      2369.42
   97.89        2960.00           2285         583.00      2530.73
   97.92        2960.25           2289         580.00      2517.65
   97.95        2960.50           2293         592.00      2569.97
   97.98        2960.75           2296         629.00      2731.29
   98.01        2961.00           2300         665.00      2888.25
   98.04        2961.25           2303         966.00      4200.69
   98.07        2961.50           2307        4281.00     18662.67
   98.10        2961.75           2310        9828.00     42893.82
   98.13        2962.00           2314       18355.00     80220.68
   98.16        2962.25           2317       24386.00    106678.70
   98.19        2962.50           2321       33091.00    144951.90
   98.22        2962.75           2324       40283.00    176648.50
   98.25        2963.00           2328       50016.00    219653.10
   98.28        2963.25           2331       57452.00    252593.80
   98.31        2963.50           2335       67450.00    297001.10
   98.34        2963.75           2339       77356.00    341133.00
   98.37        2964.00           2342       85302.00    376629.50
   98.40        2964.25           2346       95735.00    423367.50
   98.44        2964.50           2349      102576.00    454095.30
   98.47        2964.75           2353      111199.00    492919.70
   98.50        2965.00           2356      118257.00    524775.00
   98.53        2965.25           2360      128344.00    570422.50
   98.56        2965.50           2363      135990.00    605119.00
   98.59        2965.75           2367      145262.00    647305.50
   98.62        2966.00           2370      152624.00    680889.00
   98.65        2966.25           2374      160004.00    714632.80
   98.68        2966.50           2378      166334.00    743638.10
   98.71        2966.75           2381      168429.00    753250.60
   98.74        2967.00           2385      169717.00    759163.60
   98.77        2967.25           2388      169488.00    758112.10
   98.80        2967.50           2392      169234.00    756946.00
   98.83        2967.75           2395      169324.00    757359.20
   98.86        2968.00           2399      165042.00    737713.30
   98.89        2968.25           2402      159569.00    712641.70
   98.92        2968.50           2406      151522.00    675857.10
   98.96        2968.75           2409      144619.00    644375.90
   98.99        2969.00           2413      135234.00    601684.60
   99.02        2969.25           2417      125164.00    556016.30
   99.05        2969.50           2420      117426.00    521020.80
   99.08        2969.75           2424      106714.00    472713.40
   99.11        2970.00           2427       99234.00    439075.80
   99.14        2970.25           2431       90085.00    398038.00
   99.17        2970.50           2434       82134.00    362467.10
   99.20        2970.75           2438       71726.00    316034.60
   99.23        2971.00           2441       63763.00    280609.10
   99.26        2971.25           2445       54244.00    238373.60
   99.29        2971.50           2449       44392.00    194788.40
   99.32        2971.75           2452       37504.00    164392.80
   99.35        2972.00           2456       28354.00    124112.40
   99.38        2972.25           2459       20619.00     90147.29
   99.41        2972.50           2463       10950.00     47799.94
   99.44        2972.75           2466        5312.00     23163.40
   99.48        2973.00           2470        1528.00      6651.46
   99.51        2973.25           2473         882.00      3834.41
   99.54        2973.50           2477         680.00      2953.65
   99.57        2973.75           2481         626.00      2718.21
   99.60        2974.00           2484         619.00      2687.69
   99.63        2974.25           2488         605.00      2626.65
   99.66        2974.50           2491         580.00      2517.65
   99.69        2974.75           2495         578.00      2508.93
   99.72        2975.00           2498         564.00      2447.89
   99.75        2975.25           2502         581.00      2522.01
   99.78        2975.50           2505         552.00      2395.57
   99.81        2975.75           2509         528.00      2290.94
   99.84        2976.00           2512         534.00      2317.10
   99.87        2976.25           2516         523.00      2269.14
   99.90        2976.50           2520         519.00      2251.70
   99.93        2976.75           2523         518.00      2247.34
   99.96        2977.00           2527         508.00      2203.74
  100.00        2977.25           2530         499.00      2164.50
  100.03        2977.50           2534         482.00      2090.38
  100.06        2977.75           2537         456.00      1977.03
  100.09        2978.00           2541         489.00      2120.90
  100.12        2978.25           2544         465.00      2016.27
  100.15        2978.50           2548         462.00      2003.19
  100.18        2978.75           2552         446.00      1933.43
  100.21        2979.00           2555         465.00      2016.27
  100.24        2979.25           2559         469.00      2033.71
  100.27        2979.50           2562         466.00      2020.63
  100.30        2979.75           2566         458.00      1985.75
  100.33        2980.00           2569         422.00      1828.80
  100.36        2980.25           2573         429.00      1859.32
  100.39        2980.50           2577         426.00      1846.24
  100.42        2980.75           2580         425.00      1841.88
  100.45        2981.00           2584         400.00      1732.88
  100.48        2981.25           2587         398.00      1724.16
  100.52        2981.50           2591         414.00      1793.92
  100.55        2981.75           2594         415.00      1798.28
  100.58        2982.00           2598         402.00      1741.60
  100.61        2982.25           2601         398.00      1724.16
  100.64        2982.50           2605         379.00      1641.33
  100.67        2982.75           2609         394.00      1706.73
  100.70        2983.00           2612         381.00      1650.05
  100.73        2983.25           2616         375.00      1623.89
  100.76        2983.50           2619         404.00      1750.32
  100.79        2983.75           2623         391.00      1693.65
  100.82        2984.00           2626         385.00      1667.49
HS scan finished at 01:41:02
end
************************************************************
  HS Scan of (1) Internal mercury lamp
************************************************************
Integration time is 0.2294 seconds per sample
dh120717Reading 51.44 .94 3.72pr1000
************************************************************
Dead Time -------------------------  3.4E-08 
Number of Cycles Used -------------  4 
Starting Wavelength (Angstroms) ---  2950 
Final Wavelength (Angstoms) -------  2984 
Wavelength Increment (Angstroms) --  .25 
Filter Wheel #1 Position ---------- (1) Ground quartz diffuser (ND=2.32)
Filter Wheel #2 Position ---------- (1) Neutral Density 0.494



************************************************************
HS scan start time = 21:07:22
Dark Count =  5 


Time (GMT)  Wavelength (Ang)  Step Number  Raw Counts  Counts/Second

 1268.27        2950.00           2144         353.00      1517.08
 1268.46        2950.25           2147         369.00      1586.83
 1268.49        2950.50           2151         346.00      1486.56
 1268.52        2950.75           2155         348.00      1495.28
 1268.56        2951.00           2158         362.00      1556.32
 1268.59        2951.25           2162         351.00      1508.36
 1268.62        2951.50           2165         388.00      1669.67
 1268.65        2951.75           2169         355.00      1525.80
 1268.68        2952.00           2172         376.00      1617.35
 1268.71        2952.25           2176         352.00      1512.72
 1268.74        2952.50           2179         360.00      1547.60
 1268.77        2952.75           2183         369.00      1586.83
 1268.80        2953.00           2186         362.00      1556.32
 1268.83        2953.25           2190         354.00      1521.44
 1268.86        2953.50           2193         393.00      1691.47
 1268.89        2953.75           2197         392.00      1687.11
 1268.92        2954.00           2200         384.00      1652.23
 1268.95        2954.25           2204         383.00      1647.87
 1268.98        2954.50           2208         392.00      1687.11
 1269.01        2954.75           2211         387.00      1665.31
 1269.04        2955.00           2215         391.00      1682.75
 1269.08        2955.25           2218         388.00      1669.67
 1269.11        2955.50           2222         394.00      1695.83
 1269.14        2955.75           2225         411.00      1769.94
 1269.17        2956.00           2229         389.00      1674.03
 1269.20        2956.25           2232         388.00      1669.67
 1269.23        2956.50           2236         412.00      1774.30
 1269.26        2956.75           2239         409.00      1761.22
 1269.29        2957.00           2243         426.00      1835.34
 1269.32        2957.25           2246         418.00      1800.46
 1269.35        2957.50           2250         416.00      1791.74
 1269.38        2957.75           2254         414.00      1783.02
 1269.41        2958.00           2257         441.00      1900.73
 1269.44        2958.25           2261         425.00      1830.98
 1269.47        2958.50           2264         437.00      1883.29
 1269.50        2958.75           2268         466.00      2009.73
 1269.53        2959.00           2271         451.00      1944.33
 1269.56        2959.25           2275         450.00      1939.97
 1269.60        2959.50           2278         456.00      1966.13
 1269.63        2959.75           2282         478.00      2062.05
 1269.66        2960.00           2285         510.00      2201.56
 1269.69        2960.25           2289         500.00      2157.96
 1269.72        2960.50           2293         515.00      2223.36
 1269.75        2960.75           2296         553.00      2389.03
 1269.78        2961.00           2300         588.00      2541.63
 1269.82        2961.25           2303         821.00      3557.54
 1269.85        2961.50           2307        2873.00     12507.50
 1269.88        2961.75           2310        6420.00     27990.88
 1269.91        2962.00           2314       13442.00     58691.55
 1269.94        2962.25           2317       19692.00     86071.05
 1269.97        2962.50           2321       27873.00    121987.00
 1270.00        2962.75           2324       33763.00    147899.70
 1270.03        2963.00           2328       41897.00    183760.10
 1270.06        2963.25           2331       47710.00    209441.70
 1270.09        2963.50           2335       56045.00    246344.20
 1270.12        2963.75           2339       63958.00    281464.50
 1270.15        2964.00           2342       70083.00    308707.10
 1270.18        2964.25           2346       78393.00    345749.50
 1270.21        2964.50           2349       84877.00    374717.60
 1270.24        2964.75           2353       93608.00    413815.50
 1270.27        2965.00           2356      100164.00    443242.70
 1270.30        2965.25           2360      107571.00    476561.00
 1270.34        2965.50           2363      113207.00    501964.20
 1270.37        2965.75           2367      120955.00    536959.10
 1270.40        2966.00           2370      127134.00    564927.80
 1270.43        2966.25           2374      134386.00    597822.00
 1270.46        2966.50           2378      138923.00    618439.20
 1270.49        2966.75           2381      140606.00    626094.60
 1270.52        2967.00           2385      139884.00    622809.90
 1270.55        2967.25           2388      139011.00    618839.40
 1270.58        2967.50           2392      139150.00    619471.50
 1270.61        2967.75           2395      137739.00    613056.00
 1270.64        2968.00           2399      134014.00    596132.80
 1270.67        2968.25           2402      129044.00    573584.10
 1270.70        2968.50           2406      121502.00    539433.00
 1270.73        2968.75           2409      116106.00    515048.10
 1270.76        2969.00           2413      109525.00    485363.30
 1270.79        2969.25           2417      101987.00    451435.80
 1270.82        2969.50           2420       95622.00    422849.20
 1270.86        2969.75           2424       86903.00    383780.80
 1270.89        2970.00           2427       81229.00    358412.60
 1270.92        2970.25           2431       72931.00    321391.70
 1270.95        2970.50           2434       66735.00    293809.70
 1270.98        2970.75           2438       59159.00    260155.00
 1271.01        2971.00           2441       52855.00    232209.70
 1271.04        2971.25           2445       44593.00    195665.30
 1271.07        2971.50           2449       36949.00    161935.40
 1271.10        2971.75           2452       30724.00    134524.10
 1271.13        2972.00           2456       23328.00    102022.90
 1271.16        2972.25           2459       17583.00     76826.41
 1271.19        2972.50           2463       10589.00     46210.30
 1271.22        2972.75           2466        5788.00     25230.88
 1271.25        2973.00           2470        1671.00      7264.22
 1271.28        2973.25           2473         801.00      3470.33
 1271.31        2973.50           2477         555.00      2397.75
 1271.34        2973.75           2481         526.00      2271.32
 1271.38        2974.00           2484         538.00      2323.64
 1271.41        2974.25           2488         503.00      2171.04
 1271.44        2974.50           2491         496.00      2140.52
 1271.47        2974.75           2495         505.00      2179.76
 1271.50        2975.00           2498         467.00      2014.09
 1271.53        2975.25           2502         489.00      2110.00
 1271.56        2975.50           2505         458.00      1974.85
 1271.59        2975.75           2509         452.00      1948.69
 1271.62        2976.00           2512         465.00      2005.37
 1271.65        2976.25           2516         423.00      1822.26
 1271.68        2976.50           2520         423.00      1822.26
 1271.71        2976.75           2523         425.00      1830.98
 1271.74        2977.00           2527         425.00      1830.98
 1271.77        2977.25           2530         392.00      1687.11
 1271.80        2977.50           2534         417.00      1796.10
 1271.83        2977.75           2537         397.00      1708.90
 1271.86        2978.00           2541         392.00      1687.11
 1271.90        2978.25           2544         399.00      1717.62
 1271.93        2978.50           2548         417.00      1796.10
 1271.96        2978.75           2552         399.00      1717.62
 1271.99        2979.00           2555         392.00      1687.11
 1272.02        2979.25           2559         363.00      1560.68
 1272.05        2979.50           2562         386.00      1660.95
 1272.08        2979.75           2566         393.00      1691.47
 1272.11        2980.00           2569         385.00      1656.59
 1272.14        2980.25           2573         353.00      1517.08
 1272.17        2980.50           2577         364.00      1565.04
 1272.20        2980.75           2580         344.00      1477.84
 1272.23        2981.00           2584         356.00      1530.16
 1272.26        2981.25           2587         333.00      1429.89
 1272.29        2981.50           2591         345.00      1482.20
 1272.32        2981.75           2594         352.00      1512.72
 1272.35        2982.00           2598         357.00      1534.52
 1272.38        2982.25           2601         357.00      1534.52
 1272.42        2982.50           2605         340.00      1460.40
 1272.45        2982.75           2609         313.00      1342.69
 1272.48        2983.00           2612         348.00      1495.28
 1272.51        2983.25           2616         335.00      1438.61
 1272.54        2983.50           2619         329.00      1412.45
 1272.57        2983.75           2623         334.00      1434.25
 1272.60        2984.00           2626         332.00      1425.53
HS scan finished at 21:12:49
end
