************************************************************
  HS Scan of (1) Internal mercury lamp
************************************************************
Integration time is 0.2294 seconds per sample
dh170717Reading 51.44 .94 3.68pr1000
************************************************************
Dead Time -------------------------  3.4E-08 
Number of Cycles Used -------------  4 
Starting Wavelength (Angstroms) ---  2950 
Final Wavelength (Angstoms) -------  2984 
Wavelength Increment (Angstroms) --  .25 
Filter Wheel #1 Position ---------- (1) Ground quartz diffuser (ND=2.32)
Filter Wheel #2 Position ---------- (1) Neutral Density 0.494



************************************************************
HS scan start time = 01:22:13
Dark Count =  3.8 


Time (GMT)  Wavelength (Ang)  Step Number  Raw Counts  Counts/Second

   83.12        2950.00           2144         384.00      1657.46
   83.31        2950.25           2147         409.00      1766.45
   83.34        2950.50           2151         374.00      1613.86
   83.37        2950.75           2155         391.00      1687.98
   83.40        2951.00           2158         386.00      1666.18
   83.43        2951.25           2162         421.00      1818.77
   83.46        2951.50           2165         387.00      1670.54
   83.49        2951.75           2169         375.00      1618.22
   83.53        2952.00           2172         426.00      1840.57
   83.56        2952.25           2176         400.00      1727.22
   83.59        2952.50           2179         399.00      1722.86
   83.62        2952.75           2183         408.00      1762.09
   83.65        2953.00           2186         384.00      1657.46
   83.68        2953.25           2190         413.00      1783.89
   83.71        2953.50           2193         394.00      1701.06
   83.74        2953.75           2197         416.00      1796.97
   83.77        2954.00           2200         416.00      1796.97
   83.80        2954.25           2204         428.00      1849.29
   83.83        2954.50           2208         419.00      1810.05
   83.86        2954.75           2211         414.00      1788.25
   83.89        2955.00           2215         424.00      1831.85
   83.92        2955.25           2218         426.00      1840.57
   83.95        2955.50           2222         434.00      1875.45
   83.98        2955.75           2225         428.00      1849.29
   84.01        2956.00           2229         422.00      1823.13
   84.05        2956.25           2232         442.00      1910.32
   84.08        2956.50           2236         436.00      1884.17
   84.11        2956.75           2239         441.00      1905.97
   84.14        2957.00           2243         481.00      2080.36
   84.17        2957.25           2246         463.00      2001.88
   84.20        2957.50           2250         505.00      2184.99
   84.23        2957.75           2254         452.00      1953.92
   84.26        2958.00           2257         479.00      2071.64
   84.29        2958.25           2261         466.00      2014.96
   84.32        2958.50           2264         496.00      2145.75
   84.35        2958.75           2268         494.00      2137.03
   84.38        2959.00           2271         510.00      2206.79
   84.41        2959.25           2275         521.00      2254.75
   84.44        2959.50           2278         508.00      2198.07
   84.47        2959.75           2282         525.00      2272.19
   84.50        2960.00           2285         541.00      2341.95
   84.53        2960.25           2289         564.00      2442.23
   84.57        2960.50           2293         585.00      2533.78
   84.60        2960.75           2296         588.00      2546.86
   84.63        2961.00           2300         680.00      2947.99
   84.66        2961.25           2303        1153.00      5010.44
   84.69        2961.50           2307        4428.00     19298.62
   84.72        2961.75           2310        9390.00     40973.35
   84.76        2962.00           2314       17361.00     75858.88
   84.79        2962.25           2317       24295.00    106273.50
   84.83        2962.50           2321       32898.00    144096.60
   84.86        2962.75           2324       39417.00    172822.50
   84.89        2963.00           2328       48908.00    214745.30
   84.92        2963.25           2331       56695.00    249231.20
   84.95        2963.50           2335       66615.00    293281.40
   84.98        2963.75           2339       76698.00    338191.60
   85.01        2964.00           2342       83689.00    369411.20
   85.04        2964.25           2346       92861.00    410471.70
   85.07        2964.50           2349       99041.00    438203.20
   85.10        2964.75           2353      109177.00    483800.70
   85.13        2965.00           2356      116773.00    518065.60
   85.16        2965.25           2360      125218.00    556255.00
   85.19        2965.50           2363      131704.00    585653.60
   85.22        2965.75           2367      140387.00    625103.70
   85.25        2966.00           2370      145860.00    650024.60
   85.28        2966.25           2374      154155.00    687876.90
   85.33        2966.50           2378      160995.00    719164.00
   85.36        2966.75           2381      162338.00    725315.00
   85.39        2967.00           2385      162668.00    726826.80
   85.42        2967.25           2388      162610.00    726561.00
   85.45        2967.50           2392      163006.00    728375.50
   85.48        2967.75           2395      162132.00    724371.30
   85.51        2968.00           2399      159740.00    713418.40
   85.54        2968.25           2402      155493.00    693991.80
   85.57        2968.50           2406      147471.00    657368.30
   85.61        2968.75           2409      140439.00    625340.20
   85.64        2969.00           2413      129949.00    577693.00
   85.67        2969.25           2417      120631.00    535499.50
   85.70        2969.50           2420      113570.00    503607.30
   85.73        2969.75           2424      104526.00    462860.10
   85.76        2970.00           2427       97084.00    429415.80
   85.79        2970.25           2431       86742.00    383065.80
   85.82        2970.50           2434       79196.00    349339.30
   85.85        2970.75           2438       69476.00    306010.50
   85.88        2971.00           2441       62473.00    274872.50
   85.91        2971.25           2445       52707.00    231559.60
   85.94        2971.50           2449       43940.00    192786.10
   85.97        2971.75           2452       37095.00    162584.10
   86.00        2972.00           2456       26877.00    117615.00
   86.03        2972.25           2459       19548.00     85444.89
   86.06        2972.50           2463       10680.00     46613.49
   86.09        2972.75           2466        5611.00     24463.24
   86.12        2973.00           2470        1856.00      8076.32
   86.16        2973.25           2473         900.00      3907.23
   86.19        2973.50           2477         669.00      2900.02
   86.22        2973.75           2481         616.00      2668.94
   86.25        2974.00           2484         591.00      2559.94
   86.28        2974.25           2488         596.00      2581.74
   86.31        2974.50           2491         562.00      2433.51
   86.34        2974.75           2495         542.00      2346.31
   86.37        2975.00           2498         540.00      2337.59
   86.40        2975.25           2502         507.00      2193.71
   86.43        2975.50           2505         536.00      2320.15
   86.46        2975.75           2509         494.00      2137.03
   86.49        2976.00           2512         532.00      2302.71
   86.52        2976.25           2516         518.00      2241.67
   86.55        2976.50           2520         483.00      2089.08
   86.58        2976.75           2523         486.00      2102.16
   86.61        2977.00           2527         473.00      2045.48
   86.64        2977.25           2530         463.00      2001.88
   86.68        2977.50           2534         483.00      2089.08
   86.71        2977.75           2537         483.00      2089.08
   86.74        2978.00           2541         454.00      1962.64
   86.77        2978.25           2544         448.00      1936.48
   86.80        2978.50           2548         426.00      1840.57
   86.83        2978.75           2552         444.00      1919.04
   86.86        2979.00           2555         435.00      1879.81
   86.89        2979.25           2559         461.00      1993.16
   86.92        2979.50           2562         435.00      1879.81
   86.95        2979.75           2566         418.00      1805.69
   86.98        2980.00           2569         408.00      1762.09
   87.01        2980.25           2573         425.00      1836.21
   87.04        2980.50           2577         426.00      1840.57
   87.07        2980.75           2580         414.00      1788.25
   87.10        2981.00           2584         398.00      1718.50
   87.13        2981.25           2587         390.00      1683.62
   87.16        2981.50           2591         388.00      1674.90
   87.20        2981.75           2594         396.00      1709.78
   87.23        2982.00           2598         389.00      1679.26
   87.26        2982.25           2601         389.00      1679.26
   87.29        2982.50           2605         367.00      1583.35
   87.32        2982.75           2609         383.00      1653.10
   87.35        2983.00           2612         378.00      1631.30
   87.38        2983.25           2616         378.00      1631.30
   87.41        2983.50           2619         358.00      1544.11
   87.44        2983.75           2623         394.00      1701.06
   87.47        2984.00           2626         414.00      1788.25
HS scan finished at 01:27:42
end
************************************************************
  HS Scan of (1) Internal mercury lamp
************************************************************
Integration time is 0.2294 seconds per sample
dh170717Reading 51.44 .94 3.94pr1000
************************************************************
Dead Time -------------------------  3.4E-08 
Number of Cycles Used -------------  4 
Starting Wavelength (Angstroms) ---  2950 
Final Wavelength (Angstoms) -------  2984 
Wavelength Increment (Angstroms) --  .25 
Filter Wheel #1 Position ---------- (1) Ground quartz diffuser (ND=2.32)
Filter Wheel #2 Position ---------- (1) Neutral Density 0.494



************************************************************
HS scan start time = 21:07:27
Dark Count =  7.9 


Time (GMT)  Wavelength (Ang)  Step Number  Raw Counts  Counts/Second

 1268.35        2950.00           2144         290.00      1229.78
 1268.54        2950.25           2147         309.00      1312.61
 1268.57        2950.50           2151         297.00      1260.30
 1268.60        2950.75           2155         301.00      1277.74
 1268.63        2951.00           2158         298.00      1264.66
 1268.66        2951.25           2162         283.00      1199.26
 1268.69        2951.50           2165         316.00      1343.13
 1268.72        2951.75           2169         292.00      1238.50
 1268.75        2952.00           2172         290.00      1229.78
 1268.78        2952.25           2176         297.00      1260.30
 1268.81        2952.50           2179         291.00      1234.14
 1268.85        2952.75           2183         290.00      1229.78
 1268.88        2953.00           2186         292.00      1238.50
 1268.91        2953.25           2190         289.00      1225.42
 1268.94        2953.50           2193         308.00      1308.25
 1268.97        2953.75           2197         308.00      1308.25
 1269.00        2954.00           2200         311.00      1321.33
 1269.03        2954.25           2204         303.00      1286.46
 1269.06        2954.50           2208         320.00      1360.57
 1269.09        2954.75           2211         314.00      1334.41
 1269.12        2955.00           2215         320.00      1360.57
 1269.15        2955.25           2218         326.00      1386.73
 1269.18        2955.50           2222         321.00      1364.93
 1269.21        2955.75           2225         320.00      1360.57
 1269.24        2956.00           2229         330.00      1404.16
 1269.27        2956.25           2232         327.00      1391.09
 1269.30        2956.50           2236         335.00      1425.96
 1269.33        2956.75           2239         362.00      1543.67
 1269.37        2957.00           2243         347.00      1478.28
 1269.40        2957.25           2246         349.00      1487.00
 1269.43        2957.50           2250         344.00      1465.20
 1269.46        2957.75           2254         348.00      1482.64
 1269.49        2958.00           2257         358.00      1526.23
 1269.52        2958.25           2261         381.00      1626.51
 1269.55        2958.50           2264         387.00      1652.66
 1269.58        2958.75           2268         369.00      1574.19
 1269.61        2959.00           2271         381.00      1626.51
 1269.64        2959.25           2275         416.00      1779.10
 1269.67        2959.50           2278         411.00      1757.30
 1269.70        2959.75           2282         394.00      1683.18
 1269.73        2960.00           2285         417.00      1783.46
 1269.76        2960.25           2289         413.00      1766.02
 1269.79        2960.50           2293         430.00      1840.13
 1269.82        2960.75           2296         470.00      2014.52
 1269.85        2961.00           2300         549.00      2358.95
 1269.89        2961.25           2303        1071.00      4634.99
 1269.92        2961.50           2307        3985.00     17347.20
 1269.95        2961.75           2310        8227.00     35872.41
 1269.98        2962.00           2314       14594.00     63721.60
 1270.01        2962.25           2317       19921.00     87062.48
 1270.04        2962.50           2321       27347.00    119662.40
 1270.07        2962.75           2324       32626.00    142881.20
 1270.10        2963.00           2328       39359.00    172548.60
 1270.13        2963.25           2331       44520.00    195330.00
 1270.16        2963.50           2335       52377.00    230080.10
 1270.19        2963.75           2339       59997.00    263861.00
 1270.22        2964.00           2342       65907.00    290114.80
 1270.25        2964.25           2346       73573.00    324239.70
 1270.28        2964.50           2349       78699.00    347102.30
 1270.31        2964.75           2353       85284.00    376524.90
 1270.34        2965.00           2356       90340.00    399156.00
 1270.37        2965.25           2360       97488.00    431211.00
 1270.40        2965.50           2363      103080.00    456337.30
 1270.44        2965.75           2367      110265.00    488685.20
 1270.47        2966.00           2370      114747.00    508900.10
 1270.50        2966.25           2374      120044.00    532827.00
 1270.53        2966.50           2378      122894.00    545717.00
 1270.56        2966.75           2381      123673.00    549242.20
 1270.59        2967.00           2385      124072.00    551048.10
 1270.62        2967.25           2388      124178.00    551528.00
 1270.65        2967.50           2392      123978.00    550622.70
 1270.68        2967.75           2395      123595.00    548889.10
 1270.71        2968.00           2399      119794.00    531696.90
 1270.74        2968.25           2402      115450.00    512073.30
 1270.77        2968.50           2406      109793.00    486557.90
 1270.80        2968.75           2409      105150.00    465649.40
 1270.83        2969.00           2413       98589.00    436154.70
 1270.86        2969.25           2417       90650.00    400544.70
 1270.89        2969.50           2420       85463.00    377325.50
 1270.93        2969.75           2424       78767.00    347405.90
 1270.96        2970.00           2427       73286.00    322960.70
 1270.99        2970.25           2431       65980.00    290439.40
 1271.02        2970.50           2434       60921.00    267962.50
 1271.05        2970.75           2438       53398.00    234601.90
 1271.08        2971.00           2441       47529.00    208628.50
 1271.11        2971.25           2445       39972.00    175252.60
 1271.14        2971.50           2449       32780.00    143559.10
 1271.17        2971.75           2452       27492.00    120299.70
 1271.20        2972.00           2456       20630.00     90171.84
 1271.23        2972.25           2459       15472.00     67566.11
 1271.26        2972.50           2463        8528.00     37187.79
 1271.29        2972.75           2466        4322.00     18818.06
 1271.32        2973.00           2470        1148.00      4970.76
 1271.35        2973.25           2473         590.00      2537.71
 1271.38        2973.50           2477         469.00      2010.16
 1271.41        2973.75           2481         454.00      1944.77
 1271.45        2974.00           2484         440.00      1883.73
 1271.48        2974.25           2488         413.00      1766.02
 1271.51        2974.50           2491         449.00      1922.97
 1271.54        2974.75           2495         398.00      1700.62
 1271.57        2975.00           2498         406.00      1735.50
 1271.60        2975.25           2502         387.00      1652.66
 1271.63        2975.50           2505         379.00      1617.79
 1271.66        2975.75           2509         395.00      1687.54
 1271.69        2976.00           2512         380.00      1622.15
 1271.72        2976.25           2516         361.00      1539.31
 1271.75        2976.50           2520         348.00      1482.64
 1271.78        2976.75           2523         361.00      1539.31
 1271.81        2977.00           2527         344.00      1465.20
 1271.84        2977.25           2530         368.00      1569.83
 1271.87        2977.50           2534         362.00      1543.67
 1271.90        2977.75           2537         358.00      1526.23
 1271.93        2978.00           2541         330.00      1404.16
 1271.97        2978.25           2544         336.00      1430.32
 1272.00        2978.50           2548         321.00      1364.93
 1272.03        2978.75           2552         302.00      1282.10
 1272.06        2979.00           2555         327.00      1391.09
 1272.09        2979.25           2559         321.00      1364.93
 1272.12        2979.50           2562         311.00      1321.33
 1272.15        2979.75           2566         314.00      1334.41
 1272.18        2980.00           2569         317.00      1347.49
 1272.21        2980.25           2573         306.00      1299.53
 1272.24        2980.50           2577         293.00      1242.86
 1272.27        2980.75           2580         293.00      1242.86
 1272.30        2981.00           2584         299.00      1269.02
 1272.33        2981.25           2587         303.00      1286.46
 1272.36        2981.50           2591         290.00      1229.78
 1272.39        2981.75           2594         292.00      1238.50
 1272.42        2982.00           2598         269.00      1138.23
 1272.45        2982.25           2601         279.00      1181.83
 1272.48        2982.50           2605         283.00      1199.26
 1272.52        2982.75           2609         297.00      1260.30
 1272.55        2983.00           2612         299.00      1269.02
 1272.58        2983.25           2616         282.00      1194.90
 1272.61        2983.50           2619         282.00      1194.90
 1272.64        2983.75           2623         306.00      1299.53
 1272.67        2984.00           2626         264.00      1116.43
HS scan finished at 21:12:53
end
