************************************************************
  HS Scan of (1) Internal mercury lamp
************************************************************
Integration time is 0.2294 seconds per sample
dh180718Reading 51.44 .94 3.68pr1000
************************************************************
Dead Time -------------------------  3.4E-08 
Number of Cycles Used -------------  4 
Starting Wavelength (Angstroms) ---  2950 
Final Wavelength (Angstoms) -------  2984 
Wavelength Increment (Angstroms) --  .25 
Filter Wheel #1 Position ---------- (1) Ground quartz diffuser (ND=2.32)
Filter Wheel #2 Position ---------- (1) Neutral Density 0.494



************************************************************
HS scan start time = 02:41:58
Dark Count =  3.5 


Time (GMT)  Wavelength (Ang)  Step Number  Raw Counts  Counts/Second

  162.86        2950.00           2144          73.00       302.97
  163.06        2950.25           2147          78.00       324.76
  163.09        2950.50           2151          74.00       307.33
  163.12        2950.75           2155          73.00       302.97
  163.16        2951.00           2158          76.00       316.05
  163.20        2951.25           2162          73.00       302.97
  163.23        2951.50           2165          79.00       329.12
  163.26        2951.75           2169          83.00       346.56
  163.29        2952.00           2172          78.00       324.76
  163.32        2952.25           2176          78.00       324.76
  163.35        2952.50           2179          85.00       355.28
  163.38        2952.75           2183          86.00       359.64
  163.41        2953.00           2186          78.00       324.76
  163.44        2953.25           2190          79.00       329.12
  163.47        2953.50           2193          75.00       311.69
  163.50        2953.75           2197          89.00       372.72
  163.53        2954.00           2200          77.00       320.40
  163.56        2954.25           2204          85.00       355.28
  163.59        2954.50           2208          80.00       333.48
  163.62        2954.75           2211          84.00       350.92
  163.65        2955.00           2215          86.00       359.64
  163.69        2955.25           2218          79.00       329.12
  163.72        2955.50           2222          86.00       359.64
  163.75        2955.75           2225          92.00       385.79
  163.78        2956.00           2229          89.00       372.72
  163.81        2956.25           2232          87.00       364.00
  163.84        2956.50           2236          85.00       355.28
  163.87        2956.75           2239          93.00       390.15
  163.90        2957.00           2243          84.00       350.92
  163.93        2957.25           2246          94.00       394.51
  163.96        2957.50           2250         120.00       507.86
  163.99        2957.75           2254          98.00       411.95
  164.02        2958.00           2257         102.00       429.39
  164.05        2958.25           2261         100.00       420.67
  164.08        2958.50           2264          92.00       385.79
  164.11        2958.75           2268          97.00       407.59
  164.14        2959.00           2271         117.00       494.78
  164.17        2959.25           2275         134.00       568.89
  164.20        2959.50           2278         109.00       459.90
  164.24        2959.75           2282         112.00       472.98
  164.27        2960.00           2285         107.00       451.18
  164.30        2960.25           2289         121.00       512.21
  164.33        2960.50           2293         137.00       581.96
  164.36        2960.75           2296         131.00       555.81
  164.39        2961.00           2300         208.00       891.48
  164.42        2961.25           2303         532.00      2304.02
  164.45        2961.50           2307        1675.00      7288.21
  164.48        2961.75           2310        2890.00     12588.21
  164.51        2962.00           2314        4779.00     20832.10
  164.54        2962.25           2317        6365.00     27757.22
  164.57        2962.50           2321        8380.00     36560.24
  164.60        2962.75           2324        9928.00     43326.64
  164.63        2963.00           2328       11913.00     52007.75
  164.66        2963.25           2331       13575.00     59280.22
  164.69        2963.50           2335       15697.00     68570.75
  164.72        2963.75           2339       18154.00     79335.34
  164.76        2964.00           2342       19671.00     85985.53
  164.79        2964.25           2346       21626.00     94560.28
  164.82        2964.50           2349       23066.00    100879.40
  164.85        2964.75           2353       25222.00    110345.70
  164.88        2965.00           2356       26785.00    117212.10
  164.91        2965.25           2360       28750.00    125849.00
  164.94        2965.50           2363       30127.00    131904.50
  164.97        2965.75           2367       32057.00    140396.10
  165.00        2966.00           2370       33253.00    145660.80
  165.03        2966.25           2374       34835.00    152627.40
  165.06        2966.50           2378       35553.00    155790.30
  165.09        2966.75           2381       35372.00    154992.90
  165.12        2967.00           2385       35606.00    156023.80
  165.15        2967.25           2388       35631.00    156134.00
  165.18        2967.50           2392       35464.00    155398.20
  165.21        2967.75           2395       35032.00    153495.10
  165.24        2968.00           2399       33641.00    147369.10
  165.28        2968.25           2402       32289.00    141417.20
  165.31        2968.50           2406       30465.00    133391.30
  165.34        2968.75           2409       29115.00    127453.90
  165.37        2969.00           2413       27103.00    118609.40
  165.40        2969.25           2417       24890.00    108887.60
  165.43        2969.50           2420       23479.00    102692.30
  165.46        2969.75           2424       21446.00     93770.58
  165.49        2970.00           2427       20015.00     87493.99
  165.52        2970.25           2431       18002.00     78669.16
  165.55        2970.50           2434       16442.00     71833.91
  165.58        2970.75           2438       14186.00     61954.69
  165.61        2971.00           2441       12658.00     55267.23
  165.65        2971.25           2445       10401.00     45394.77
  165.69        2971.50           2449        8486.00     37023.47
  165.72        2971.75           2452        6958.00     30347.34
  165.75        2972.00           2456        5053.00     22028.26
  165.78        2972.25           2459        3687.00     16065.88
  165.81        2972.50           2463        2064.00      8984.87
  165.84        2972.75           2466         935.00      4061.15
  165.87        2973.00           2470         255.00      1096.38
  165.90        2973.25           2473         153.00       651.71
  165.93        2973.50           2477         154.00       656.07
  165.96        2973.75           2481         122.00       516.57
  165.99        2974.00           2484         149.00       634.28
  166.02        2974.25           2488         121.00       512.21
  166.06        2974.50           2491         116.00       490.42
  166.09        2974.75           2495         115.00       486.06
  166.12        2975.00           2498         104.00       438.11
  166.15        2975.25           2502         109.00       459.90
  166.18        2975.50           2505         128.00       542.73
  166.21        2975.75           2509         119.00       503.50
  166.24        2976.00           2512         101.00       425.03
  166.27        2976.25           2516          96.00       403.23
  166.30        2976.50           2520         100.00       420.67
  166.33        2976.75           2523          93.00       390.15
  166.36        2977.00           2527         130.00       551.45
  166.39        2977.25           2530          88.00       368.36
  166.42        2977.50           2534          94.00       394.51
  166.45        2977.75           2537          84.00       350.92
  166.48        2978.00           2541          96.00       403.23
  166.51        2978.25           2544          87.00       364.00
  166.54        2978.50           2548          92.00       385.79
  166.58        2978.75           2552          88.00       368.36
  166.61        2979.00           2555          87.00       364.00
  166.64        2979.25           2559          85.00       355.28
  166.67        2979.50           2562          86.00       359.64
  166.70        2979.75           2566          81.00       337.84
  166.73        2980.00           2569          83.00       346.56
  166.76        2980.25           2573          88.00       368.36
  166.79        2980.50           2577          81.00       337.84
  166.82        2980.75           2580          83.00       346.56
  166.85        2981.00           2584          81.00       337.84
  166.88        2981.25           2587          83.00       346.56
  166.91        2981.50           2591          79.00       329.12
  166.94        2981.75           2594          88.00       368.36
  166.97        2982.00           2598          84.00       350.92
  167.00        2982.25           2601          78.00       324.76
  167.03        2982.50           2605          79.00       329.12
  167.06        2982.75           2609          80.00       333.48
  167.10        2983.00           2612          74.00       307.33
  167.13        2983.25           2616          77.00       320.40
  167.16        2983.50           2619          77.00       320.40
  167.19        2983.75           2623          80.00       333.48
  167.22        2984.00           2626          70.00       289.89
HS scan finished at 02:47:27
end
************************************************************
  HS Scan of (1) Internal mercury lamp
************************************************************
Integration time is 0.2294 seconds per sample
dh180718Reading 51.44 .94 3.8pr1000
************************************************************
Dead Time -------------------------  3.4E-08 
Number of Cycles Used -------------  4 
Starting Wavelength (Angstroms) ---  2950 
Final Wavelength (Angstoms) -------  2984 
Wavelength Increment (Angstroms) --  .25 
Filter Wheel #1 Position ---------- (1) Ground quartz diffuser (ND=2.32)
Filter Wheel #2 Position ---------- (1) Neutral Density 0.494



************************************************************
HS scan start time = 21:07:27
Dark Count =  4.8 


Time (GMT)  Wavelength (Ang)  Step Number  Raw Counts  Counts/Second

 1268.36        2950.00           2144          48.00       188.32
 1268.55        2950.25           2147          52.00       205.76
 1268.58        2950.50           2151          51.00       201.40
 1268.61        2950.75           2155          55.00       218.83
 1268.64        2951.00           2158          50.00       197.04
 1268.67        2951.25           2162          52.00       205.76
 1268.70        2951.50           2165          52.00       205.76
 1268.73        2951.75           2169          48.00       188.32
 1268.76        2952.00           2172          53.00       210.11
 1268.79        2952.25           2176          56.00       223.19
 1268.83        2952.50           2179          51.00       201.40
 1268.86        2952.75           2183          59.00       236.27
 1268.89        2953.00           2186          58.00       231.91
 1268.92        2953.25           2190          54.00       214.47
 1268.95        2953.50           2193          53.00       210.11
 1268.98        2953.75           2197          54.00       214.47
 1269.01        2954.00           2200          57.00       227.55
 1269.04        2954.25           2204          54.00       214.47
 1269.07        2954.50           2208          61.00       244.99
 1269.10        2954.75           2211          56.00       223.19
 1269.13        2955.00           2215          56.00       223.19
 1269.16        2955.25           2218          56.00       223.19
 1269.19        2955.50           2222          57.00       227.55
 1269.22        2955.75           2225          58.00       231.91
 1269.25        2956.00           2229          62.00       249.35
 1269.28        2956.25           2232          62.00       249.35
 1269.31        2956.50           2236          61.00       244.99
 1269.35        2956.75           2239          61.00       244.99
 1269.38        2957.00           2243          64.00       258.07
 1269.41        2957.25           2246          63.00       253.71
 1269.44        2957.50           2250          57.00       227.55
 1269.47        2957.75           2254          63.00       253.71
 1269.50        2958.00           2257          64.00       258.07
 1269.53        2958.25           2261          63.00       253.71
 1269.56        2958.50           2264          68.00       275.50
 1269.59        2958.75           2268          66.00       266.79
 1269.62        2959.00           2271          66.00       266.79
 1269.65        2959.25           2275          73.00       297.30
 1269.68        2959.50           2278          76.00       310.38
 1269.71        2959.75           2282          73.00       297.30
 1269.74        2960.00           2285          68.00       275.50
 1269.77        2960.25           2289          70.00       284.22
 1269.80        2960.50           2293          86.00       353.97
 1269.83        2960.75           2296          86.00       353.97
 1269.87        2961.00           2300         110.00       458.59
 1269.90        2961.25           2303         340.00      1461.28
 1269.93        2961.50           2307        1041.00      4517.70
 1269.96        2961.75           2310        1686.00      7330.51
 1269.99        2962.00           2314        2821.00     12281.50
 1270.02        2962.25           2317        3682.00     16038.39
 1270.05        2962.50           2321        4985.00     21725.72
 1270.08        2962.75           2324        5864.00     25563.62
 1270.11        2963.00           2328        7047.00     30730.44
 1270.14        2963.25           2331        8027.00     35012.02
 1270.17        2963.50           2335        9420.00     41100.11
 1270.20        2963.75           2339       10759.00     46954.59
 1270.23        2964.00           2342       11602.00     50641.62
 1270.26        2964.25           2346       12858.00     56136.69
 1270.29        2964.50           2349       13654.00     59620.30
 1270.32        2964.75           2353       14958.00     65328.91
 1270.35        2965.00           2356       16159.00     70588.57
 1270.38        2965.25           2360       17222.00     75245.44
 1270.42        2965.50           2363       17940.00     78391.75
 1270.45        2965.75           2367       19074.00     83362.36
 1270.48        2966.00           2370       19955.00     87225.16
 1270.51        2966.25           2374       21099.00     92242.63
 1270.54        2966.50           2378       20924.00     91474.99
 1270.57        2966.75           2381       21066.00     92097.88
 1270.60        2967.00           2385       21039.00     91979.44
 1270.63        2967.25           2388       21032.00     91948.74
 1270.66        2967.50           2392       20855.00     91172.34
 1270.69        2967.75           2395       20663.00     90330.18
 1270.73        2968.00           2399       19813.00     86602.49
 1270.76        2968.25           2402       19171.00     83787.61
 1270.79        2968.50           2406       17889.00     78168.24
 1270.82        2968.75           2409       16987.00     74215.80
 1270.85        2969.00           2413       15918.00     69532.98
 1270.88        2969.25           2417       14599.00     63757.07
 1270.91        2969.50           2420       13678.00     59725.35
 1270.94        2969.75           2424       12429.00     54259.56
 1270.97        2970.00           2427       11394.00     49731.80
 1271.00        2970.25           2431       10170.00     44379.03
 1271.03        2970.50           2434        9392.00     40977.72
 1271.06        2970.75           2438        8006.00     34920.26
 1271.09        2971.00           2441        7218.00     31477.44
 1271.12        2971.25           2445        5878.00     25624.76
 1271.15        2971.50           2449        4650.00     20263.30
 1271.18        2971.75           2452        3756.00     16361.32
 1271.22        2972.00           2456        2739.00     11923.75
 1271.25        2972.25           2459        1972.00      8577.92
 1271.28        2972.50           2463         927.00      4020.60
 1271.31        2972.75           2466         412.00      1775.17
 1271.34        2973.00           2470         130.00       545.78
 1271.37        2973.25           2473          95.00       393.20
 1271.40        2973.50           2477          82.00       336.53
 1271.43        2973.75           2481          89.00       367.05
 1271.46        2974.00           2484          77.00       314.74
 1271.49        2974.25           2488          70.00       284.22
 1271.52        2974.50           2491          77.00       314.74
 1271.55        2974.75           2495          78.00       319.10
 1271.58        2975.00           2498          82.00       336.53
 1271.61        2975.25           2502          72.00       292.94
 1271.64        2975.50           2505          73.00       297.30
 1271.67        2975.75           2509          65.00       262.43
 1271.70        2976.00           2512          73.00       297.30
 1271.74        2976.25           2516          67.00       271.14
 1271.77        2976.50           2520          65.00       262.43
 1271.80        2976.75           2523          63.00       253.71
 1271.83        2977.00           2527          61.00       244.99
 1271.86        2977.25           2530          68.00       275.50
 1271.89        2977.50           2534          59.00       236.27
 1271.92        2977.75           2537          58.00       231.91
 1271.95        2978.00           2541          66.00       266.79
 1271.98        2978.25           2544          57.00       227.55
 1272.01        2978.50           2548          55.00       218.83
 1272.04        2978.75           2552          61.00       244.99
 1272.07        2979.00           2555          61.00       244.99
 1272.10        2979.25           2559          55.00       218.83
 1272.13        2979.50           2562          56.00       223.19
 1272.16        2979.75           2566          54.00       214.47
 1272.19        2980.00           2569          54.00       214.47
 1272.22        2980.25           2573          55.00       218.83
 1272.26        2980.50           2577          58.00       231.91
 1272.29        2980.75           2580          60.00       240.63
 1272.32        2981.00           2584          48.00       188.32
 1272.35        2981.25           2587          52.00       205.76
 1272.38        2981.50           2591          55.00       218.83
 1272.41        2981.75           2594          50.00       197.04
 1272.44        2982.00           2598          50.00       197.04
 1272.47        2982.25           2601          56.00       223.19
 1272.50        2982.50           2605          52.00       205.76
 1272.53        2982.75           2609          50.00       197.04
 1272.56        2983.00           2612          53.00       210.11
 1272.59        2983.25           2616          56.00       223.19
 1272.62        2983.50           2619          49.00       192.68
 1272.65        2983.75           2623          54.00       214.47
 1272.68        2984.00           2626          52.00       205.76
HS scan finished at 21:12:54
end
