************************************************************
  HS Scan of (1) Internal mercury lamp
************************************************************
Integration time is 0.2294 seconds per sample
dh100717Reading 51.44 .94 3.62pr1000
************************************************************
Dead Time -------------------------  3.4E-08 
Number of Cycles Used -------------  4 
Starting Wavelength (Angstroms) ---  2950 
Final Wavelength (Angstoms) -------  2984 
Wavelength Increment (Angstroms) --  .25 
Filter Wheel #1 Position ---------- (1) Ground quartz diffuser (ND=2.32)
Filter Wheel #2 Position ---------- (1) Neutral Density 0.494



************************************************************
HS scan start time = 01:22:39
Dark Count =  3.1 


Time (GMT)  Wavelength (Ang)  Step Number  Raw Counts  Counts/Second

   83.54        2950.00           2144         298.00      1285.58
   83.74        2950.25           2147         296.00      1276.86
   83.77        2950.50           2151         309.00      1333.54
   83.80        2950.75           2155         285.00      1228.91
   83.83        2951.00           2158         306.00      1320.46
   83.86        2951.25           2162         316.00      1364.06
   83.89        2951.50           2165         306.00      1320.46
   83.92        2951.75           2169         315.00      1359.70
   83.95        2952.00           2172         306.00      1320.46
   83.98        2952.25           2176         324.00      1398.93
   84.01        2952.50           2179         307.00      1324.82
   84.04        2952.75           2183         320.00      1381.49
   84.07        2953.00           2186         301.00      1298.66
   84.10        2953.25           2190         329.00      1420.73
   84.14        2953.50           2193         317.00      1368.42
   84.17        2953.75           2197         315.00      1359.70
   84.20        2954.00           2200         312.00      1346.62
   84.23        2954.25           2204         340.00      1468.69
   84.26        2954.50           2208         334.00      1442.53
   84.29        2954.75           2211         337.00      1455.61
   84.32        2955.00           2215         351.00      1516.64
   84.35        2955.25           2218         333.00      1438.17
   84.38        2955.50           2222         313.00      1350.98
   84.41        2955.75           2225         342.00      1477.41
   84.44        2956.00           2229         346.00      1494.84
   84.47        2956.25           2232         334.00      1442.53
   84.50        2956.50           2236         346.00      1494.84
   84.53        2956.75           2239         363.00      1568.96
   84.56        2957.00           2243         382.00      1651.79
   84.59        2957.25           2246         364.00      1573.32
   84.62        2957.50           2250         374.00      1616.92
   84.65        2957.75           2254         396.00      1712.83
   84.69        2958.00           2257         394.00      1704.11
   84.72        2958.25           2261         368.00      1590.76
   84.75        2958.50           2264         393.00      1699.75
   84.78        2958.75           2268         400.00      1730.27
   84.81        2959.00           2271         403.00      1743.35
   84.85        2959.25           2275         408.00      1765.15
   84.88        2959.50           2278         418.00      1808.74
   84.91        2959.75           2282         433.00      1874.14
   84.94        2960.00           2285         406.00      1756.43
   84.97        2960.25           2289         447.00      1935.18
   85.00        2960.50           2293         482.00      2087.77
   85.03        2960.75           2296         486.00      2105.21
   85.06        2961.00           2300         672.00      2916.16
   85.09        2961.25           2303        1658.00      7215.81
   85.12        2961.50           2307        5433.00     23689.08
   85.15        2961.75           2310        9608.00     41929.40
   85.18        2962.00           2314       16198.00     70766.85
   85.21        2962.25           2317       21732.00     95027.11
   85.24        2962.50           2321       29561.00    129417.00
   85.27        2962.75           2324       35246.00    154439.60
   85.30        2963.00           2328       42553.00    186664.40
   85.33        2963.25           2331       48349.00    212275.90
   85.37        2963.50           2335       56246.00    247243.60
   85.40        2963.75           2339       64226.00    282663.90
   85.43        2964.00           2342       69711.00    307059.60
   85.46        2964.25           2346       77124.00    340095.20
   85.49        2964.50           2349       82533.00    364247.30
   85.52        2964.75           2353       89337.00    394685.20
   85.55        2965.00           2356       95138.00    420686.30
   85.58        2965.25           2360      102009.00    451543.30
   85.61        2965.50           2363      106691.00    472607.20
   85.64        2965.75           2367      113704.00    504215.00
   85.67        2966.00           2370      119235.00    529191.80
   85.70        2966.25           2374      125089.00    555674.00
   85.73        2966.50           2378      128243.00    569962.00
   85.76        2966.75           2381      128588.00    571525.60
   85.79        2967.00           2385      128861.00    572763.10
   85.82        2967.25           2388      128479.00    571031.60
   85.85        2967.50           2392      128717.00    572110.40
   85.89        2967.75           2395      127350.00    565915.10
   85.92        2968.00           2399      123741.00    549571.60
   85.95        2968.25           2402      119633.00    530990.80
   85.98        2968.50           2406      112310.00    497926.70
   86.01        2968.75           2409      107537.00    476416.50
   86.04        2969.00           2413       99970.00    442379.50
   86.07        2969.25           2417       93177.00    411891.50
   86.10        2969.50           2420       88118.00    389227.30
   86.13        2969.75           2424       80997.00    357384.80
   86.16        2970.00           2427       74942.00    330363.50
   86.19        2970.25           2431       67098.00    295432.60
   86.22        2970.50           2434       61530.00    270687.80
   86.25        2970.75           2438       53660.00    235783.70
   86.28        2971.00           2441       47801.00    209852.50
   86.31        2971.25           2445       39743.00    174263.60
   86.34        2971.50           2449       32077.00    140485.90
   86.37        2971.75           2452       26268.00    114942.20
   86.41        2972.00           2456       18990.00     83001.56
   86.44        2972.25           2459       13391.00     58476.66
   86.47        2972.50           2463        6925.00     30204.93
   86.50        2972.75           2466        3040.00     13244.41
   86.53        2973.00           2470         895.00      3888.48
   86.56        2973.25           2473         593.00      2571.72
   86.59        2973.50           2477         539.00      2336.28
   86.62        2973.75           2481         474.00      2052.89
   86.65        2974.00           2484         513.00      2222.92
   86.68        2974.25           2488         469.00      2031.09
   86.71        2974.50           2491         461.00      1996.21
   86.74        2974.75           2495         463.00      2004.93
   86.77        2975.00           2498         427.00      1847.98
   86.80        2975.25           2502         443.00      1917.74
   86.83        2975.50           2505         419.00      1813.10
   86.86        2975.75           2509         428.00      1852.34
   86.89        2976.00           2512         423.00      1830.54
   86.92        2976.25           2516         416.00      1800.02
   86.96        2976.50           2520         399.00      1725.91
   86.99        2976.75           2523         408.00      1765.15
   87.02        2977.00           2527         394.00      1704.11
   87.05        2977.25           2530         407.00      1760.79
   87.08        2977.50           2534         379.00      1638.71
   87.11        2977.75           2537         382.00      1651.79
   87.14        2978.00           2541         365.00      1577.68
   87.17        2978.25           2544         366.00      1582.04
   87.20        2978.50           2548         361.00      1560.24
   87.23        2978.75           2552         396.00      1712.83
   87.26        2979.00           2555         343.00      1481.77
   87.29        2979.25           2559         375.00      1621.27
   87.32        2979.50           2562         356.00      1538.44
   87.35        2979.75           2566         347.00      1499.20
   87.38        2980.00           2569         333.00      1438.17
   87.41        2980.25           2573         338.00      1459.97
   87.44        2980.50           2577         334.00      1442.53
   87.48        2980.75           2580         364.00      1573.32
   87.51        2981.00           2584         364.00      1573.32
   87.54        2981.25           2587         310.00      1337.90
   87.57        2981.50           2591         330.00      1425.09
   87.60        2981.75           2594         338.00      1459.97
   87.63        2982.00           2598         314.00      1355.34
   87.66        2982.25           2601         318.00      1372.78
   87.69        2982.50           2605         315.00      1359.70
   87.72        2982.75           2609         309.00      1333.54
   87.75        2983.00           2612         327.00      1412.01
   87.78        2983.25           2616         316.00      1364.06
   87.81        2983.50           2619         314.00      1355.34
   87.84        2983.75           2623         304.00      1311.74
   87.87        2984.00           2626         310.00      1337.90
HS scan finished at 01:28:06
end
************************************************************
  HS Scan of (1) Internal mercury lamp
************************************************************
Integration time is 0.2294 seconds per sample
dh100717Reading 51.44 .94 3.66pr1000
************************************************************
Dead Time -------------------------  3.4E-08 
Number of Cycles Used -------------  4 
Starting Wavelength (Angstroms) ---  2950 
Final Wavelength (Angstoms) -------  2984 
Wavelength Increment (Angstroms) --  .25 
Filter Wheel #1 Position ---------- (1) Ground quartz diffuser (ND=2.32)
Filter Wheel #2 Position ---------- (1) Neutral Density 0.494



************************************************************
HS scan start time = 21:07:26
Dark Count =  3.9 


Time (GMT)  Wavelength (Ang)  Step Number  Raw Counts  Counts/Second

 1268.33        2950.00           2144         279.00      1199.26
 1268.52        2950.25           2147         243.00      1042.32
 1268.55        2950.50           2151         255.00      1094.64
 1268.58        2950.75           2155         256.00      1098.99
 1268.61        2951.00           2158         255.00      1094.64
 1268.64        2951.25           2162         246.00      1055.40
 1268.67        2951.50           2165         302.00      1299.53
 1268.70        2951.75           2169         243.00      1042.32
 1268.73        2952.00           2172         262.00      1125.15
 1268.76        2952.25           2176         293.00      1260.30
 1268.79        2952.50           2179         241.00      1033.60
 1268.83        2952.75           2183         253.00      1085.92
 1268.86        2953.00           2186         242.00      1037.96
 1268.89        2953.25           2190         242.00      1037.96
 1268.92        2953.50           2193         303.00      1303.89
 1268.95        2953.75           2197         266.00      1142.59
 1268.99        2954.00           2200         311.00      1338.77
 1269.02        2954.25           2204         275.00      1181.83
 1269.05        2954.50           2208         282.00      1212.34
 1269.09        2954.75           2211         256.00      1098.99
 1269.12        2955.00           2215         265.00      1138.23
 1269.15        2955.25           2218         266.00      1142.59
 1269.18        2955.50           2222         275.00      1181.83
 1269.21        2955.75           2225         291.00      1251.58
 1269.24        2956.00           2229         284.00      1221.06
 1269.27        2956.25           2232         282.00      1212.34
 1269.30        2956.50           2236         295.00      1269.02
 1269.33        2956.75           2239         286.00      1229.78
 1269.36        2957.00           2243         292.00      1255.94
 1269.39        2957.25           2246         292.00      1255.94
 1269.42        2957.50           2250         293.00      1260.30
 1269.45        2957.75           2254         291.00      1251.58
 1269.48        2958.00           2257         301.00      1295.17
 1269.51        2958.25           2261         307.00      1321.33
 1269.54        2958.50           2264         303.00      1303.89
 1269.57        2958.75           2268         314.00      1351.85
 1269.61        2959.00           2271         318.00      1369.29
 1269.64        2959.25           2275         303.00      1303.89
 1269.67        2959.50           2278         306.00      1316.97
 1269.70        2959.75           2282         346.00      1491.36
 1269.73        2960.00           2285         353.00      1521.87
 1269.76        2960.25           2289         349.00      1504.44
 1269.79        2960.50           2293         342.00      1473.92
 1269.82        2960.75           2296         383.00      1652.66
 1269.85        2961.00           2300         395.00      1704.98
 1269.88        2961.25           2303         587.00      2542.07
 1269.91        2961.50           2307        2235.00      9729.03
 1269.94        2961.75           2310        5238.00     22834.20
 1269.97        2962.00           2314       10315.00     45016.98
 1270.00        2962.25           2317       14581.00     63682.21
 1270.03        2962.50           2321       19918.00     87066.86
 1270.06        2962.75           2324       23915.00    104604.60
 1270.09        2963.00           2328       29214.00    127887.50
 1270.13        2963.25           2331       33950.00    148728.00
 1270.16        2963.50           2335       40201.00    176280.50
 1270.19        2963.75           2339       46235.00    202925.80
 1270.22        2964.00           2342       50566.00    222080.80
 1270.25        2964.25           2346       56277.00    247377.50
 1270.28        2964.50           2349       60399.00    265663.00
 1270.31        2964.75           2353       66254.00    291675.50
 1270.34        2965.00           2356       70823.00    312006.90
 1270.37        2965.25           2360       76653.00    337990.50
 1270.40        2965.50           2363       80557.00    355416.00
 1270.43        2965.75           2367       85816.00    378922.50
 1270.46        2966.00           2370       89589.00    395810.10
 1270.49        2966.25           2374       94692.00    418682.00
 1270.52        2966.50           2378       97406.00    430860.80
 1270.55        2966.75           2381       98255.00    434672.80
 1270.58        2967.00           2385       98515.00    435840.30
 1270.61        2967.25           2388       98722.00    436770.00
 1270.65        2967.50           2392       98455.00    435570.90
 1270.68        2967.75           2395       98247.00    434636.80
 1270.71        2968.00           2399       95991.00    424509.90
 1270.74        2968.25           2402       92828.00    410323.30
 1270.77        2968.50           2406       88089.00    389093.90
 1270.80        2968.75           2409       84227.00    371816.00
 1270.83        2969.00           2413       78430.00    345919.50
 1270.86        2969.25           2417       72964.00    321543.60
 1270.89        2969.50           2420       66657.00    293467.70
 1270.92        2969.75           2424       61475.00    270440.00
 1270.95        2970.00           2427       57753.00    253922.50
 1270.98        2970.25           2431       52264.00    229597.50
 1271.01        2970.50           2434       47700.00    209402.30
 1271.04        2970.75           2438       41525.00    182123.00
 1271.07        2971.00           2441       36854.00    161521.50
 1271.10        2971.25           2445       31583.00    138308.40
 1271.13        2971.50           2449       26262.00    114912.40
 1271.16        2971.75           2452       22621.00     98924.58
 1271.20        2972.00           2456       17257.00     75402.74
 1271.23        2972.25           2459       13109.00     57239.01
 1271.26        2972.50           2463        7761.00     33853.68
 1271.29        2972.75           2466        4375.00     19066.85
 1271.32        2973.00           2470        1337.00      5812.40
 1271.35        2973.25           2473         531.00      2297.91
 1271.38        2973.50           2477         396.00      1709.34
 1271.41        2973.75           2481         435.00      1879.37
 1271.44        2974.00           2484         398.00      1718.06
 1271.47        2974.25           2488         346.00      1491.36
 1271.50        2974.50           2491         368.00      1587.27
 1271.53        2974.75           2495         338.00      1456.48
 1271.56        2975.00           2498         314.00      1351.85
 1271.59        2975.25           2502         325.00      1399.81
 1271.62        2975.50           2505         324.00      1395.45
 1271.65        2975.75           2509         322.00      1386.73
 1271.68        2976.00           2512         291.00      1251.58
 1271.72        2976.25           2516         297.00      1277.74
 1271.75        2976.50           2520         306.00      1316.97
 1271.78        2976.75           2523         297.00      1277.74
 1271.81        2977.00           2527         300.00      1290.82
 1271.84        2977.25           2530         295.00      1269.02
 1271.87        2977.50           2534         282.00      1212.34
 1271.90        2977.75           2537         287.00      1234.14
 1271.93        2978.00           2541         274.00      1177.47
 1271.96        2978.25           2544         279.00      1199.26
 1271.99        2978.50           2548         267.00      1146.95
 1272.02        2978.75           2552         282.00      1212.34
 1272.05        2979.00           2555         261.00      1120.79
 1272.08        2979.25           2559         256.00      1098.99
 1272.11        2979.50           2562         267.00      1146.95
 1272.14        2979.75           2566         241.00      1033.60
 1272.17        2980.00           2569         256.00      1098.99
 1272.21        2980.25           2573         243.00      1042.32
 1272.24        2980.50           2577         242.00      1037.96
 1272.27        2980.75           2580         245.00      1051.04
 1272.30        2981.00           2584         233.00       998.73
 1272.33        2981.25           2587         298.00      1282.10
 1272.36        2981.50           2591         251.00      1077.20
 1272.39        2981.75           2594         235.00      1007.45
 1272.42        2982.00           2598         256.00      1098.99
 1272.45        2982.25           2601         244.00      1046.68
 1272.48        2982.50           2605         240.00      1029.24
 1272.51        2982.75           2609         230.00       985.65
 1272.54        2983.00           2612         221.00       946.41
 1272.57        2983.25           2616         242.00      1037.96
 1272.60        2983.50           2619         251.00      1077.20
 1272.63        2983.75           2623         215.00       920.26
 1272.66        2984.00           2626         217.00       928.97
HS scan finished at 21:12:53
end
