************************************************************
  HS Scan of (1) Internal mercury lamp
************************************************************
Integration time is 0.2294 seconds per sample
dh150718Reading 51.44 .94 3.56pr1000
************************************************************
Dead Time -------------------------  3.4E-08 
Number of Cycles Used -------------  4 
Starting Wavelength (Angstroms) ---  2950 
Final Wavelength (Angstoms) -------  2984 
Wavelength Increment (Angstroms) --  .25 
Filter Wheel #1 Position ---------- (1) Ground quartz diffuser (ND=2.32)
Filter Wheel #2 Position ---------- (1) Neutral Density 0.494



************************************************************
HS scan start time = 01:18:37
Dark Count =  2.9 


Time (GMT)  Wavelength (Ang)  Step Number  Raw Counts  Counts/Second

   79.52        2950.00           2144          74.00       309.94
   79.71        2950.25           2147          77.00       323.02
   79.74        2950.50           2151          76.00       318.66
   79.79        2950.75           2155          81.00       340.46
   79.82        2951.00           2158          79.00       331.74
   79.85        2951.25           2162          81.00       340.46
   79.88        2951.50           2165          77.00       323.02
   79.91        2951.75           2169          80.00       336.10
   79.94        2952.00           2172          71.00       296.86
   79.97        2952.25           2176          77.00       323.02
   80.00        2952.50           2179          83.00       349.18
   80.03        2952.75           2183          70.00       292.51
   80.07        2953.00           2186          81.00       340.46
   80.10        2953.25           2190          83.00       349.18
   80.13        2953.50           2193          87.00       366.61
   80.16        2953.75           2197          80.00       336.10
   80.19        2954.00           2200          78.00       327.38
   80.22        2954.25           2204          82.00       344.82
   80.25        2954.50           2208          83.00       349.18
   80.28        2954.75           2211          83.00       349.18
   80.31        2955.00           2215          87.00       366.61
   80.34        2955.25           2218         107.00       453.80
   80.37        2955.50           2222          95.00       401.49
   80.40        2955.75           2225          79.00       331.74
   80.43        2956.00           2229          83.00       349.18
   80.46        2956.25           2232          89.00       375.33
   80.49        2956.50           2236          91.00       384.05
   80.52        2956.75           2239          98.00       414.57
   80.55        2957.00           2243         115.00       488.67
   80.59        2957.25           2246          95.00       401.49
   80.62        2957.50           2250          95.00       401.49
   80.65        2957.75           2254         102.00       432.00
   80.68        2958.00           2257          99.00       418.92
   80.71        2958.25           2261         103.00       436.36
   80.74        2958.50           2264          99.00       418.92
   80.77        2958.75           2268         104.00       440.72
   80.80        2959.00           2271          99.00       418.92
   80.83        2959.25           2275          98.00       414.57
   80.86        2959.50           2278         129.00       549.71
   80.89        2959.75           2282         112.00       475.60
   80.92        2960.00           2285         142.00       606.38
   80.95        2960.25           2289         127.00       540.99
   80.98        2960.50           2293         128.00       545.35
   81.01        2960.75           2296         126.00       536.63
   81.04        2961.00           2300         162.00       693.56
   81.07        2961.25           2303         358.00      1548.03
   81.10        2961.50           2307        1321.00      5746.98
   81.14        2961.75           2310        2396.00     10435.70
   81.17        2962.00           2314        4253.00     18538.71
   81.20        2962.25           2317        5720.00     24943.12
   81.23        2962.50           2321        7764.00     33871.16
   81.26        2962.75           2324        9279.00     40492.06
   81.29        2963.00           2328       11384.00     49696.37
   81.32        2963.25           2331       12843.00     56079.36
   81.35        2963.50           2335       14676.00     64102.51
   81.38        2963.75           2339       16666.00     72817.81
   81.41        2964.00           2342       18500.00     80854.49
   81.44        2964.25           2346       20628.00     90185.00
   81.47        2964.50           2349       22186.00     97020.03
   81.50        2964.75           2353       24218.00    105939.30
   81.53        2965.00           2356       25567.00    111863.60
   81.56        2965.25           2360       27276.00    119372.40
   81.59        2965.50           2363       29105.00    127412.60
   81.62        2965.75           2367       31383.00    137432.80
   81.66        2966.00           2370       32562.00    142621.50
   81.69        2966.25           2374       34148.00    149604.30
   81.72        2966.50           2378       35233.00    154383.20
   81.75        2966.75           2381       35527.00    155678.40
   81.78        2967.00           2385       35322.00    154775.30
   81.81        2967.25           2388       35482.00    155480.20
   81.84        2967.50           2392       35597.00    155986.90
   81.87        2967.75           2395       35218.00    154317.10
   81.90        2968.00           2399       34117.00    149467.80
   81.93        2968.25           2402       32990.00    144505.60
   81.96        2968.50           2406       31017.00    135822.40
   81.99        2968.75           2409       29649.00    129804.80
   82.02        2969.00           2413       27840.00    121851.20
   82.05        2969.25           2417       25739.00    112619.20
   82.08        2969.50           2420       24882.00    108855.10
   82.11        2969.75           2424       22794.00     99688.22
   82.14        2970.00           2427       21324.00     93238.01
   82.18        2970.25           2431       19211.00     83971.31
   82.21        2970.50           2434       17636.00     77067.85
   82.24        2970.75           2438       15543.00     67898.95
   82.27        2971.00           2441       13709.00     59869.35
   82.30        2971.25           2445       11416.00     49836.33
   82.33        2971.50           2449        9125.00     39818.92
   82.36        2971.75           2452        7496.00     32700.25
   82.39        2972.00           2456        5575.00     24309.97
   82.42        2972.25           2459        3966.00     17286.09
   82.45        2972.50           2463        2140.00      9319.00
   82.48        2972.75           2466        1081.00      4700.40
   82.51        2973.00           2470         328.00      1417.24
   82.54        2973.25           2473         170.00       728.44
   82.57        2973.50           2477         155.00       663.05
   82.60        2973.75           2481         139.00       593.30
   82.63        2974.00           2484         123.00       523.55
   82.66        2974.25           2488         139.00       593.30
   82.70        2974.50           2491         133.00       567.14
   82.73        2974.75           2495         122.00       519.19
   82.76        2975.00           2498         130.00       554.06
   82.79        2975.25           2502         129.00       549.71
   82.82        2975.50           2505         122.00       519.19
   82.85        2975.75           2509         109.00       462.52
   82.88        2976.00           2512         103.00       436.36
   82.91        2976.25           2516         120.00       510.47
   82.94        2976.50           2520         103.00       436.36
   82.97        2976.75           2523          96.00       405.85
   83.00        2977.00           2527          99.00       418.92
   83.03        2977.25           2530          91.00       384.05
   83.06        2977.50           2534         109.00       462.52
   83.09        2977.75           2537          91.00       384.05
   83.12        2978.00           2541          94.00       397.13
   83.15        2978.25           2544          89.00       375.33
   83.18        2978.50           2548         101.00       427.64
   83.22        2978.75           2552          91.00       384.05
   83.25        2979.00           2555          84.00       353.54
   83.28        2979.25           2559          96.00       405.85
   83.31        2979.50           2562          96.00       405.85
   83.34        2979.75           2566          87.00       366.61
   83.37        2980.00           2569          89.00       375.33
   83.40        2980.25           2573          85.00       357.89
   83.43        2980.50           2577          86.00       362.25
   83.46        2980.75           2580          89.00       375.33
   83.49        2981.00           2584          78.00       327.38
   83.52        2981.25           2587          85.00       357.89
   83.55        2981.50           2591          77.00       323.02
   83.58        2981.75           2594          84.00       353.54
   83.61        2982.00           2598          83.00       349.18
   83.64        2982.25           2601          82.00       344.82
   83.67        2982.50           2605          85.00       357.89
   83.71        2982.75           2609          87.00       366.61
   83.74        2983.00           2612          84.00       353.54
   83.77        2983.25           2616          81.00       340.46
   83.80        2983.50           2619          87.00       366.61
   83.83        2983.75           2623          89.00       375.33
   83.86        2984.00           2626          71.00       296.86
HS scan finished at 01:24:05
end
************************************************************
  HS Scan of (1) Internal mercury lamp
************************************************************
Integration time is 0.2294 seconds per sample
dh150718Reading 51.44 .94 4.07pr1000
************************************************************
Dead Time -------------------------  3.4E-08 
Number of Cycles Used -------------  4 
Starting Wavelength (Angstroms) ---  2950 
Final Wavelength (Angstoms) -------  2984 
Wavelength Increment (Angstroms) --  .25 
Filter Wheel #1 Position ---------- (1) Ground quartz diffuser (ND=2.32)
Filter Wheel #2 Position ---------- (1) Neutral Density 0.494



************************************************************
HS scan start time = 21:07:26
Dark Count =  11.3 


Time (GMT)  Wavelength (Ang)  Step Number  Raw Counts  Counts/Second

 1268.33        2950.00           2144          68.00       247.17
 1268.52        2950.25           2147          63.00       225.37
 1268.56        2950.50           2151          62.00       221.01
 1268.59        2950.75           2155          62.00       221.01
 1268.62        2951.00           2158          59.00       207.94
 1268.65        2951.25           2162          63.00       225.37
 1268.68        2951.50           2165          66.00       238.45
 1268.71        2951.75           2169          65.00       234.09
 1268.74        2952.00           2172          68.00       247.17
 1268.77        2952.25           2176          63.00       225.37
 1268.80        2952.50           2179          66.00       238.45
 1268.83        2952.75           2183          63.00       225.37
 1268.86        2953.00           2186          67.00       242.81
 1268.89        2953.25           2190          71.00       260.25
 1268.92        2953.50           2193          66.00       238.45
 1268.95        2953.75           2197          60.00       212.29
 1268.98        2954.00           2200          68.00       247.17
 1269.01        2954.25           2204          70.00       255.89
 1269.04        2954.50           2208          64.00       229.73
 1269.08        2954.75           2211          65.00       234.09
 1269.11        2955.00           2215          72.00       264.61
 1269.14        2955.25           2218          71.00       260.25
 1269.17        2955.50           2222          71.00       260.25
 1269.20        2955.75           2225          77.00       286.40
 1269.23        2956.00           2229          74.00       273.32
 1269.26        2956.25           2232          72.00       264.61
 1269.29        2956.50           2236          77.00       286.40
 1269.32        2956.75           2239          68.00       247.17
 1269.35        2957.00           2243          70.00       255.89
 1269.38        2957.25           2246          74.00       273.32
 1269.41        2957.50           2250          69.00       251.53
 1269.44        2957.75           2254          75.00       277.68
 1269.47        2958.00           2257          83.00       312.56
 1269.50        2958.25           2261          83.00       312.56
 1269.53        2958.50           2264          80.00       299.48
 1269.56        2958.75           2268          79.00       295.12
 1269.59        2959.00           2271          81.00       303.84
 1269.63        2959.25           2275          86.00       325.64
 1269.66        2959.50           2278          89.00       338.71
 1269.69        2959.75           2282          97.00       373.59
 1269.72        2960.00           2285          95.00       364.87
 1269.75        2960.25           2289          93.00       356.15
 1269.78        2960.50           2293         112.00       438.98
 1269.81        2960.75           2296          96.00       369.23
 1269.84        2961.00           2300         155.00       626.43
 1269.87        2961.25           2303         383.00      1620.40
 1269.90        2961.50           2307        1270.00      5487.95
 1269.93        2961.75           2310        2091.00      9068.62
 1269.96        2962.00           2314        3422.00     14875.44
 1269.99        2962.25           2317        4562.00     19850.80
 1270.02        2962.50           2321        6145.00     26762.35
 1270.05        2962.75           2324        7225.00     31479.62
 1270.08        2963.00           2328        8645.00     37684.26
 1270.11        2963.25           2331        9866.00     43021.48
 1270.15        2963.50           2335       11250.00     49073.53
 1270.18        2963.75           2339       12894.00     56265.78
 1270.21        2964.00           2342       14111.00     61592.23
 1270.24        2964.25           2346       15828.00     69110.32
 1270.27        2964.50           2349       16892.00     73771.12
 1270.30        2964.75           2353       18360.00     80204.03
 1270.33        2965.00           2356       19927.00     87073.88
 1270.36        2965.25           2360       21335.00     93249.41
 1270.39        2965.50           2363       22092.00     96570.69
 1270.42        2965.75           2367       23848.00    104277.90
 1270.45        2966.00           2370       24617.00    107654.50
 1270.48        2966.25           2374       25816.00    112920.50
 1270.51        2966.50           2378       26237.00    114770.00
 1270.54        2966.75           2381       27096.00    118544.40
 1270.57        2967.00           2385       27125.00    118671.90
 1270.60        2967.25           2388       27147.00    118768.50
 1270.63        2967.50           2392       27225.00    119111.30
 1270.67        2967.75           2395       26499.00    115921.10
 1270.70        2968.00           2399       24810.00    108502.00
 1270.73        2968.25           2402       23769.00    103931.10
 1270.76        2968.50           2406       22486.00     98299.65
 1270.79        2968.75           2409       21120.00     92306.24
 1270.82        2969.00           2413       19781.00     86433.66
 1270.85        2969.25           2417       18634.00     81405.03
 1270.88        2969.50           2420       17281.00     75475.47
 1270.91        2969.75           2424       15716.00     68619.81
 1270.94        2970.00           2427       14514.00     63356.48
 1270.97        2970.25           2431       12922.00     56388.30
 1271.00        2970.50           2434       11894.00     51890.51
 1271.03        2970.75           2438       10428.00     45478.73
 1271.06        2971.00           2441        9206.00     40136.26
 1271.09        2971.25           2445        7681.00     33471.81
 1271.12        2971.50           2449        6103.00     26578.94
 1271.15        2971.75           2452        4963.00     21601.30
 1271.19        2972.00           2456        3535.00     15368.53
 1271.22        2972.25           2459        2572.00     11166.84
 1271.25        2972.50           2463        1320.00      5705.99
 1271.28        2972.75           2466         669.00      2867.32
 1271.31        2973.00           2470         195.00       800.81
 1271.34        2973.25           2473         145.00       582.84
 1271.37        2973.50           2477         128.00       508.73
 1271.40        2973.75           2481         119.00       469.49
 1271.43        2974.00           2484          94.00       360.51
 1271.46        2974.25           2488         100.00       386.67
 1271.49        2974.50           2491         100.00       386.67
 1271.52        2974.75           2495          95.00       364.87
 1271.55        2975.00           2498          92.00       351.79
 1271.58        2975.25           2502          84.00       316.92
 1271.61        2975.50           2505          87.00       329.99
 1271.64        2975.75           2509          88.00       334.35
 1271.67        2976.00           2512          86.00       325.64
 1271.71        2976.25           2516          82.00       308.20
 1271.74        2976.50           2520          88.00       334.35
 1271.77        2976.75           2523          76.00       282.04
 1271.80        2977.00           2527          77.00       286.40
 1271.83        2977.25           2530          83.00       312.56
 1271.86        2977.50           2534          77.00       286.40
 1271.89        2977.75           2537          76.00       282.04
 1271.92        2978.00           2541          79.00       295.12
 1271.95        2978.25           2544          83.00       312.56
 1271.98        2978.50           2548          69.00       251.53
 1272.01        2978.75           2552          73.00       268.97
 1272.04        2979.00           2555          65.00       234.09
 1272.07        2979.25           2559          81.00       303.84
 1272.10        2979.50           2562          72.00       264.61
 1272.13        2979.75           2566          69.00       251.53
 1272.16        2980.00           2569          68.00       247.17
 1272.19        2980.25           2573          61.00       216.65
 1272.23        2980.50           2577          69.00       251.53
 1272.26        2980.75           2580          72.00       264.61
 1272.29        2981.00           2584          68.00       247.17
 1272.32        2981.25           2587          70.00       255.89
 1272.35        2981.50           2591          61.00       216.65
 1272.38        2981.75           2594          63.00       225.37
 1272.41        2982.00           2598          64.00       229.73
 1272.44        2982.25           2601          69.00       251.53
 1272.47        2982.50           2605          68.00       247.17
 1272.50        2982.75           2609          64.00       229.73
 1272.53        2983.00           2612          63.00       225.37
 1272.56        2983.25           2616          61.00       216.65
 1272.59        2983.50           2619          65.00       234.09
 1272.62        2983.75           2623          64.00       229.73
 1272.65        2984.00           2626          65.00       234.09
HS scan finished at 21:12:53
end
