************************************************************
  HS Scan of (1) Internal mercury lamp
************************************************************
Integration time is 0.2294 seconds per sample
dh140717Reading 51.44 .94 3.43pr1000
************************************************************
Dead Time -------------------------  3.4E-08 
Number of Cycles Used -------------  4 
Starting Wavelength (Angstroms) ---  2950 
Final Wavelength (Angstoms) -------  2984 
Wavelength Increment (Angstroms) --  .25 
Filter Wheel #1 Position ---------- (1) Ground quartz diffuser (ND=2.32)
Filter Wheel #2 Position ---------- (1) Neutral Density 0.494



************************************************************
HS scan start time = 01:13:55
Dark Count =  1.9 


Time (GMT)  Wavelength (Ang)  Step Number  Raw Counts  Counts/Second

   74.81        2950.00           2144         356.00      1543.67
   75.01        2950.25           2147         353.00      1530.59
   75.04        2950.50           2151         356.00      1543.67
   75.07        2950.75           2155         359.00      1556.75
   75.10        2951.00           2158         337.00      1460.84
   75.13        2951.25           2162         353.00      1530.59
   75.16        2951.50           2165         359.00      1556.75
   75.19        2951.75           2169         356.00      1543.67
   75.22        2952.00           2172         387.00      1678.82
   75.25        2952.25           2176         360.00      1561.11
   75.28        2952.50           2179         405.00      1757.30
   75.31        2952.75           2183         388.00      1683.18
   75.34        2953.00           2186         370.00      1604.71
   75.37        2953.25           2190         380.00      1648.31
   75.41        2953.50           2193         382.00      1657.02
   75.44        2953.75           2197         385.00      1670.10
   75.47        2954.00           2200         385.00      1670.10
   75.50        2954.25           2204         397.00      1722.42
   75.53        2954.50           2208         408.00      1770.38
   75.56        2954.75           2211         407.00      1766.02
   75.59        2955.00           2215         420.00      1822.69
   75.62        2955.25           2218         384.00      1665.74
   75.65        2955.50           2222         430.00      1866.29
   75.68        2955.75           2225         411.00      1783.46
   75.71        2956.00           2229         425.00      1844.49
   75.74        2956.25           2232         420.00      1822.69
   75.77        2956.50           2236         414.00      1796.54
   75.80        2956.75           2239         432.00      1875.01
   75.83        2957.00           2243         442.00      1918.61
   75.86        2957.25           2246         447.00      1940.41
   75.89        2957.50           2250         463.00      2010.16
   75.93        2957.75           2254         430.00      1866.29
   75.96        2958.00           2257         451.00      1957.85
   75.99        2958.25           2261         449.00      1949.13
   76.02        2958.50           2264         461.00      2001.44
   76.05        2958.75           2268         459.00      1992.72
   76.08        2959.00           2271         461.00      2001.44
   76.11        2959.25           2275         464.00      2014.52
   76.14        2959.50           2278         489.00      2123.52
   76.17        2959.75           2282         479.00      2079.92
   76.20        2960.00           2285         482.00      2093.00
   76.23        2960.25           2289         542.00      2354.59
   76.26        2960.50           2293         526.00      2284.83
   76.29        2960.75           2296         562.00      2441.79
   76.32        2961.00           2300         649.00      2821.11
   76.35        2961.25           2303        1172.00      5101.58
   76.38        2961.50           2307        4769.00     20795.43
   76.41        2961.75           2310        9463.00     41300.77
   76.45        2962.00           2314       16837.00     73571.34
   76.48        2962.25           2317       22698.00     99271.28
   76.51        2962.50           2321       31135.00    136346.00
   76.54        2962.75           2324       37009.00    162213.50
   76.57        2963.00           2328       45063.00    197755.40
   76.60        2963.25           2331       51542.00    226409.70
   76.63        2963.50           2335       60583.00    266488.70
   76.66        2963.75           2339       69033.00    304047.20
   76.69        2964.00           2342       75502.00    332865.90
   76.73        2964.25           2346       83293.00    367649.50
   76.76        2964.50           2349       89901.00    397216.50
   76.79        2964.75           2353       98628.00    436356.80
   76.82        2965.00           2356      105212.00    465955.40
   76.85        2965.25           2360      113762.00    504482.20
   76.88        2965.50           2363      119317.00    529567.80
   76.91        2965.75           2367      127475.00    566487.00
   76.95        2966.00           2370      132977.00    591439.10
   76.98        2966.25           2374      140843.00    627187.00
   77.01        2966.50           2378      146002.00    650680.30
   77.04        2966.75           2381      147725.00    658535.10
   77.07        2967.00           2385      148158.00    660509.70
   77.10        2967.25           2388      148321.00    661253.10
   77.13        2967.50           2392      147974.00    659670.60
   77.16        2967.75           2395      147913.00    659392.40
   77.19        2968.00           2399      145443.00    648132.90
   77.22        2968.25           2402      140381.00    625085.00
   77.25        2968.50           2406      132588.00    589673.70
   77.28        2968.75           2409      126030.00    559940.80
   77.31        2969.00           2413      116786.00    518132.80
   77.34        2969.25           2417      108246.00    479615.10
   77.37        2969.50           2420      102250.00    452632.20
   77.40        2969.75           2424       93269.00    412309.40
   77.43        2970.00           2427       86881.00    383696.30
   77.47        2970.25           2431       77835.00    343273.00
   77.50        2970.50           2434       70515.00    310644.30
   77.53        2970.75           2438       61570.00    270870.70
   77.56        2971.00           2441       55467.00    243795.90
   77.59        2971.25           2445       46579.00    204455.10
   77.62        2971.50           2449       38344.00    168098.80
   77.65        2971.75           2452       32698.00    143224.50
   77.68        2972.00           2456       23789.00    104060.20
   77.71        2972.25           2459       17155.00     74964.58
   77.74        2972.50           2463        8892.00     38804.87
   77.77        2972.75           2466        4343.00     18935.90
   77.80        2973.00           2470        1341.00      5838.56
   77.83        2973.25           2473         773.00      3361.76
   77.86        2973.50           2477         640.00      2781.87
   77.89        2973.75           2481         593.00      2576.95
   77.92        2974.00           2484         570.00      2476.67
   77.95        2974.25           2488         544.00      2363.31
   77.99        2974.50           2491         572.00      2485.39
   78.02        2974.75           2495         523.00      2271.75
   78.05        2975.00           2498         512.00      2223.79
   78.08        2975.25           2502         513.00      2228.16
   78.11        2975.50           2505         505.00      2193.28
   78.14        2975.75           2509         485.00      2106.08
   78.17        2976.00           2512         470.00      2040.68
   78.20        2976.25           2516         483.00      2097.36
   78.23        2976.50           2520         468.00      2031.96
   78.26        2976.75           2523         483.00      2097.36
   78.29        2977.00           2527         453.00      1966.57
   78.32        2977.25           2530         464.00      2014.52
   78.35        2977.50           2534         457.00      1984.00
   78.38        2977.75           2537         446.00      1936.05
   78.41        2978.00           2541         435.00      1888.09
   78.44        2978.25           2544         455.00      1975.29
   78.47        2978.50           2548         433.00      1879.37
   78.50        2978.75           2552         416.00      1805.25
   78.54        2979.00           2555         413.00      1792.18
   78.57        2979.25           2559         428.00      1857.57
   78.60        2979.50           2562         416.00      1805.25
   78.63        2979.75           2566         426.00      1848.85
   78.66        2980.00           2569         412.00      1787.82
   78.69        2980.25           2573         399.00      1731.14
   78.72        2980.50           2577         412.00      1787.82
   78.75        2980.75           2580         413.00      1792.18
   78.78        2981.00           2584         402.00      1744.22
   78.81        2981.25           2587         380.00      1648.31
   78.84        2981.50           2591         380.00      1648.31
   78.87        2981.75           2594         416.00      1805.25
   78.90        2982.00           2598         396.00      1718.06
   78.93        2982.25           2601         419.00      1818.33
   78.96        2982.50           2605         373.00      1617.79
   78.99        2982.75           2609         391.00      1696.26
   79.02        2983.00           2612         382.00      1657.02
   79.06        2983.25           2616         374.00      1622.15
   79.09        2983.50           2619         379.00      1643.95
   79.12        2983.75           2623         405.00      1757.30
   79.15        2984.00           2626         373.00      1617.79
HS scan finished at 01:19:22
end
************************************************************
  HS Scan of (1) Internal mercury lamp
************************************************************
Integration time is 0.2294 seconds per sample
dh140717Reading 51.44 .94 3.56pr1000
************************************************************
Dead Time -------------------------  3.4E-08 
Number of Cycles Used -------------  4 
Starting Wavelength (Angstroms) ---  2950 
Final Wavelength (Angstoms) -------  2984 
Wavelength Increment (Angstroms) --  .25 
Filter Wheel #1 Position ---------- (1) Ground quartz diffuser (ND=2.32)
Filter Wheel #2 Position ---------- (1) Neutral Density 0.494



************************************************************
HS scan start time = 21:07:26
Dark Count =  3.3 


Time (GMT)  Wavelength (Ang)  Step Number  Raw Counts  Counts/Second

 1268.33        2950.00           2144         313.00      1350.11
 1268.52        2950.25           2147         326.00      1406.78
 1268.55        2950.50           2151         315.00      1358.83
 1268.58        2950.75           2155         330.00      1424.22
 1268.61        2951.00           2158         308.00      1328.31
 1268.64        2951.25           2162         317.00      1367.54
 1268.67        2951.50           2165         318.00      1371.90
 1268.70        2951.75           2169         309.00      1332.67
 1268.74        2952.00           2172         315.00      1358.83
 1268.77        2952.25           2176         329.00      1419.86
 1268.80        2952.50           2179         338.00      1459.10
 1268.83        2952.75           2183         350.00      1511.41
 1268.86        2953.00           2186         331.00      1428.58
 1268.89        2953.25           2190         320.00      1380.62
 1268.92        2953.50           2193         340.00      1467.82
 1268.95        2953.75           2197         336.00      1450.38
 1268.98        2954.00           2200         346.00      1493.97
 1269.01        2954.25           2204         357.00      1541.93
 1269.04        2954.50           2208         331.00      1428.58
 1269.07        2954.75           2211         389.00      1681.44
 1269.10        2955.00           2215         355.00      1533.21
 1269.13        2955.25           2218         337.00      1454.74
 1269.16        2955.50           2222         352.00      1520.13
 1269.19        2955.75           2225         364.00      1572.45
 1269.23        2956.00           2229         351.00      1515.77
 1269.26        2956.25           2232         367.00      1585.53
 1269.29        2956.50           2236         379.00      1637.84
 1269.32        2956.75           2239         374.00      1616.04
 1269.35        2957.00           2243         367.00      1585.53
 1269.38        2957.25           2246         427.00      1847.11
 1269.41        2957.50           2250         374.00      1616.04
 1269.44        2957.75           2254         417.00      1803.51
 1269.47        2958.00           2257         374.00      1616.04
 1269.50        2958.25           2261         390.00      1685.80
 1269.53        2958.50           2264         407.00      1759.91
 1269.56        2958.75           2268         417.00      1803.51
 1269.59        2959.00           2271         410.00      1772.99
 1269.62        2959.25           2275         427.00      1847.11
 1269.65        2959.50           2278         404.00      1746.83
 1269.68        2959.75           2282         424.00      1834.03
 1269.71        2960.00           2285         448.00      1938.66
 1269.74        2960.25           2289         433.00      1873.27
 1269.78        2960.50           2293         457.00      1977.90
 1269.81        2960.75           2296         518.00      2243.85
 1269.84        2961.00           2300         512.00      2217.69
 1269.87        2961.25           2303         739.00      3207.41
 1269.90        2961.50           2307        2625.00     11432.95
 1269.93        2961.75           2310        6312.00     27526.63
 1269.96        2962.00           2314       12566.00     54865.55
 1269.99        2962.25           2317       17947.00     78429.00
 1270.02        2962.50           2321       24874.00    108818.20
 1270.05        2962.75           2324       30249.00    132442.00
 1270.08        2963.00           2328       38130.00    167149.10
 1270.11        2963.25           2331       44623.00    195805.30
 1270.14        2963.50           2335       52775.00    231863.00
 1270.17        2963.75           2339       60189.00    264733.50
 1270.20        2964.00           2342       65460.00    288147.90
 1270.23        2964.25           2346       73445.00    323689.80
 1270.26        2964.50           2349       79067.00    348765.60
 1270.30        2964.75           2353       87069.00    384531.30
 1270.33        2965.00           2356       92646.00    409510.10
 1270.36        2965.25           2360      100422.00    444409.60
 1270.39        2965.50           2363      106174.00    470278.90
 1270.42        2965.75           2367      114264.00    506741.00
 1270.45        2966.00           2370      119263.00    529317.50
 1270.48        2966.25           2374      125256.00    556429.20
 1270.51        2966.50           2378      129081.00    573759.60
 1270.54        2966.75           2381      130239.00    579010.40
 1270.57        2967.00           2385      130906.00    582035.60
 1270.60        2967.25           2388      130710.00    581146.60
 1270.63        2967.50           2392      130580.00    580556.90
 1270.66        2967.75           2395      130132.00    578525.10
 1270.69        2968.00           2399      127270.00    565551.70
 1270.72        2968.25           2402      122268.00    542905.50
 1270.75        2968.50           2406      114757.00    508966.00
 1270.78        2968.75           2409      108978.00    482906.30
 1270.82        2969.00           2413      102228.00    452527.00
 1270.85        2969.25           2417       94925.00    419729.90
 1270.88        2969.50           2420       89432.00    395109.80
 1270.91        2969.75           2424       82096.00    362293.70
 1270.94        2970.00           2427       76359.00    336681.70
 1270.97        2970.25           2431       68123.00    299991.60
 1271.00        2970.50           2434       62600.00    275438.90
 1271.03        2970.75           2438       54752.00    240621.00
 1271.06        2971.00           2441       48588.00    213332.10
 1271.09        2971.25           2445       40399.00    177156.70
 1271.12        2971.50           2449       32876.00    144001.90
 1271.15        2971.75           2452       28107.00    123023.10
 1271.18        2972.00           2456       21213.00     92749.31
 1271.21        2972.25           2459       15404.00     67288.47
 1271.24        2972.50           2463        8133.00     35481.75
 1271.27        2972.75           2466        4060.00     17694.60
 1271.30        2973.00           2470        1390.00      6046.14
 1271.34        2973.25           2473         722.00      3133.29
 1271.37        2973.50           2477         555.00      2405.17
 1271.40        2973.75           2481         511.00      2213.33
 1271.43        2974.00           2484         485.00      2099.98
 1271.46        2974.25           2488         471.00      2038.94
 1271.49        2974.50           2491         458.00      1982.26
 1271.52        2974.75           2495         466.00      2017.14
 1271.55        2975.00           2498         434.00      1877.63
 1271.58        2975.25           2502         447.00      1934.30
 1271.61        2975.50           2505         417.00      1803.51
 1271.65        2975.75           2509         421.00      1820.95
 1271.69        2976.00           2512         406.00      1755.55
 1271.72        2976.25           2516         398.00      1720.68
 1271.75        2976.50           2520         406.00      1755.55
 1271.78        2976.75           2523         427.00      1847.11
 1271.81        2977.00           2527         397.00      1716.32
 1271.84        2977.25           2530         413.00      1786.07
 1271.87        2977.50           2534         380.00      1642.20
 1271.90        2977.75           2537         400.00      1729.40
 1271.93        2978.00           2541         361.00      1559.37
 1271.96        2978.25           2544         385.00      1664.00
 1271.99        2978.50           2548         355.00      1533.21
 1272.02        2978.75           2552         356.00      1537.57
 1272.05        2979.00           2555         379.00      1637.84
 1272.08        2979.25           2559         375.00      1620.40
 1272.12        2979.50           2562         357.00      1541.93
 1272.15        2979.75           2566         375.00      1620.40
 1272.18        2980.00           2569         339.00      1463.46
 1272.21        2980.25           2573         347.00      1498.33
 1272.24        2980.50           2577         334.00      1441.66
 1272.27        2980.75           2580         346.00      1493.97
 1272.30        2981.00           2584         333.00      1437.30
 1272.33        2981.25           2587         328.00      1415.50
 1272.36        2981.50           2591         326.00      1406.78
 1272.39        2981.75           2594         330.00      1424.22
 1272.42        2982.00           2598         316.00      1363.18
 1272.45        2982.25           2601         338.00      1459.10
 1272.48        2982.50           2605         320.00      1380.62
 1272.51        2982.75           2609         321.00      1384.98
 1272.54        2983.00           2612         305.00      1315.23
 1272.57        2983.25           2616         315.00      1358.83
 1272.60        2983.50           2619         301.00      1297.79
 1272.64        2983.75           2623         309.00      1332.67
 1272.67        2984.00           2626         312.00      1345.75
HS scan finished at 21:12:53
end
