************************************************************
  HS Scan of (1) Internal mercury lamp
************************************************************
Integration time is 0.2294 seconds per sample
dh150717Reading 51.44 .94 3.47pr1000
************************************************************
Dead Time -------------------------  3.4E-08 
Number of Cycles Used -------------  4 
Starting Wavelength (Angstroms) ---  2950 
Final Wavelength (Angstoms) -------  2984 
Wavelength Increment (Angstroms) --  .25 
Filter Wheel #1 Position ---------- (1) Ground quartz diffuser (ND=2.32)
Filter Wheel #2 Position ---------- (1) Neutral Density 0.494



************************************************************
HS scan start time = 01:18:41
Dark Count =  2.4 


Time (GMT)  Wavelength (Ang)  Step Number  Raw Counts  Counts/Second

   79.59        2950.00           2144         370.00      1602.53
   79.78        2950.25           2147         350.00      1515.34
   79.81        2950.50           2151         351.00      1519.69
   79.84        2950.75           2155         353.00      1528.41
   79.87        2951.00           2158         387.00      1676.64
   79.90        2951.25           2162         349.00      1510.98
   79.93        2951.50           2165         358.00      1550.21
   79.96        2951.75           2169         370.00      1602.53
   79.99        2952.00           2172         393.00      1702.80
   80.02        2952.25           2176         383.00      1659.20
   80.06        2952.50           2179         368.00      1593.81
   80.09        2952.75           2183         371.00      1606.89
   80.12        2953.00           2186         368.00      1593.81
   80.15        2953.25           2190         346.00      1497.90
   80.18        2953.50           2193         368.00      1593.81
   80.21        2953.75           2197         388.00      1681.00
   80.24        2954.00           2200         388.00      1681.00
   80.27        2954.25           2204         397.00      1720.24
   80.30        2954.50           2208         380.00      1646.13
   80.33        2954.75           2211         391.00      1694.08
   80.36        2955.00           2215         381.00      1650.49
   80.39        2955.25           2218         390.00      1689.72
   80.42        2955.50           2222         387.00      1676.64
   80.45        2955.75           2225         413.00      1790.00
   80.48        2956.00           2229         383.00      1659.20
   80.51        2956.25           2232         401.00      1737.68
   80.54        2956.50           2236         437.00      1894.63
   80.58        2956.75           2239         417.00      1807.43
   80.61        2957.00           2243         435.00      1885.91
   80.64        2957.25           2246         423.00      1833.59
   80.67        2957.50           2250         415.00      1798.72
   80.70        2957.75           2254         420.00      1820.51
   80.73        2958.00           2257         436.00      1890.27
   80.76        2958.25           2261         447.00      1938.23
   80.79        2958.50           2264         455.00      1973.11
   80.82        2958.75           2268         463.00      2007.98
   80.85        2959.00           2271         460.00      1994.90
   80.88        2959.25           2275         466.00      2021.06
   80.91        2959.50           2278         463.00      2007.98
   80.94        2959.75           2282         477.00      2069.02
   80.97        2960.00           2285         514.00      2230.33
   81.00        2960.25           2289         503.00      2182.38
   81.03        2960.50           2293         504.00      2186.74
   81.06        2960.75           2296         541.00      2348.05
   81.10        2961.00           2300         576.00      2500.65
   81.13        2961.25           2303         858.00      3730.20
   81.16        2961.50           2307        3261.00     14211.75
   81.19        2961.75           2310        7118.00     31051.08
   81.22        2962.00           2314       14108.00     61618.06
   81.25        2962.25           2317       19469.00     85104.66
   81.28        2962.50           2321       27300.00    119480.00
   81.31        2962.75           2324       33887.00    148457.10
   81.34        2963.00           2328       42592.00    186839.70
   81.37        2963.25           2331       49309.00    216525.40
   81.40        2963.50           2335       57513.00    252864.80
   81.43        2963.75           2339       66048.00    290766.20
   81.46        2964.00           2342       73122.00    322254.40
   81.49        2964.25           2346       82163.00    362597.10
   81.52        2964.50           2349       88166.00    389445.30
   81.55        2964.75           2353       96367.00    426204.00
   81.58        2965.00           2356      103121.00    456546.50
   81.61        2965.25           2360      111954.00    496324.40
   81.65        2965.50           2363      118294.00    524942.60
   81.68        2965.75           2367      125922.00    559449.40
   81.71        2966.00           2370      130990.00    582420.70
   81.74        2966.25           2374      137594.00    612408.70
   81.77        2966.50           2378      141935.00    632154.40
   81.80        2966.75           2381      142919.00    636634.00
   81.83        2967.00           2385      143313.00    638428.00
   81.86        2967.25           2388      143599.00    639730.50
   81.89        2967.50           2392      143387.00    638765.00
   81.92        2967.75           2395      142518.00    634808.30
   81.95        2968.00           2399      139185.00    619642.50
   81.98        2968.25           2402      133483.00    593733.80
   82.01        2968.50           2406      125745.00    558647.70
   82.04        2968.75           2409      120062.00    532933.30
   82.07        2969.00           2413      111921.00    496175.60
   82.10        2969.25           2417      104391.00    462259.10
   82.14        2969.50           2420       98289.00    434832.20
   82.17        2969.75           2424       90807.00    401272.70
   82.20        2970.00           2427       84641.00    373673.90
   82.23        2970.25           2431       75642.00    333487.90
   82.26        2970.50           2434       68611.00    302167.00
   82.29        2970.75           2438       59134.00    260055.60
   82.32        2971.00           2441       53042.00    233049.50
   82.35        2971.25           2445       44866.00    196882.90
   82.38        2971.50           2449       36780.00    161202.00
   82.41        2971.75           2452       30283.00    132595.60
   82.44        2972.00           2456       21901.00     95771.69
   82.47        2972.25           2459       16076.00     70235.53
   82.50        2972.50           2463        8724.00     38068.42
   82.53        2972.75           2466        4304.00     18763.49
   82.56        2973.00           2470        1423.00      6193.98
   82.59        2973.25           2473         781.00      3394.46
   82.62        2973.50           2477         634.00      2753.53
   82.66        2973.75           2481         566.00      2457.05
   82.69        2974.00           2484         564.00      2448.33
   82.72        2974.25           2488         552.00      2396.01
   82.75        2974.50           2491         504.00      2186.74
   82.78        2974.75           2495         512.00      2221.62
   82.81        2975.00           2498         494.00      2143.14
   82.84        2975.25           2502         506.00      2195.46
   82.87        2975.50           2505         491.00      2130.06
   82.90        2975.75           2509         477.00      2069.02
   82.93        2976.00           2512         460.00      1994.90
   82.96        2976.25           2516         491.00      2130.06
   82.99        2976.50           2520         470.00      2038.50
   83.02        2976.75           2523         432.00      1872.83
   83.05        2977.00           2527         452.00      1960.03
   83.08        2977.25           2530         444.00      1925.15
   83.11        2977.50           2534         421.00      1824.87
   83.14        2977.75           2537         432.00      1872.83
   83.17        2978.00           2541         408.00      1768.20
   83.21        2978.25           2544         437.00      1894.63
   83.24        2978.50           2548         406.00      1759.48
   83.27        2978.75           2552         415.00      1798.72
   83.30        2979.00           2555         405.00      1755.12
   83.33        2979.25           2559         406.00      1759.48
   83.36        2979.50           2562         427.00      1851.03
   83.39        2979.75           2566         397.00      1720.24
   83.42        2980.00           2569         379.00      1641.77
   83.45        2980.25           2573         390.00      1689.72
   83.48        2980.50           2577         403.00      1746.40
   83.51        2980.75           2580         402.00      1742.04
   83.54        2981.00           2584         377.00      1633.05
   83.57        2981.25           2587         394.00      1707.16
   83.60        2981.50           2591         375.00      1624.33
   83.63        2981.75           2594         369.00      1598.17
   83.66        2982.00           2598         396.00      1715.88
   83.69        2982.25           2601         386.00      1672.28
   83.73        2982.50           2605         374.00      1619.97
   83.76        2982.75           2609         371.00      1606.89
   83.79        2983.00           2612         366.00      1585.09
   83.82        2983.25           2616         351.00      1519.69
   83.85        2983.50           2619         369.00      1598.17
   83.88        2983.75           2623         386.00      1672.28
   83.91        2984.00           2626         366.00      1585.09
HS scan finished at 01:24:08
end
************************************************************
  HS Scan of (1) Internal mercury lamp
************************************************************
Integration time is 0.2294 seconds per sample
dh150717Reading 51.44 .94 3.68pr1000
************************************************************
Dead Time -------------------------  3.4E-08 
Number of Cycles Used -------------  4 
Starting Wavelength (Angstroms) ---  2950 
Final Wavelength (Angstoms) -------  2984 
Wavelength Increment (Angstroms) --  .25 
Filter Wheel #1 Position ---------- (1) Ground quartz diffuser (ND=2.32)
Filter Wheel #2 Position ---------- (1) Neutral Density 0.494



************************************************************
HS scan start time = 21:07:24
Dark Count =  4.4 


Time (GMT)  Wavelength (Ang)  Step Number  Raw Counts  Counts/Second

 1268.31        2950.00           2144         388.00      1672.28
 1268.50        2950.25           2147         357.00      1537.13
 1268.53        2950.50           2151         348.00      1497.90
 1268.56        2950.75           2155         381.00      1641.77
 1268.59        2951.00           2158         358.00      1541.49
 1268.62        2951.25           2162         368.00      1585.09
 1268.65        2951.50           2165         356.00      1532.77
 1268.68        2951.75           2169         361.00      1554.57
 1268.71        2952.00           2172         381.00      1641.77
 1268.74        2952.25           2176         379.00      1633.05
 1268.77        2952.50           2179         384.00      1654.84
 1268.81        2952.75           2183         373.00      1606.89
 1268.84        2953.00           2186         389.00      1676.64
 1268.87        2953.25           2190         375.00      1615.61
 1268.90        2953.50           2193         379.00      1633.05
 1268.93        2953.75           2197         385.00      1659.20
 1268.96        2954.00           2200         375.00      1615.61
 1268.99        2954.25           2204         378.00      1628.69
 1269.02        2954.50           2208         400.00      1724.60
 1269.05        2954.75           2211         382.00      1646.13
 1269.08        2955.00           2215         385.00      1659.20
 1269.11        2955.25           2218         405.00      1746.40
 1269.14        2955.50           2222         397.00      1711.52
 1269.17        2955.75           2225         380.00      1637.41
 1269.20        2956.00           2229         402.00      1733.32
 1269.23        2956.25           2232         417.00      1798.72
 1269.26        2956.50           2236         424.00      1829.23
 1269.29        2956.75           2239         409.00      1763.84
 1269.33        2957.00           2243         406.00      1750.76
 1269.36        2957.25           2246         445.00      1920.79
 1269.39        2957.50           2250         417.00      1798.72
 1269.42        2957.75           2254         438.00      1890.27
 1269.45        2958.00           2257         461.00      1990.54
 1269.48        2958.25           2261         460.00      1986.18
 1269.51        2958.50           2264         471.00      2034.14
 1269.54        2958.75           2268         479.00      2069.02
 1269.57        2959.00           2271         506.00      2186.74
 1269.60        2959.25           2275         469.00      2025.42
 1269.63        2959.50           2278         478.00      2064.66
 1269.66        2959.75           2282         494.00      2134.42
 1269.69        2960.00           2285         516.00      2230.33
 1269.72        2960.25           2289         520.00      2247.77
 1269.75        2960.50           2293         530.00      2291.37
 1269.78        2960.75           2296         541.00      2339.33
 1269.81        2961.00           2300         601.00      2600.93
 1269.85        2961.25           2303         976.00      4236.01
 1269.88        2961.50           2307        3623.00     15782.66
 1269.91        2961.75           2310        7986.00     34834.61
 1269.94        2962.00           2314       15253.00     66622.41
 1269.97        2962.25           2317       20763.00     90770.55
 1270.00        2962.50           2321       29186.00    127762.20
 1270.03        2962.75           2324       35266.00    154522.00
 1270.06        2963.00           2328       44178.00    193834.70
 1270.09        2963.25           2331       50173.00    220339.40
 1270.12        2963.50           2335       59118.00    259975.70
 1270.15        2963.75           2339       68026.00    299555.10
 1270.18        2964.00           2342       74964.00    330455.80
 1270.21        2964.25           2346       82889.00    365832.60
 1270.24        2964.50           2349       88628.00    391504.70
 1270.27        2964.75           2353       96913.00    428645.60
 1270.30        2965.00           2356      103924.00    460149.20
 1270.34        2965.25           2360      112773.00    500009.20
 1270.37        2965.50           2363      119353.00    529719.30
 1270.40        2965.75           2367      127378.00    566036.10
 1270.43        2966.00           2370      132917.00    591155.50
 1270.46        2966.25           2374      139749.00    622198.60
 1270.49        2966.50           2378      146400.00    652483.00
 1270.52        2966.75           2381      148476.00    661948.70
 1270.55        2967.00           2385      148940.00    664065.10
 1270.58        2967.25           2388      149703.00    667546.20
 1270.61        2967.50           2392      148969.00    664197.50
 1270.64        2967.75           2395      149181.00    665164.60
 1270.67        2968.00           2399      146581.00    653308.00
 1270.70        2968.25           2402      142108.00    632932.80
 1270.73        2968.50           2406      135231.00    601662.40
 1270.76        2968.75           2409      128732.00    572172.60
 1270.79        2969.00           2413      120060.00    532915.20
 1270.82        2969.25           2417      111019.00    492099.70
 1270.85        2969.50           2420      104245.00    461593.20
 1270.89        2969.75           2424       96060.00    424817.30
 1270.92        2970.00           2427       90130.00    398231.00
 1270.95        2970.25           2431       81413.00    359237.30
 1270.98        2970.50           2434       74585.00    328766.10
 1271.01        2970.75           2438       64437.00    283595.80
 1271.04        2971.00           2441       57761.00    253955.80
 1271.07        2971.25           2445       49045.00    215348.70
 1271.10        2971.50           2449       40705.00    178502.10
 1271.13        2971.75           2452       34208.00    149861.90
 1271.16        2972.00           2456       25644.00    112195.30
 1271.19        2972.25           2459       19207.00     83947.19
 1271.22        2972.50           2463       10910.00     47616.70
 1271.25        2972.75           2466        5874.00     25609.04
 1271.28        2973.00           2470        1942.00      8448.81
 1271.31        2973.25           2473         895.00      3882.81
 1271.34        2973.50           2477         596.00      2579.13
 1271.37        2973.75           2481         562.00      2430.89
 1271.41        2974.00           2484         543.00      2348.05
 1271.44        2974.25           2488         537.00      2321.89
 1271.47        2974.50           2491         529.00      2287.01
 1271.50        2974.75           2495         540.00      2334.97
 1271.53        2975.00           2498         484.00      2090.82
 1271.56        2975.25           2502         503.00      2173.66
 1271.59        2975.50           2505         495.00      2138.78
 1271.62        2975.75           2509         467.00      2016.70
 1271.65        2976.00           2512         454.00      1960.03
 1271.68        2976.25           2516         478.00      2064.66
 1271.71        2976.50           2520         453.00      1955.67
 1271.74        2976.75           2523         434.00      1872.83
 1271.77        2977.00           2527         428.00      1846.67
 1271.80        2977.25           2530         447.00      1929.51
 1271.83        2977.50           2534         433.00      1868.47
 1271.86        2977.75           2537         443.00      1912.07
 1271.89        2978.00           2541         428.00      1846.67
 1271.93        2978.25           2544         425.00      1833.59
 1271.96        2978.50           2548         411.00      1772.56
 1271.99        2978.75           2552         409.00      1763.84
 1272.02        2979.00           2555         420.00      1811.79
 1272.05        2979.25           2559         392.00      1689.72
 1272.08        2979.50           2562         415.00      1790.00
 1272.12        2979.75           2566         435.00      1877.19
 1272.15        2980.00           2569         381.00      1641.77
 1272.18        2980.25           2573         397.00      1711.52
 1272.21        2980.50           2577         404.00      1742.04
 1272.24        2980.75           2580         392.00      1689.72
 1272.27        2981.00           2584         383.00      1650.49
 1272.30        2981.25           2587         381.00      1641.77
 1272.33        2981.50           2591         361.00      1554.57
 1272.36        2981.75           2594         361.00      1554.57
 1272.39        2982.00           2598         367.00      1580.73
 1272.42        2982.25           2601         356.00      1532.77
 1272.45        2982.50           2605         350.00      1506.62
 1272.48        2982.75           2609         380.00      1637.41
 1272.51        2983.00           2612         353.00      1519.69
 1272.54        2983.25           2616         347.00      1493.54
 1272.57        2983.50           2619         337.00      1449.94
 1272.60        2983.75           2623         385.00      1659.20
 1272.64        2984.00           2626         350.00      1506.62
HS scan finished at 21:12:51
end
