************************************************************
  HS Scan of (1) Internal mercury lamp
************************************************************
Integration time is 0.2294 seconds per sample
dh160717Reading 51.44 .94 3.66pr1000
************************************************************
Dead Time -------------------------  3.4E-08 
Number of Cycles Used -------------  4 
Starting Wavelength (Angstroms) ---  2950 
Final Wavelength (Angstoms) -------  2984 
Wavelength Increment (Angstroms) --  .25 
Filter Wheel #1 Position ---------- (1) Ground quartz diffuser (ND=2.32)
Filter Wheel #2 Position ---------- (1) Neutral Density 0.494



************************************************************
HS scan start time = 01:22:06
Dark Count =  3.7 


Time (GMT)  Wavelength (Ang)  Step Number  Raw Counts  Counts/Second

   83.00        2950.00           2144         301.00      1296.05
   83.19        2950.25           2147         312.00      1344.00
   83.22        2950.50           2151         305.00      1313.49
   83.26        2950.75           2155         316.00      1361.44
   83.29        2951.00           2158         308.00      1326.56
   83.32        2951.25           2162         305.00      1313.49
   83.35        2951.50           2165         309.00      1330.92
   83.38        2951.75           2169         318.00      1370.16
   83.41        2952.00           2172         317.00      1365.80
   83.44        2952.25           2176         334.00      1439.91
   83.47        2952.50           2179         321.00      1383.24
   83.50        2952.75           2183         317.00      1365.80
   83.53        2953.00           2186         336.00      1448.63
   83.56        2953.25           2190         343.00      1479.15
   83.59        2953.50           2193         340.00      1466.07
   83.62        2953.75           2197         325.00      1400.68
   83.65        2954.00           2200         322.00      1387.60
   83.68        2954.25           2204         336.00      1448.63
   83.71        2954.50           2208         334.00      1439.91
   83.74        2954.75           2211         339.00      1461.71
   83.78        2955.00           2215         337.00      1452.99
   83.81        2955.25           2218         384.00      1657.90
   83.84        2955.50           2222         375.00      1618.66
   83.87        2955.75           2225         370.00      1596.86
   83.90        2956.00           2229         365.00      1575.06
   83.93        2956.25           2232         359.00      1548.90
   83.96        2956.50           2236         356.00      1535.83
   83.99        2956.75           2239         372.00      1605.58
   84.02        2957.00           2243         372.00      1605.58
   84.05        2957.25           2246         393.00      1697.13
   84.08        2957.50           2250         426.00      1841.00
   84.11        2957.75           2254         378.00      1631.74
   84.14        2958.00           2257         367.00      1583.78
   84.17        2958.25           2261         394.00      1701.49
   84.20        2958.50           2264         410.00      1771.25
   84.23        2958.75           2268         405.00      1749.45
   84.26        2959.00           2271         428.00      1849.72
   84.30        2959.25           2275         439.00      1897.68
   84.33        2959.50           2278         440.00      1902.04
   84.36        2959.75           2282         436.00      1884.60
   84.39        2960.00           2285         449.00      1941.28
   84.42        2960.25           2289         454.00      1963.08
   84.45        2960.50           2293         470.00      2032.83
   84.48        2960.75           2296         486.00      2102.59
   84.51        2961.00           2300         646.00      2800.18
   84.54        2961.25           2303        1144.00      4971.63
   84.57        2961.50           2307        4096.00     17849.98
   84.61        2961.75           2310        8191.00     35733.45
   84.65        2962.00           2314       15548.00     67917.33
   84.68        2962.25           2317       21441.00     93747.78
   84.71        2962.50           2321       28968.00    126806.70
   84.74        2962.75           2324       34215.00    149895.80
   84.77        2963.00           2328       41688.00    182843.30
   84.80        2963.25           2331       47249.00    207409.10
   84.83        2963.50           2335       55511.00    243982.90
   84.86        2963.75           2339       63358.00    278804.40
   84.89        2964.00           2342       69343.00    305418.90
   84.92        2964.25           2346       77466.00    341618.50
   84.95        2964.50           2349       83682.00    369380.30
   84.98        2964.75           2353       91999.00    406608.30
   85.01        2965.00           2356       97296.00    430367.90
   85.04        2965.25           2360      104428.00    462419.60
   85.08        2965.50           2363      110528.00    489889.50
   85.11        2965.75           2367      118564.00    526156.70
   85.14        2966.00           2370      123771.00    549704.70
   85.17        2966.25           2374      130579.00    580550.50
   85.20        2966.50           2378      134210.00    597028.70
   85.23        2966.75           2381      135753.00    604036.80
   85.26        2967.00           2385      135991.00    605118.10
   85.29        2967.25           2388      135927.00    604827.30
   85.32        2967.50           2392      135726.00    603914.10
   85.35        2967.75           2395      134918.00    600244.00
   85.38        2968.00           2399      131158.00    583176.90
   85.41        2968.25           2402      126469.00    561921.00
   85.44        2968.50           2406      119426.00    530052.40
   85.47        2968.75           2409      114622.00    508354.80
   85.50        2969.00           2413      107382.00    475715.70
   85.53        2969.25           2417       99116.00    438540.40
   85.56        2969.50           2420       92763.00    410032.80
   85.59        2969.75           2424       84022.00    370900.30
   85.63        2970.00           2427       78287.00    345282.20
   85.66        2970.25           2431       70141.00    308971.10
   85.69        2970.50           2434       64414.00    283496.70
   85.72        2970.75           2438       56455.00    248167.60
   85.75        2971.00           2441       50021.00    219669.90
   85.78        2971.25           2445       42043.00    184410.30
   85.81        2971.50           2449       34416.00    150781.00
   85.84        2971.75           2452       28109.00    123030.10
   85.87        2972.00           2456       20718.00     90576.25
   85.90        2972.25           2459       15594.00     68118.79
   85.93        2972.50           2463        8458.00     36900.24
   85.96        2972.75           2466        3856.00     16802.54
   85.99        2973.00           2470        1043.00      4531.21
   86.02        2973.25           2473         658.00      2852.50
   86.05        2973.50           2477         549.00      2377.26
   86.08        2973.75           2481         544.00      2355.46
   86.11        2974.00           2484         515.00      2229.03
   86.15        2974.25           2488         491.00      2124.39
   86.18        2974.50           2491         492.00      2128.75
   86.21        2974.75           2495         487.00      2106.95
   86.24        2975.00           2498         452.00      1954.36
   86.27        2975.25           2502         449.00      1941.28
   86.30        2975.50           2505         459.00      1984.88
   86.33        2975.75           2509         437.00      1888.96
   86.36        2976.00           2512         430.00      1858.44
   86.39        2976.25           2516         427.00      1845.36
   86.42        2976.50           2520         427.00      1845.36
   86.45        2976.75           2523         419.00      1810.49
   86.48        2977.00           2527         400.00      1727.65
   86.51        2977.25           2530         402.00      1736.37
   86.54        2977.50           2534         394.00      1701.49
   86.57        2977.75           2537         396.00      1710.21
   86.60        2978.00           2541         369.00      1592.50
   86.64        2978.25           2544         406.00      1753.81
   86.67        2978.50           2548         395.00      1705.85
   86.70        2978.75           2552         358.00      1544.54
   86.73        2979.00           2555         362.00      1561.98
   86.76        2979.25           2559         364.00      1570.70
   86.79        2979.50           2562         359.00      1548.90
   86.82        2979.75           2566         364.00      1570.70
   86.85        2980.00           2569         360.00      1553.26
   86.88        2980.25           2573         354.00      1527.11
   86.91        2980.50           2577         343.00      1479.15
   86.94        2980.75           2580         341.00      1470.43
   86.97        2981.00           2584         350.00      1509.67
   87.00        2981.25           2587         350.00      1509.67
   87.03        2981.50           2591         363.00      1566.34
   87.06        2981.75           2594         333.00      1435.55
   87.09        2982.00           2598         325.00      1400.68
   87.12        2982.25           2601         326.00      1405.04
   87.16        2982.50           2605         326.00      1405.04
   87.19        2982.75           2609         314.00      1352.72
   87.22        2983.00           2612         327.00      1409.40
   87.25        2983.25           2616         341.00      1470.43
   87.28        2983.50           2619         319.00      1374.52
   87.31        2983.75           2623         321.00      1383.24
   87.34        2984.00           2626         330.00      1422.48
HS scan finished at 01:27:34
end
************************************************************
  HS Scan of (1) Internal mercury lamp
************************************************************
Integration time is 0.2294 seconds per sample
dh160717Reading 51.44 .94 3.84pr1000
************************************************************
Dead Time -------------------------  3.4E-08 
Number of Cycles Used -------------  4 
Starting Wavelength (Angstroms) ---  2950 
Final Wavelength (Angstoms) -------  2984 
Wavelength Increment (Angstroms) --  .25 
Filter Wheel #1 Position ---------- (1) Ground quartz diffuser (ND=2.32)
Filter Wheel #2 Position ---------- (1) Neutral Density 0.494



************************************************************
HS scan start time = 21:07:24
Dark Count =  6.2 


Time (GMT)  Wavelength (Ang)  Step Number  Raw Counts  Counts/Second

 1268.30        2950.00           2144         272.00      1158.72
 1268.49        2950.25           2147         253.00      1075.89
 1268.52        2950.50           2151         261.00      1110.77
 1268.55        2950.75           2155         266.00      1132.56
 1268.58        2951.00           2158         262.00      1115.13
 1268.61        2951.25           2162         239.00      1014.86
 1268.65        2951.50           2165         253.00      1075.89
 1268.68        2951.75           2169         252.00      1071.53
 1268.71        2952.00           2172         259.00      1102.05
 1268.74        2952.25           2176         241.00      1023.58
 1268.77        2952.50           2179         267.00      1136.92
 1268.80        2952.75           2183         279.00      1189.24
 1268.83        2953.00           2186         264.00      1123.84
 1268.86        2953.25           2190         271.00      1154.36
 1268.89        2953.50           2193         272.00      1158.72
 1268.92        2953.75           2197         241.00      1023.58
 1268.95        2954.00           2200         260.00      1106.41
 1268.98        2954.25           2204         277.00      1180.52
 1269.01        2954.50           2208         274.00      1167.44
 1269.04        2954.75           2211         281.00      1197.96
 1269.07        2955.00           2215         268.00      1141.28
 1269.10        2955.25           2218         271.00      1154.36
 1269.13        2955.50           2222         276.00      1176.16
 1269.17        2955.75           2225         282.00      1202.32
 1269.20        2956.00           2229         290.00      1237.19
 1269.23        2956.25           2232         275.00      1171.80
 1269.26        2956.50           2236         278.00      1184.88
 1269.29        2956.75           2239         284.00      1211.03
 1269.32        2957.00           2243         269.00      1145.64
 1269.35        2957.25           2246         291.00      1241.55
 1269.38        2957.50           2250         295.00      1258.99
 1269.41        2957.75           2254         300.00      1280.79
 1269.44        2958.00           2257         314.00      1341.82
 1269.47        2958.25           2261         305.00      1302.59
 1269.50        2958.50           2264         301.00      1285.15
 1269.53        2958.75           2268         319.00      1363.62
 1269.56        2959.00           2271         329.00      1407.22
 1269.59        2959.25           2275         308.00      1315.66
 1269.62        2959.50           2278         339.00      1450.81
 1269.65        2959.75           2282         331.00      1415.94
 1269.69        2960.00           2285         341.00      1459.53
 1269.72        2960.25           2289         373.00      1599.04
 1269.75        2960.50           2293         373.00      1599.04
 1269.78        2960.75           2296         393.00      1686.23
 1269.81        2961.00           2300         443.00      1904.22
 1269.84        2961.25           2303         875.00      3787.76
 1269.87        2961.50           2307        3178.00     13833.01
 1269.90        2961.75           2310        6388.00     27845.88
 1269.93        2962.00           2314       11749.00     51278.52
 1269.96        2962.25           2317       15920.00     69535.61
 1269.99        2962.50           2321       21565.00     94280.81
 1270.02        2962.75           2324       25427.00    111234.20
 1270.05        2963.00           2328       31196.00    136595.40
 1270.08        2963.25           2331       36018.00    157827.20
 1270.11        2963.50           2335       42076.00    184544.90
 1270.14        2963.75           2339       47685.00    209325.80
 1270.17        2964.00           2342       51901.00    227980.00
 1270.21        2964.25           2346       58049.00    255225.20
 1270.24        2964.50           2349       62709.00    275910.10
 1270.27        2964.75           2353       68808.00    303026.70
 1270.30        2965.00           2356       72918.00    321328.40
 1270.33        2965.25           2360       78260.00    345150.50
 1270.36        2965.50           2363       82386.00    363576.60
 1270.39        2965.75           2367       88190.00    389535.70
 1270.42        2966.00           2370       92387.00    408336.10
 1270.45        2966.25           2374       97360.00    430644.00
 1270.48        2966.50           2378      100248.00    443614.60
 1270.51        2966.75           2381      101091.00    447402.90
 1270.54        2967.00           2385      101203.00    447906.30
 1270.57        2967.25           2388      101299.00    448337.80
 1270.60        2967.50           2392      101171.00    447762.50
 1270.63        2967.75           2395      100924.00    446652.40
 1270.66        2968.00           2399       98783.00    437033.60
 1270.69        2968.25           2402       95805.00    423664.90
 1270.72        2968.50           2406       90110.00    398133.30
 1270.76        2968.75           2409       85736.00    378554.30
 1270.79        2969.00           2413       80744.00    356240.90
 1270.82        2969.25           2417       75182.00    331419.80
 1270.85        2969.50           2420       71087.00    313172.20
 1270.88        2969.75           2424       65330.00    287557.10
 1270.91        2970.00           2427       59881.00    263353.70
 1270.94        2970.25           2431       53371.00    234489.80
 1270.97        2970.50           2434       48866.00    214548.90
 1271.00        2970.75           2438       42874.00    188068.00
 1271.03        2971.00           2441       38129.00    167131.90
 1271.06        2971.25           2445       32301.00    141458.20
 1271.09        2971.50           2449       25856.00    113118.60
 1271.12        2971.75           2452       21035.00     91955.75
 1271.15        2972.00           2456       15356.00     67065.57
 1271.18        2972.25           2459       11256.00     49122.08
 1271.21        2972.50           2463        5914.00     25775.85
 1271.24        2972.75           2466        3146.00     13693.38
 1271.28        2973.00           2470        1109.00      4808.11
 1271.31        2973.25           2473         565.00      2436.12
 1271.34        2973.50           2477         425.00      1825.75
 1271.37        2973.75           2481         395.00      1694.95
 1271.40        2974.00           2484         383.00      1642.64
 1271.43        2974.25           2488         373.00      1599.04
 1271.46        2974.50           2491         372.00      1594.68
 1271.49        2974.75           2495         350.00      1498.77
 1271.52        2975.00           2498         367.00      1572.88
 1271.55        2975.25           2502         328.00      1402.86
 1271.58        2975.50           2505         318.00      1359.26
 1271.61        2975.75           2509         328.00      1402.86
 1271.64        2976.00           2512         324.00      1385.42
 1271.67        2976.25           2516         329.00      1407.22
 1271.70        2976.50           2520         316.00      1350.54
 1271.73        2976.75           2523         317.00      1354.90
 1271.76        2977.00           2527         306.00      1306.95
 1271.80        2977.25           2530         304.00      1298.23
 1271.83        2977.50           2534         311.00      1328.74
 1271.86        2977.75           2537         303.00      1293.87
 1271.89        2978.00           2541         277.00      1180.52
 1271.92        2978.25           2544         284.00      1211.03
 1271.95        2978.50           2548         284.00      1211.03
 1271.98        2978.75           2552         285.00      1215.39
 1272.01        2979.00           2555         283.00      1206.68
 1272.04        2979.25           2559         281.00      1197.96
 1272.07        2979.50           2562         261.00      1110.77
 1272.10        2979.75           2566         257.00      1093.33
 1272.13        2980.00           2569         278.00      1184.88
 1272.16        2980.25           2573         281.00      1197.96
 1272.19        2980.50           2577         281.00      1197.96
 1272.22        2980.75           2580         267.00      1136.92
 1272.25        2981.00           2584         282.00      1202.32
 1272.28        2981.25           2587         253.00      1075.89
 1272.32        2981.50           2591         248.00      1054.09
 1272.35        2981.75           2594         262.00      1115.13
 1272.38        2982.00           2598         260.00      1106.41
 1272.41        2982.25           2601         262.00      1115.13
 1272.44        2982.50           2605         256.00      1088.97
 1272.47        2982.75           2609         251.00      1067.17
 1272.50        2983.00           2612         264.00      1123.84
 1272.53        2983.25           2616         238.00      1010.50
 1272.56        2983.50           2619         249.00      1058.45
 1272.59        2983.75           2623         282.00      1202.32
 1272.62        2984.00           2626         241.00      1023.58
HS scan finished at 21:12:51
end
