************************************************************
  HS Scan of (1) Internal mercury lamp
************************************************************
Integration time is 0.2294 seconds per sample
dh250717Reading 51.44 .94 3.54pr1000
************************************************************
Dead Time -------------------------  3.4E-08 
Number of Cycles Used -------------  4 
Starting Wavelength (Angstroms) ---  2950 
Final Wavelength (Angstoms) -------  2984 
Wavelength Increment (Angstroms) --  .25 
Filter Wheel #1 Position ---------- (1) Ground quartz diffuser (ND=2.32)
Filter Wheel #2 Position ---------- (1) Neutral Density 0.494



************************************************************
HS scan start time = 02:42:17
Dark Count =  3.1 


Time (GMT)  Wavelength (Ang)  Step Number  Raw Counts  Counts/Second

  163.18        2950.00           2144         330.00      1425.09
  163.37        2950.25           2147         323.00      1394.57
  163.40        2950.50           2151         337.00      1455.61
  163.43        2950.75           2155         347.00      1499.20
  163.46        2951.00           2158         337.00      1455.61
  163.49        2951.25           2162         335.00      1446.89
  163.52        2951.50           2165         329.00      1420.73
  163.56        2951.75           2169         326.00      1407.65
  163.59        2952.00           2172         345.00      1490.49
  163.62        2952.25           2176         343.00      1481.77
  163.65        2952.50           2179         357.00      1542.80
  163.68        2952.75           2183         334.00      1442.53
  163.71        2953.00           2186         355.00      1534.08
  163.74        2953.25           2190         363.00      1568.96
  163.77        2953.50           2193         360.00      1555.88
  163.80        2953.75           2197         365.00      1577.68
  163.83        2954.00           2200         352.00      1521.00
  163.86        2954.25           2204         354.00      1529.72
  163.89        2954.50           2208         379.00      1638.71
  163.92        2954.75           2211         375.00      1621.27
  163.95        2955.00           2215         374.00      1616.92
  163.98        2955.25           2218         395.00      1708.47
  164.01        2955.50           2222         394.00      1704.11
  164.04        2955.75           2225         396.00      1712.83
  164.08        2956.00           2229         376.00      1625.63
  164.11        2956.25           2232         371.00      1603.84
  164.14        2956.50           2236         410.00      1773.86
  164.17        2956.75           2239         399.00      1725.91
  164.20        2957.00           2243         429.00      1856.70
  164.23        2957.25           2246         405.00      1752.07
  164.26        2957.50           2250         427.00      1847.98
  164.29        2957.75           2254         415.00      1795.66
  164.32        2958.00           2257         438.00      1895.94
  164.35        2958.25           2261         417.00      1804.38
  164.38        2958.50           2264         438.00      1895.94
  164.41        2958.75           2268         447.00      1935.18
  164.44        2959.00           2271         450.00      1948.25
  164.47        2959.25           2275         478.00      2070.33
  164.50        2959.50           2278         450.00      1948.25
  164.53        2959.75           2282         461.00      1996.21
  164.56        2960.00           2285         503.00      2179.32
  164.60        2960.25           2289         482.00      2087.77
  164.63        2960.50           2293         507.00      2196.76
  164.66        2960.75           2296         514.00      2227.28
  164.69        2961.00           2300         625.00      2711.24
  164.72        2961.25           2303        1042.00      4529.47
  164.75        2961.50           2307        4024.00     17538.35
  164.78        2961.75           2310        7995.00     34879.61
  164.81        2962.00           2314       14607.00     63799.54
  164.84        2962.25           2317       20613.00     90118.34
  164.87        2962.50           2321       29717.00    130103.00
  164.90        2962.75           2324       36160.00    158466.60
  164.93        2963.00           2328       44937.00    197193.40
  164.96        2963.25           2331       51082.00    224368.10
  164.99        2963.50           2335       58987.00    259400.20
  165.02        2963.75           2339       67518.00    297300.90
  165.05        2964.00           2342       74162.00    326886.30
  165.08        2964.25           2346       82876.00    365780.30
  165.12        2964.50           2349       89155.00    393870.20
  165.15        2964.75           2353       98257.00    434685.30
  165.18        2965.00           2356      104997.00    464982.50
  165.21        2965.25           2360      113763.00    504481.20
  165.24        2965.50           2363      120035.00    532808.00
  165.27        2965.75           2367      127680.00    567410.50
  165.30        2966.00           2370      132706.00    590203.80
  165.33        2966.25           2374      140018.00    623428.10
  165.36        2966.50           2378      143895.00    641075.40
  165.39        2966.75           2381      144678.00    644642.00
  165.42        2967.00           2385      144662.00    644569.10
  165.45        2967.25           2388      145054.00    646355.00
  165.48        2967.50           2392      144502.00    643840.30
  165.51        2967.75           2395      143315.00    638434.00
  165.54        2968.00           2399      139062.00    619080.00
  165.57        2968.25           2402      133316.00    592972.60
  165.60        2968.50           2406      125143.00    555918.50
  165.64        2968.75           2409      119463.00    530222.30
  165.67        2969.00           2413      111632.00    494869.30
  165.70        2969.25           2417      103780.00    459507.30
  165.73        2969.50           2420       98147.00    434191.40
  165.76        2969.75           2424       90094.00    398075.50
  165.79        2970.00           2427       84097.00    371238.40
  165.82        2970.25           2431       75133.00    331215.10
  165.85        2970.50           2434       68175.00    300223.80
  165.88        2970.75           2438       58708.00    258162.40
  165.91        2971.00           2441       52278.00    229663.00
  165.94        2971.25           2445       44521.00    195355.60
  165.97        2971.50           2449       37039.00    162340.40
  166.00        2971.75           2452       30318.00    132746.50
  166.03        2972.00           2456       21662.00     94719.99
  166.06        2972.25           2459       15685.00     68519.96
  166.09        2972.50           2463        8247.00     35980.78
  166.12        2972.75           2466        3946.00     17197.94
  166.16        2973.00           2470        1280.00      5567.31
  166.19        2973.25           2473         720.00      3125.44
  166.22        2973.50           2477         584.00      2532.48
  166.25        2973.75           2481         536.00      2323.20
  166.28        2974.00           2484         519.00      2249.08
  166.31        2974.25           2488         490.00      2122.65
  166.34        2974.50           2491         504.00      2183.68
  166.37        2974.75           2495         487.00      2109.57
  166.40        2975.00           2498         483.00      2092.13
  166.43        2975.25           2502         484.00      2096.49
  166.46        2975.50           2505         507.00      2196.76
  166.49        2975.75           2509         459.00      1987.49
  166.52        2976.00           2512         442.00      1913.38
  166.55        2976.25           2516         444.00      1922.10
  166.58        2976.50           2520         441.00      1909.02
  166.61        2976.75           2523         445.00      1926.46
  166.64        2977.00           2527         434.00      1878.50
  166.68        2977.25           2530         416.00      1800.02
  166.71        2977.50           2534         406.00      1756.43
  166.74        2977.75           2537         406.00      1756.43
  166.77        2978.00           2541         414.00      1791.30
  166.80        2978.25           2544         420.00      1817.46
  166.83        2978.50           2548         405.00      1752.07
  166.86        2978.75           2552         390.00      1686.67
  166.89        2979.00           2555         417.00      1804.38
  166.92        2979.25           2559         381.00      1647.43
  166.95        2979.50           2562         373.00      1612.56
  166.98        2979.75           2566         378.00      1634.35
  167.01        2980.00           2569         371.00      1603.84
  167.04        2980.25           2573         395.00      1708.47
  167.07        2980.50           2577         377.00      1629.99
  167.10        2980.75           2580         350.00      1512.28
  167.13        2981.00           2584         370.00      1599.48
  167.16        2981.25           2587         342.00      1477.41
  167.20        2981.50           2591         355.00      1534.08
  167.23        2981.75           2594         330.00      1425.09
  167.26        2982.00           2598         324.00      1398.93
  167.29        2982.25           2601         356.00      1538.44
  167.32        2982.50           2605         335.00      1446.89
  167.35        2982.75           2609         344.00      1486.13
  167.38        2983.00           2612         333.00      1438.17
  167.41        2983.25           2616         328.00      1416.37
  167.44        2983.50           2619         325.00      1403.29
  167.47        2983.75           2623         318.00      1372.78
  167.50        2984.00           2626         324.00      1398.93
HS scan finished at 02:47:43
end
************************************************************
  HS Scan of (1) Internal mercury lamp
************************************************************
Integration time is 0.2294 seconds per sample
dh250717Reading 51.44 .94 3.8pr1000
************************************************************
Dead Time -------------------------  3.4E-08 
Number of Cycles Used -------------  4 
Starting Wavelength (Angstroms) ---  2950 
Final Wavelength (Angstoms) -------  2984 
Wavelength Increment (Angstroms) --  .25 
Filter Wheel #1 Position ---------- (1) Ground quartz diffuser (ND=2.32)
Filter Wheel #2 Position ---------- (1) Neutral Density 0.494



************************************************************
HS scan start time = 21:07:26
Dark Count =  6.4 


Time (GMT)  Wavelength (Ang)  Step Number  Raw Counts  Counts/Second

 1268.34        2950.00           2144         313.00      1336.59
 1268.53        2950.25           2147         296.00      1262.48
 1268.56        2950.50           2151         310.00      1323.51
 1268.59        2950.75           2155         311.00      1327.87
 1268.63        2951.00           2158         318.00      1358.39
 1268.66        2951.25           2162         293.00      1249.40
 1268.69        2951.50           2165         319.00      1362.75
 1268.72        2951.75           2169         320.00      1367.11
 1268.75        2952.00           2172         319.00      1362.75
 1268.78        2952.25           2176         336.00      1436.86
 1268.81        2952.50           2179         322.00      1375.83
 1268.84        2952.75           2183         356.00      1524.05
 1268.87        2953.00           2186         325.00      1388.91
 1268.90        2953.25           2190         348.00      1489.18
 1268.93        2953.50           2193         332.00      1419.42
 1268.96        2953.75           2197         362.00      1550.21
 1268.99        2954.00           2200         340.00      1454.30
 1269.02        2954.25           2204         346.00      1480.46
 1269.05        2954.50           2208         334.00      1428.14
 1269.08        2954.75           2211         364.00      1558.93
 1269.12        2955.00           2215         356.00      1524.05
 1269.15        2955.25           2218         360.00      1541.49
 1269.18        2955.50           2222         347.00      1484.82
 1269.21        2955.75           2225         408.00      1750.76
 1269.24        2956.00           2229         381.00      1633.05
 1269.27        2956.25           2232         380.00      1628.69
 1269.30        2956.50           2236         392.00      1681.00
 1269.33        2956.75           2239         375.00      1606.89
 1269.36        2957.00           2243         406.00      1742.04
 1269.39        2957.25           2246         376.00      1611.25
 1269.42        2957.50           2250         383.00      1641.77
 1269.45        2957.75           2254         396.00      1698.44
 1269.48        2958.00           2257         416.00      1785.64
 1269.51        2958.25           2261         423.00      1816.15
 1269.54        2958.50           2264         415.00      1781.28
 1269.57        2958.75           2268         410.00      1759.48
 1269.60        2959.00           2271         439.00      1885.91
 1269.63        2959.25           2275         432.00      1855.39
 1269.67        2959.50           2278         441.00      1894.63
 1269.70        2959.75           2282         438.00      1881.55
 1269.73        2960.00           2285         458.00      1968.75
 1269.76        2960.25           2289         447.00      1920.79
 1269.79        2960.50           2293         500.00      2151.86
 1269.82        2960.75           2296         513.00      2208.54
 1269.85        2961.00           2300         554.00      2387.29
 1269.88        2961.25           2303         881.00      3813.05
 1269.91        2961.50           2307        3584.00     15603.74
 1269.94        2961.75           2310        7559.00     32960.20
 1269.97        2962.00           2314       13557.00     59188.74
 1270.00        2962.25           2317       18424.00     80506.03
 1270.03        2962.50           2321       26448.00    115718.60
 1270.06        2962.75           2324       32398.00    141884.20
 1270.09        2963.00           2328       40815.00    178978.60
 1270.12        2963.25           2331       46438.00    203812.00
 1270.16        2963.50           2335       54563.00    239769.70
 1270.19        2963.75           2339       62908.00    276793.20
 1270.22        2964.00           2342       69527.00    306225.90
 1270.25        2964.25           2346       77916.00    343614.50
 1270.28        2964.50           2349       83852.00    370128.20
 1270.31        2964.75           2353       91352.00    403696.70
 1270.34        2965.00           2356       97193.00    429893.40
 1270.37        2965.25           2360      105141.00    465615.70
 1270.40        2965.50           2363      111067.00    492307.10
 1270.43        2965.75           2367      119037.00    528282.10
 1270.46        2966.00           2370      124155.00    551430.60
 1270.49        2966.25           2374      130774.00    581422.80
 1270.52        2966.50           2378      136652.00    608109.20
 1270.55        2966.75           2381      138844.00    618073.60
 1270.58        2967.00           2385      138971.00    618651.10
 1270.61        2967.25           2388      139620.00    621602.80
 1270.64        2967.50           2392      139446.00    620811.30
 1270.67        2967.75           2395      139036.00    618946.60
 1270.71        2968.00           2399      136575.00    607759.30
 1270.74        2968.25           2402      132156.00    587692.70
 1270.77        2968.50           2406      125548.00    557737.50
 1270.80        2968.75           2409      119915.00    532250.60
 1270.83        2969.00           2413      112188.00    497361.70
 1270.86        2969.25           2417      103646.00    458889.70
 1270.89        2969.50           2420       97246.00    430131.40
 1270.92        2969.75           2424       89652.00    396081.10
 1270.95        2970.00           2427       84344.00    372328.00
 1270.98        2970.25           2431       76001.00    335071.10
 1271.01        2970.50           2434       69392.00    305625.00
 1271.04        2970.75           2438       60080.00    264236.00
 1271.07        2971.00           2441       54141.00    237900.00
 1271.10        2971.25           2445       45897.00    201420.90
 1271.13        2971.50           2449       38243.00    167633.60
 1271.16        2971.75           2452       32163.00    140849.90
 1271.19        2972.00           2456       24027.00    105085.30
 1271.23        2972.25           2459       18206.00     79550.53
 1271.26        2972.50           2463       10177.00     44402.64
 1271.29        2972.75           2466        5237.00     22818.92
 1271.32        2973.00           2470        1620.00      7035.68
 1271.35        2973.25           2473         792.00      3424.98
 1271.38        2973.50           2477         549.00      2365.49
 1271.41        2973.75           2481         523.00      2252.13
 1271.44        2974.00           2484         527.00      2269.57
 1271.47        2974.25           2488         500.00      2151.86
 1271.50        2974.50           2491         482.00      2073.38
 1271.53        2974.75           2495         483.00      2077.74
 1271.57        2975.00           2498         480.00      2064.66
 1271.60        2975.25           2502         459.00      1973.11
 1271.63        2975.50           2505         446.00      1916.43
 1271.66        2975.75           2509         445.00      1912.07
 1271.69        2976.00           2512         430.00      1846.67
 1271.72        2976.25           2516         436.00      1872.83
 1271.75        2976.50           2520         435.00      1868.47
 1271.78        2976.75           2523         411.00      1763.84
 1271.81        2977.00           2527         427.00      1833.59
 1271.84        2977.25           2530         429.00      1842.31
 1271.87        2977.50           2534         403.00      1728.96
 1271.91        2977.75           2537         407.00      1746.40
 1271.94        2978.00           2541         407.00      1746.40
 1271.97        2978.25           2544         396.00      1698.44
 1272.00        2978.50           2548         393.00      1685.36
 1272.03        2978.75           2552         395.00      1694.08
 1272.06        2979.00           2555         407.00      1746.40
 1272.09        2979.25           2559         395.00      1694.08
 1272.12        2979.50           2562         375.00      1606.89
 1272.15        2979.75           2566         384.00      1646.13
 1272.18        2980.00           2569         372.00      1593.81
 1272.21        2980.25           2573         366.00      1567.65
 1272.24        2980.50           2577         383.00      1641.77
 1272.27        2980.75           2580         383.00      1641.77
 1272.30        2981.00           2584         360.00      1541.49
 1272.33        2981.25           2587         368.00      1576.37
 1272.36        2981.50           2591         371.00      1589.45
 1272.39        2981.75           2594         343.00      1467.38
 1272.43        2982.00           2598         362.00      1550.21
 1272.46        2982.25           2601         333.00      1423.78
 1272.49        2982.50           2605         348.00      1489.18
 1272.52        2982.75           2609         327.00      1397.63
 1272.55        2983.00           2612         340.00      1454.30
 1272.58        2983.25           2616         352.00      1506.62
 1272.61        2983.50           2619         357.00      1528.41
 1272.64        2983.75           2623         348.00      1489.18
 1272.67        2984.00           2626         346.00      1480.46
HS scan finished at 21:12:54
end
