************************************************************
  HS Scan of (1) Internal mercury lamp
************************************************************
Integration time is 0.2294 seconds per sample
dh270717Reading 51.44 .94 3.37pr1000
************************************************************
Dead Time -------------------------  3.4E-08 
Number of Cycles Used -------------  4 
Starting Wavelength (Angstroms) ---  2950 
Final Wavelength (Angstoms) -------  2984 
Wavelength Increment (Angstroms) --  .25 
Filter Wheel #1 Position ---------- (1) Ground quartz diffuser (ND=2.32)
Filter Wheel #2 Position ---------- (1) Neutral Density 0.494



************************************************************
HS scan start time = 01:14:37
Dark Count =  1.7 


Time (GMT)  Wavelength (Ang)  Step Number  Raw Counts  Counts/Second

   75.51        2950.00           2144         383.00      1662.26
   75.70        2950.25           2147         384.00      1666.62
   75.73        2950.50           2151         375.00      1627.38
   75.77        2950.75           2155         412.00      1788.69
   75.80        2951.00           2158         372.00      1614.30
   75.83        2951.25           2162         396.00      1718.93
   75.86        2951.50           2165         383.00      1662.26
   75.89        2951.75           2169         386.00      1675.34
   75.92        2952.00           2172         384.00      1666.62
   75.95        2952.25           2176         417.00      1810.49
   75.98        2952.50           2179         400.00      1736.37
   76.01        2952.75           2183         407.00      1766.89
   76.04        2953.00           2186         376.00      1631.74
   76.07        2953.25           2190         401.00      1740.73
   76.10        2953.50           2193         399.00      1732.01
   76.13        2953.75           2197         415.00      1801.77
   76.16        2954.00           2200         394.00      1710.21
   76.19        2954.25           2204         428.00      1858.44
   76.22        2954.50           2208         433.00      1880.24
   76.25        2954.75           2211         437.00      1897.68
   76.29        2955.00           2215         429.00      1862.80
   76.32        2955.25           2218         416.00      1806.13
   76.35        2955.50           2222         444.00      1928.20
   76.38        2955.75           2225         445.00      1932.56
   76.41        2956.00           2229         431.00      1871.52
   76.44        2956.25           2232         453.00      1967.44
   76.47        2956.50           2236         437.00      1897.68
   76.50        2956.75           2239         427.00      1854.08
   76.53        2957.00           2243         434.00      1884.60
   76.56        2957.25           2246         456.00      1980.52
   76.59        2957.50           2250         456.00      1980.52
   76.62        2957.75           2254         467.00      2028.47
   76.65        2958.00           2257         461.00      2002.32
   76.68        2958.25           2261         483.00      2098.23
   76.71        2958.50           2264         488.00      2120.03
   76.74        2958.75           2268         479.00      2080.79
   76.77        2959.00           2271         520.00      2259.55
   76.81        2959.25           2275         519.00      2255.19
   76.84        2959.50           2278         522.00      2268.27
   76.87        2959.75           2282         543.00      2359.82
   76.90        2960.00           2285         532.00      2311.86
   76.93        2960.25           2289         554.00      2407.78
   76.96        2960.50           2293         608.00      2643.22
   76.99        2960.75           2296         580.00      2521.14
   77.02        2961.00           2300         657.00      2856.86
   77.05        2961.25           2303        1163.00      5063.21
   77.08        2961.50           2307        4599.00     20054.21
   77.11        2961.75           2310        9331.00     40724.61
   77.14        2962.00           2314       17426.00     76152.90
   77.17        2962.25           2317       23606.00    103257.70
   77.20        2962.50           2321       31644.00    138586.50
   77.23        2962.75           2324       37808.00    165736.50
   77.26        2963.00           2328       46835.00    205587.70
   77.29        2963.25           2331       53983.00    237220.80
   77.32        2963.50           2335       63889.00    281172.60
   77.36        2963.75           2339       73643.00    324579.30
   77.39        2964.00           2342       80407.00    354755.90
   77.42        2964.25           2346       89532.00    395564.70
   77.45        2964.50           2349       96252.00    425691.00
   77.48        2964.75           2353      106097.00    469939.40
   77.51        2965.00           2356      112583.00    499164.30
   77.54        2965.25           2360      121026.00    537295.10
   77.57        2965.50           2363      127495.00    566578.50
   77.60        2965.75           2367      135765.00    604100.50
   77.63        2966.00           2370      141712.00    631142.60
   77.66        2966.25           2374      150696.00    672090.10
   77.69        2966.50           2378      156943.00    700631.00
   77.72        2966.75           2381      158632.00    708357.30
   77.75        2967.00           2385      158704.00    708686.70
   77.78        2967.25           2388      159049.00    710265.50
   77.81        2967.50           2392      159254.00    711203.60
   77.84        2967.75           2395      158662.00    708494.50
   77.88        2968.00           2399      156458.00    698413.20
   77.91        2968.25           2402      152038.00    678216.60
   77.94        2968.50           2406      144452.00    643618.80
   77.97        2968.75           2409      137309.00    611116.50
   78.00        2969.00           2413      127642.00    567244.60
   78.03        2969.25           2417      118397.00    525411.10
   78.06        2969.50           2420      111793.00    495601.60
   78.09        2969.75           2424      102772.00    454980.20
   78.12        2970.00           2427       94818.00    419257.00
   78.15        2970.25           2431       84102.00    371266.90
   78.18        2970.50           2434       76514.00    337380.20
   78.21        2970.75           2438       67685.00    298050.00
   78.24        2971.00           2441       60639.00    266738.10
   78.27        2971.25           2445       51601.00    226671.80
   78.30        2971.50           2449       42582.00    186798.60
   78.33        2971.75           2452       35281.00    154600.00
   78.36        2972.00           2456       25477.00    111473.60
   78.40        2972.25           2459       18913.00     82670.15
   78.43        2972.50           2463       10843.00     47335.49
   78.46        2972.75           2466        5605.00     24446.20
   78.49        2973.00           2470        1760.00      7666.78
   78.52        2973.25           2473         888.00      3864.06
   78.55        2973.50           2477         659.00      2865.58
   78.58        2973.75           2481         593.00      2577.82
   78.61        2974.00           2484         610.00      2651.94
   78.64        2974.25           2488         578.00      2512.42
   78.67        2974.50           2491         549.00      2385.98
   78.70        2974.75           2495         539.00      2342.38
   78.73        2975.00           2498         558.00      2425.22
   78.76        2975.25           2502         553.00      2403.42
   78.79        2975.50           2505         560.00      2433.94
   78.82        2975.75           2509         512.00      2224.67
   78.85        2976.00           2512         510.00      2215.95
   78.88        2976.25           2516         503.00      2185.43
   78.92        2976.50           2520         512.00      2224.67
   78.95        2976.75           2523         454.00      1971.80
   78.98        2977.00           2527         452.00      1963.08
   79.01        2977.25           2530         455.00      1976.16
   79.04        2977.50           2534         488.00      2120.03
   79.07        2977.75           2537         460.00      1997.96
   79.10        2978.00           2541         437.00      1897.68
   79.13        2978.25           2544         441.00      1915.12
   79.16        2978.50           2548         458.00      1989.24
   79.19        2978.75           2552         429.00      1862.80
   79.22        2979.00           2555         427.00      1854.08
   79.25        2979.25           2559         435.00      1888.96
   79.28        2979.50           2562         429.00      1862.80
   79.31        2979.75           2566         420.00      1823.57
   79.34        2980.00           2569         420.00      1823.57
   79.37        2980.25           2573         425.00      1845.36
   79.40        2980.50           2577         437.00      1897.68
   79.44        2980.75           2580         424.00      1841.00
   79.47        2981.00           2584         417.00      1810.49
   79.50        2981.25           2587         367.00      1592.50
   79.53        2981.50           2591         405.00      1758.17
   79.56        2981.75           2594         403.00      1749.45
   79.59        2982.00           2598         397.00      1723.29
   79.62        2982.25           2601         395.00      1714.57
   79.65        2982.50           2605         381.00      1653.54
   79.68        2982.75           2609         404.00      1753.81
   79.71        2983.00           2612         372.00      1614.30
   79.74        2983.25           2616         385.00      1670.98
   79.77        2983.50           2619         374.00      1623.02
   79.80        2983.75           2623         380.00      1649.18
   79.83        2984.00           2626         379.00      1644.82
HS scan finished at 01:20:03
end
************************************************************
  HS Scan of (1) Internal mercury lamp
************************************************************
Integration time is 0.2294 seconds per sample
dh270717Reading 51.44 .94 3.43pr1000
************************************************************
Dead Time -------------------------  3.4E-08 
Number of Cycles Used -------------  4 
Starting Wavelength (Angstroms) ---  2950 
Final Wavelength (Angstoms) -------  2984 
Wavelength Increment (Angstroms) --  .25 
Filter Wheel #1 Position ---------- (1) Ground quartz diffuser (ND=2.32)
Filter Wheel #2 Position ---------- (1) Neutral Density 0.494



************************************************************
HS scan start time = 21:07:27
Dark Count =  2 


Time (GMT)  Wavelength (Ang)  Step Number  Raw Counts  Counts/Second

 1268.35        2950.00           2144         344.00      1490.92
 1268.54        2950.25           2147         346.00      1499.64
 1268.57        2950.50           2151         340.00      1473.48
 1268.60        2950.75           2155         341.00      1477.84
 1268.63        2951.00           2158         377.00      1634.79
 1268.67        2951.25           2162         347.00      1504.00
 1268.70        2951.50           2165         354.00      1534.52
 1268.73        2951.75           2169         348.00      1508.36
 1268.76        2952.00           2172         377.00      1634.79
 1268.79        2952.25           2176         367.00      1591.19
 1268.82        2952.50           2179         371.00      1608.63
 1268.85        2952.75           2183         375.00      1626.07
 1268.88        2953.00           2186         350.00      1517.08
 1268.91        2953.25           2190         376.00      1630.43
 1268.94        2953.50           2193         373.00      1617.35
 1268.97        2953.75           2197         375.00      1626.07
 1269.00        2954.00           2200         373.00      1617.35
 1269.03        2954.25           2204         387.00      1678.39
 1269.06        2954.50           2208         365.00      1582.47
 1269.09        2954.75           2211         377.00      1634.79
 1269.12        2955.00           2215         381.00      1652.23
 1269.15        2955.25           2218         389.00      1687.11
 1269.19        2955.50           2222         399.00      1730.70
 1269.22        2955.75           2225         389.00      1687.11
 1269.25        2956.00           2229         398.00      1726.34
 1269.28        2956.25           2232         412.00      1787.38
 1269.31        2956.50           2236         407.00      1765.58
 1269.34        2956.75           2239         407.00      1765.58
 1269.37        2957.00           2243         422.00      1830.98
 1269.40        2957.25           2246         433.00      1878.93
 1269.43        2957.50           2250         397.00      1721.98
 1269.46        2957.75           2254         417.00      1809.18
 1269.49        2958.00           2257         429.00      1861.50
 1269.52        2958.25           2261         430.00      1865.86
 1269.55        2958.50           2264         442.00      1918.17
 1269.58        2958.75           2268         447.00      1939.97
 1269.61        2959.00           2271         450.00      1953.05
 1269.64        2959.25           2275         456.00      1979.21
 1269.67        2959.50           2278         464.00      2014.09
 1269.70        2959.75           2282         474.00      2057.69
 1269.74        2960.00           2285         506.00      2197.20
 1269.77        2960.25           2289         517.00      2245.16
 1269.80        2960.50           2293         526.00      2284.40
 1269.83        2960.75           2296         545.00      2367.23
 1269.86        2961.00           2300         613.00      2663.71
 1269.89        2961.25           2303        1071.00      4660.72
 1269.92        2961.50           2307        3819.00     16648.48
 1269.95        2961.75           2310        8175.00     35670.96
 1269.98        2962.00           2314       14984.00     65455.01
 1270.01        2962.25           2317       20626.00     90180.18
 1270.04        2962.50           2321       28204.00    123455.20
 1270.07        2962.75           2324       33983.00    148881.60
 1270.10        2963.00           2328       42697.00    187305.00
 1270.13        2963.25           2331       49126.00    215717.60
 1270.16        2963.50           2335       57417.00    252440.80
 1270.19        2963.75           2339       65353.00    287678.00
 1270.23        2964.00           2342       71217.00    313769.90
 1270.26        2964.25           2346       79649.00    351369.70
 1270.29        2964.50           2349       86305.00    381118.60
 1270.32        2964.75           2353       94443.00    417573.70
 1270.35        2965.00           2356       99815.00    441688.10
 1270.38        2965.25           2360      107902.00    478065.20
 1270.41        2965.50           2363      113328.00    502523.60
 1270.44        2965.75           2367      121084.00    537556.00
 1270.47        2966.00           2370      127245.00    565444.30
 1270.50        2966.25           2374      134365.00    597740.30
 1270.53        2966.50           2378      139237.00    619880.80
 1270.56        2966.75           2381      140476.00    625516.80
 1270.59        2967.00           2385      140873.00    627323.00
 1270.62        2967.25           2388      140680.00    626444.90
 1270.65        2967.50           2392      141023.00    628005.60
 1270.68        2967.75           2395      141161.00    628633.60
 1270.71        2968.00           2399      138570.00    616847.70
 1270.75        2968.25           2402      134467.00    598203.50
 1270.78        2968.50           2406      126968.00    564189.30
 1270.81        2968.75           2409      120916.00    536796.30
 1270.84        2969.00           2413      113995.00    505533.00
 1270.87        2969.25           2417      107346.00    475561.30
 1270.90        2969.50           2420      101619.00    449795.00
 1270.93        2969.75           2424       92213.00    407575.10
 1270.96        2970.00           2427       85220.00    376265.00
 1270.99        2970.25           2431       76571.00    337633.10
 1271.02        2970.50           2434       70247.00    309450.60
 1271.05        2970.75           2438       61808.00    271927.10
 1271.08        2971.00           2441       55785.00    245204.90
 1271.11        2971.25           2445       47207.00    207230.90
 1271.14        2971.50           2449       38005.00    166603.70
 1271.17        2971.75           2452       31556.00    138198.00
 1271.20        2972.00           2456       22928.00    100280.30
 1271.23        2972.25           2459       17012.00     74337.61
 1271.27        2972.50           2463        9816.00     42843.53
 1271.30        2972.75           2466        5403.00     23562.90
 1271.33        2973.00           2470        1721.00      7495.37
 1271.36        2973.25           2473         823.00      3579.34
 1271.39        2973.50           2477         647.00      2811.95
 1271.42        2973.75           2481         539.00      2341.08
 1271.45        2974.00           2484         553.00      2402.11
 1271.48        2974.25           2488         544.00      2362.88
 1271.51        2974.50           2491         501.00      2175.40
 1271.54        2974.75           2495         515.00      2236.44
 1271.57        2975.00           2498         501.00      2175.40
 1271.60        2975.25           2502         481.00      2088.20
 1271.63        2975.50           2505         514.00      2232.08
 1271.66        2975.75           2509         470.00      2040.25
 1271.69        2976.00           2512         475.00      2062.05
 1271.72        2976.25           2516         451.00      1957.41
 1271.75        2976.50           2520         472.00      2048.97
 1271.79        2976.75           2523         450.00      1953.05
 1271.82        2977.00           2527         429.00      1861.50
 1271.85        2977.25           2530         419.00      1817.90
 1271.88        2977.50           2534         437.00      1896.37
 1271.91        2977.75           2537         437.00      1896.37
 1271.94        2978.00           2541         431.00      1870.21
 1271.97        2978.25           2544         418.00      1813.54
 1272.00        2978.50           2548         422.00      1830.98
 1272.03        2978.75           2552         420.00      1822.26
 1272.06        2979.00           2555         404.00      1752.50
 1272.09        2979.25           2559         406.00      1761.22
 1272.12        2979.50           2562         402.00      1743.78
 1272.15        2979.75           2566         409.00      1774.30
 1272.18        2980.00           2569         400.00      1735.06
 1272.21        2980.25           2573         415.00      1800.46
 1272.24        2980.50           2577         386.00      1674.03
 1272.27        2980.75           2580         389.00      1687.11
 1272.30        2981.00           2584         417.00      1809.18
 1272.34        2981.25           2587         383.00      1660.95
 1272.37        2981.50           2591         360.00      1560.68
 1272.40        2981.75           2594         381.00      1652.23
 1272.43        2982.00           2598         398.00      1726.34
 1272.46        2982.25           2601         370.00      1604.27
 1272.49        2982.50           2605         381.00      1652.23
 1272.52        2982.75           2609         365.00      1582.47
 1272.55        2983.00           2612         381.00      1652.23
 1272.58        2983.25           2616         365.00      1582.47
 1272.61        2983.50           2619         362.00      1569.40
 1272.64        2983.75           2623         382.00      1656.59
 1272.67        2984.00           2626         374.00      1621.71
HS scan finished at 21:12:54
end
