************************************************************
  HS Scan of (1) Internal mercury lamp
************************************************************
Integration time is 0.2294 seconds per sample
dh240718Reading 51.44 .94 3.74pr1000
************************************************************
Dead Time -------------------------  3.4E-08 
Number of Cycles Used -------------  4 
Starting Wavelength (Angstroms) ---  2950 
Final Wavelength (Angstoms) -------  2984 
Wavelength Increment (Angstroms) --  .25 
Filter Wheel #1 Position ---------- (1) Ground quartz diffuser (ND=2.32)
Filter Wheel #2 Position ---------- (1) Neutral Density 0.494



************************************************************
HS scan start time = 01:22:37
Dark Count =  4.3 


Time (GMT)  Wavelength (Ang)  Step Number  Raw Counts  Counts/Second

   83.52        2950.00           2144          69.00       282.04
   83.71        2950.25           2147          59.00       238.45
   83.74        2950.50           2151          66.00       268.97
   83.77        2950.75           2155          63.00       255.89
   83.80        2951.00           2158          65.00       264.61
   83.83        2951.25           2162          72.00       295.12
   83.86        2951.50           2165          58.00       234.09
   83.89        2951.75           2169          66.00       268.97
   83.92        2952.00           2172          63.00       255.89
   83.95        2952.25           2176          72.00       295.12
   83.98        2952.50           2179          74.00       303.84
   84.01        2952.75           2183          65.00       264.61
   84.04        2953.00           2186          68.00       277.68
   84.07        2953.25           2190          70.00       286.40
   84.11        2953.50           2193          67.00       273.32
   84.14        2953.75           2197          66.00       268.97
   84.17        2954.00           2200          70.00       286.40
   84.20        2954.25           2204          77.00       316.92
   84.23        2954.50           2208          78.00       321.28
   84.26        2954.75           2211          72.00       295.12
   84.29        2955.00           2215          65.00       264.61
   84.32        2955.25           2218          73.00       299.48
   84.35        2955.50           2222          69.00       282.04
   84.38        2955.75           2225          70.00       286.40
   84.41        2956.00           2229          67.00       273.32
   84.44        2956.25           2232          80.00       329.99
   84.47        2956.50           2236          74.00       303.84
   84.50        2956.75           2239          82.00       338.71
   84.53        2957.00           2243          71.00       290.76
   84.56        2957.25           2246          82.00       338.71
   84.59        2957.50           2250          80.00       329.99
   84.63        2957.75           2254          80.00       329.99
   84.66        2958.00           2257          79.00       325.64
   84.69        2958.25           2261         100.00       417.18
   84.72        2958.50           2264          81.00       334.35
   84.75        2958.75           2268          88.00       364.87
   84.78        2959.00           2271          92.00       382.31
   84.81        2959.25           2275          87.00       360.51
   84.84        2959.50           2278          86.00       356.15
   84.87        2959.75           2282          92.00       382.31
   84.90        2960.00           2285         109.00       456.42
   84.93        2960.25           2289          95.00       395.38
   84.96        2960.50           2293         109.00       456.42
   84.99        2960.75           2296          99.00       412.82
   85.02        2961.00           2300         150.00       635.15
   85.05        2961.25           2303         420.00      1812.23
   85.08        2961.50           2307        1287.00      5592.61
   85.12        2961.75           2310        2236.00      9731.64
   85.15        2962.00           2314        3792.00     16520.61
   85.18        2962.25           2317        4973.00     21675.52
   85.21        2962.50           2321        6598.00     28771.38
   85.24        2962.75           2324        7778.00     33926.21
   85.27        2963.00           2328        9191.00     40101.28
   85.30        2963.25           2331       10524.00     45929.13
   85.33        2963.50           2335       12158.00     53076.08
   85.36        2963.75           2339       13973.00     61018.79
   85.39        2964.00           2342       15238.00     66557.16
   85.42        2964.25           2346       16712.00     73013.20
   85.45        2964.50           2349       18290.00     79927.90
   85.48        2964.75           2353       20116.00     87933.38
   85.51        2965.00           2356       21378.00     93468.76
   85.54        2965.25           2360       22778.00     99611.86
   85.57        2965.50           2363       23798.00    104089.20
   85.60        2965.75           2367       25379.00    111031.70
   85.64        2966.00           2370       26805.00    117296.40
   85.67        2966.25           2374       27998.00    122539.60
   85.70        2966.50           2378       28338.00    124034.20
   85.73        2966.75           2381       29152.00    127613.10
   85.76        2967.00           2385       28804.00    126082.90
   85.79        2967.25           2388       28763.00    125902.70
   85.82        2967.50           2392       28570.00    125054.10
   85.85        2967.75           2395       28150.00    123207.70
   85.88        2968.00           2399       26796.00    117256.90
   85.91        2968.25           2402       25845.00    113078.70
   85.94        2968.50           2406       25067.00    109661.40
   85.97        2968.75           2409       23776.00    103992.60
   86.00        2969.00           2413       22155.00     96877.85
   86.03        2969.25           2417       20435.00     89332.38
   86.06        2969.50           2420       19084.00     83408.40
   86.09        2969.75           2424       17431.00     76163.41
   86.12        2970.00           2427       15966.00     69745.41
   86.15        2970.25           2431       14242.00     62196.34
   86.19        2970.50           2434       13136.00     57355.42
   86.22        2970.75           2438       11464.00     50040.17
   86.25        2971.00           2441       10152.00     44302.52
   86.28        2971.25           2445        8322.00     36303.29
   86.31        2971.50           2449        6534.00     28491.84
   86.34        2971.75           2452        5337.00     23264.69
   86.37        2972.00           2456        3801.00     16559.89
   86.40        2972.25           2459        2751.00     11978.29
   86.43        2972.50           2463        1349.00      5862.98
   86.46        2972.75           2466         567.00      2453.13
   86.49        2973.00           2470         199.00       848.76
   86.52        2973.25           2473         132.00       556.68
   86.55        2973.50           2477         120.00       504.37
   86.58        2973.75           2481         110.00       460.77
   86.61        2974.00           2484         106.00       443.34
   86.64        2974.25           2488         103.00       430.26
   86.67        2974.50           2491         114.00       478.21
   86.71        2974.75           2495          99.00       412.82
   86.74        2975.00           2498         106.00       443.34
   86.77        2975.25           2502          85.00       351.79
   86.80        2975.50           2505          93.00       386.67
   86.83        2975.75           2509         121.00       508.73
   86.86        2976.00           2512          90.00       373.59
   86.89        2976.25           2516          93.00       386.67
   86.92        2976.50           2520          85.00       351.79
   86.95        2976.75           2523          93.00       386.67
   86.98        2977.00           2527          80.00       329.99
   87.01        2977.25           2530          76.00       312.56
   87.04        2977.50           2534          87.00       360.51
   87.07        2977.75           2537          80.00       329.99
   87.10        2978.00           2541          74.00       303.84
   87.13        2978.25           2544          69.00       282.04
   87.16        2978.50           2548          76.00       312.56
   87.19        2978.75           2552          79.00       325.64
   87.23        2979.00           2555          78.00       321.28
   87.26        2979.25           2559          87.00       360.51
   87.29        2979.50           2562          82.00       338.71
   87.32        2979.75           2566          72.00       295.12
   87.35        2980.00           2569          74.00       303.84
   87.38        2980.25           2573          76.00       312.56
   87.41        2980.50           2577          70.00       286.40
   87.44        2980.75           2580          73.00       299.48
   87.47        2981.00           2584          69.00       282.04
   87.50        2981.25           2587          70.00       286.40
   87.53        2981.50           2591          73.00       299.48
   87.56        2981.75           2594          68.00       277.68
   87.59        2982.00           2598          69.00       282.04
   87.62        2982.25           2601          61.00       247.17
   87.65        2982.50           2605          74.00       303.84
   87.68        2982.75           2609          79.00       325.64
   87.71        2983.00           2612          69.00       282.04
   87.75        2983.25           2616          77.00       316.92
   87.78        2983.50           2619          72.00       295.12
   87.81        2983.75           2623          66.00       268.97
   87.84        2984.00           2626          69.00       282.04
HS scan finished at 01:28:04
end
************************************************************
  HS Scan of (1) Internal mercury lamp
************************************************************
Integration time is 0.2294 seconds per sample
dh240718Reading 51.44 .94 4.11pr1000
************************************************************
Dead Time -------------------------  3.4E-08 
Number of Cycles Used -------------  4 
Starting Wavelength (Angstroms) ---  2950 
Final Wavelength (Angstoms) -------  2984 
Wavelength Increment (Angstroms) --  .25 
Filter Wheel #1 Position ---------- (1) Ground quartz diffuser (ND=2.32)
Filter Wheel #2 Position ---------- (1) Neutral Density 0.494



************************************************************
HS scan start time = 21:07:25
Dark Count =  12 


Time (GMT)  Wavelength (Ang)  Step Number  Raw Counts  Counts/Second

 1268.32        2950.00           2144          41.00       126.42
 1268.52        2950.25           2147          38.00       113.34
 1268.55        2950.50           2151          39.00       117.70
 1268.58        2950.75           2155          47.00       152.57
 1268.61        2951.00           2158          45.00       143.85
 1268.64        2951.25           2162          42.00       130.78
 1268.67        2951.50           2165          49.00       161.29
 1268.70        2951.75           2169          38.00       113.34
 1268.73        2952.00           2172          43.00       135.14
 1268.76        2952.25           2176          38.00       113.34
 1268.79        2952.50           2179          41.00       126.42
 1268.82        2952.75           2183          41.00       126.42
 1268.85        2953.00           2186          42.00       130.78
 1268.88        2953.25           2190          48.00       156.93
 1268.91        2953.50           2193          39.00       117.70
 1268.94        2953.75           2197          45.00       143.85
 1268.97        2954.00           2200          48.00       156.93
 1269.01        2954.25           2204          44.00       139.50
 1269.04        2954.50           2208          45.00       143.85
 1269.07        2954.75           2211          44.00       139.50
 1269.10        2955.00           2215          37.00       108.98
 1269.13        2955.25           2218          48.00       156.93
 1269.16        2955.50           2222          49.00       161.29
 1269.19        2955.75           2225          48.00       156.93
 1269.22        2956.00           2229          48.00       156.93
 1269.25        2956.25           2232          44.00       139.50
 1269.28        2956.50           2236          53.00       178.73
 1269.31        2956.75           2239          44.00       139.50
 1269.34        2957.00           2243          51.00       170.01
 1269.37        2957.25           2246          45.00       143.85
 1269.40        2957.50           2250          48.00       156.93
 1269.43        2957.75           2254          53.00       178.73
 1269.46        2958.00           2257          51.00       170.01
 1269.49        2958.25           2261          50.00       165.65
 1269.53        2958.50           2264          48.00       156.93
 1269.56        2958.75           2268          51.00       170.01
 1269.59        2959.00           2271          44.00       139.50
 1269.62        2959.25           2275          50.00       165.65
 1269.65        2959.50           2278          65.00       231.04
 1269.68        2959.75           2282          52.00       174.37
 1269.71        2960.00           2285          58.00       200.52
 1269.74        2960.25           2289          54.00       183.09
 1269.77        2960.50           2293          58.00       200.52
 1269.80        2960.75           2296          58.00       200.52
 1269.83        2961.00           2300          74.00       270.27
 1269.86        2961.25           2303         153.00       614.66
 1269.89        2961.50           2307         538.00      2293.12
 1269.92        2961.75           2310        1042.00      4490.66
 1269.95        2962.00           2314        1782.00      7717.81
 1269.98        2962.25           2317        2318.00     10055.75
 1270.01        2962.50           2321        3071.00     13340.84
 1270.05        2962.75           2324        3734.00     16233.89
 1270.08        2963.00           2328        4463.00     19415.60
 1270.11        2963.25           2331        5169.00     22497.59
 1270.14        2963.50           2335        6159.00     26820.44
 1270.17        2963.75           2339        6971.00     30367.00
 1270.20        2964.00           2342        7448.00     32450.78
 1270.23        2964.25           2346        8421.00     36702.27
 1270.26        2964.50           2349        8995.00     39210.92
 1270.29        2964.75           2353        9779.00     42638.06
 1270.32        2965.00           2356       10297.00     44902.86
 1270.35        2965.25           2360       11119.00     48497.52
 1270.38        2965.50           2363       11590.00     50557.63
 1270.41        2965.75           2367       12464.00     54381.19
 1270.44        2966.00           2370       13040.00     56901.62
 1270.47        2966.25           2374       13646.00     59553.77
 1270.50        2966.50           2378       14091.00     61501.62
 1270.53        2966.75           2381       14158.00     61794.91
 1270.57        2967.00           2385       14156.00     61786.16
 1270.60        2967.25           2388       14304.00     62434.05
 1270.63        2967.50           2392       14294.00     62390.27
 1270.66        2967.75           2395       14163.00     61816.80
 1270.69        2968.00           2399       13865.00     60512.35
 1270.72        2968.25           2402       13321.00     58131.35
 1270.75        2968.50           2406       12411.00     54149.30
 1270.78        2968.75           2409       11839.00     51646.85
 1270.81        2969.00           2413       10887.00     47482.88
 1270.84        2969.25           2417       10253.00     44710.47
 1270.87        2969.50           2420        9764.00     42572.48
 1270.90        2969.75           2424        8821.00     38450.41
 1270.93        2970.00           2427        8158.00     35552.98
 1270.96        2970.25           2431        7223.00     31467.83
 1270.99        2970.50           2434        6567.00     28602.35
 1271.02        2970.75           2438        5673.00     24698.15
 1271.05        2971.00           2441        5178.00     22536.88
 1271.09        2971.25           2445        4327.00     18821.98
 1271.12        2971.50           2449        3494.00     15186.57
 1271.15        2971.75           2452        2883.00     12520.59
 1271.18        2972.00           2456        2058.00      8921.63
 1271.21        2972.25           2459        1446.00      6252.42
 1271.24        2972.50           2463         768.00      3295.92
 1271.27        2972.75           2466         366.00      1543.24
 1271.30        2973.00           2470         135.00       536.19
 1271.33        2973.25           2473          77.00       283.35
 1271.36        2973.50           2477          65.00       231.04
 1271.39        2973.75           2481          61.00       213.60
 1271.42        2974.00           2484          59.00       204.88
 1271.45        2974.25           2488          64.00       226.68
 1271.48        2974.50           2491          57.00       196.17
 1271.51        2974.75           2495          53.00       178.73
 1271.54        2975.00           2498          54.00       183.09
 1271.58        2975.25           2502          54.00       183.09
 1271.61        2975.50           2505          55.00       187.45
 1271.64        2975.75           2509          54.00       183.09
 1271.67        2976.00           2512          54.00       183.09
 1271.70        2976.25           2516          55.00       187.45
 1271.73        2976.50           2520          49.00       161.29
 1271.76        2976.75           2523          52.00       174.37
 1271.79        2977.00           2527          49.00       161.29
 1271.82        2977.25           2530          46.00       148.21
 1271.85        2977.50           2534          53.00       178.73
 1271.88        2977.75           2537          49.00       161.29
 1271.91        2978.00           2541          50.00       165.65
 1271.94        2978.25           2544          46.00       148.21
 1271.97        2978.50           2548          45.00       143.85
 1272.00        2978.75           2552          45.00       143.85
 1272.03        2979.00           2555          51.00       170.01
 1272.06        2979.25           2559          43.00       135.14
 1272.09        2979.50           2562          43.00       135.14
 1272.13        2979.75           2566          48.00       156.93
 1272.16        2980.00           2569          46.00       148.21
 1272.19        2980.25           2573          45.00       143.85
 1272.22        2980.50           2577          38.00       113.34
 1272.25        2980.75           2580          41.00       126.42
 1272.28        2981.00           2584          46.00       148.21
 1272.31        2981.25           2587          44.00       139.50
 1272.34        2981.50           2591          40.00       122.06
 1272.37        2981.75           2594          43.00       135.14
 1272.40        2982.00           2598          44.00       139.50
 1272.43        2982.25           2601          40.00       122.06
 1272.46        2982.50           2605          38.00       113.34
 1272.49        2982.75           2609          45.00       143.85
 1272.52        2983.00           2612          37.00       108.98
 1272.55        2983.25           2616          42.00       130.78
 1272.58        2983.50           2619          43.00       135.14
 1272.61        2983.75           2623          41.00       126.42
 1272.65        2984.00           2626          44.00       139.50
HS scan finished at 21:12:52
end
