************************************************************
  HS Scan of (1) Internal mercury lamp
************************************************************
Integration time is 0.2294 seconds per sample
dh220717Reading 51.44 .94 3.31pr1000
************************************************************
Dead Time -------------------------  3.4E-08 
Number of Cycles Used -------------  4 
Starting Wavelength (Angstroms) ---  2950 
Final Wavelength (Angstoms) -------  2984 
Wavelength Increment (Angstroms) --  .25 
Filter Wheel #1 Position ---------- (1) Ground quartz diffuser (ND=2.32)
Filter Wheel #2 Position ---------- (1) Neutral Density 0.494



************************************************************
HS scan start time = 01:19:12
Dark Count =  1.7 


Time (GMT)  Wavelength (Ang)  Step Number  Raw Counts  Counts/Second

   80.11        2950.00           2144         380.00      1649.18
   80.30        2950.25           2147         373.00      1618.66
   80.33        2950.50           2151         392.00      1701.49
   80.36        2950.75           2155         387.00      1679.70
   80.39        2951.00           2158         389.00      1688.41
   80.42        2951.25           2162         366.00      1588.14
   80.45        2951.50           2165         405.00      1758.17
   80.48        2951.75           2169         407.00      1766.89
   80.51        2952.00           2172         394.00      1710.21
   80.54        2952.25           2176         410.00      1779.97
   80.57        2952.50           2179         417.00      1810.49
   80.61        2952.75           2183         394.00      1710.21
   80.64        2953.00           2186         421.00      1827.93
   80.67        2953.25           2190         403.00      1749.45
   80.70        2953.50           2193         396.00      1718.93
   80.73        2953.75           2197         384.00      1666.62
   80.76        2954.00           2200         417.00      1810.49
   80.79        2954.25           2204         395.00      1714.57
   80.82        2954.50           2208         407.00      1766.89
   80.85        2954.75           2211         400.00      1736.37
   80.88        2955.00           2215         411.00      1784.33
   80.91        2955.25           2218         424.00      1841.00
   80.94        2955.50           2222         406.00      1762.53
   80.97        2955.75           2225         429.00      1862.80
   81.01        2956.00           2229         447.00      1941.28
   81.04        2956.25           2232         441.00      1915.12
   81.07        2956.50           2236         418.00      1814.85
   81.10        2956.75           2239         444.00      1928.20
   81.13        2957.00           2243         446.00      1936.92
   81.16        2957.25           2246         441.00      1915.12
   81.19        2957.50           2250         444.00      1928.20
   81.22        2957.75           2254         475.00      2063.35
   81.25        2958.00           2257         477.00      2072.07
   81.28        2958.25           2261         504.00      2189.79
   81.32        2958.50           2264         472.00      2050.27
   81.35        2958.75           2268         451.00      1958.72
   81.38        2959.00           2271         473.00      2054.63
   81.41        2959.25           2275         486.00      2111.31
   81.44        2959.50           2278         498.00      2163.63
   81.47        2959.75           2282         529.00      2298.78
   81.50        2960.00           2285         510.00      2215.95
   81.53        2960.25           2289         525.00      2281.35
   81.56        2960.50           2293         555.00      2412.14
   81.59        2960.75           2296         566.00      2460.10
   81.62        2961.00           2300         680.00      2957.14
   81.65        2961.25           2303        1062.00      4622.78
   81.68        2961.50           2307        3890.00     16959.65
   81.71        2961.75           2310        8867.00     38696.48
   81.74        2962.00           2314       16565.00     72380.61
   81.77        2962.25           2317       22113.00     96704.99
   81.80        2962.50           2321       30119.00    131877.30
   81.84        2962.75           2324       36505.00    159993.10
   81.87        2963.00           2328       45498.00    199678.40
   81.90        2963.25           2331       52231.00    229461.10
   81.93        2963.50           2335       61242.00    269415.20
   81.96        2963.75           2339       69317.00    305312.00
   81.99        2964.00           2342       75443.00    332603.60
   82.02        2964.25           2346       84433.00    372747.00
   82.05        2964.50           2349       91141.00    402772.30
   82.08        2964.75           2353      100255.00    443666.30
   82.11        2965.00           2356      106668.00    472509.90
   82.14        2965.25           2360      114329.00    507041.50
   82.17        2965.50           2363      120343.00    534206.80
   82.20        2965.75           2367      127784.00    567888.10
   82.23        2966.00           2370      134355.00    597696.20
   82.26        2966.25           2374      142035.00    632612.80
   82.29        2966.50           2378      147539.00    657688.00
   82.33        2966.75           2381      148658.00    662791.10
   82.36        2967.00           2385      149293.00    665687.90
   82.39        2967.25           2388      149255.00    665514.50
   82.42        2967.50           2392      149272.00    665592.10
   82.45        2967.75           2395      149178.00    665163.20
   82.48        2968.00           2399      146501.00    652955.60
   82.51        2968.25           2402      142068.00    632763.00
   82.54        2968.50           2406      133428.00    593487.30
   82.57        2968.75           2409      127388.00    566093.60
   82.60        2969.00           2413      119305.00    529514.50
   82.63        2969.25           2417      111190.00    492882.70
   82.66        2969.50           2420      105186.00    465839.30
   82.69        2969.75           2424       96123.00    425112.10
   82.72        2970.00           2427       88786.00    392224.20
   82.75        2970.25           2431       79242.00    349554.00
   82.80        2970.50           2434       72333.00    318742.10
   82.83        2970.75           2438       63174.00    277995.80
   82.86        2971.00           2441       56711.00    249311.50
   82.89        2971.25           2445       48383.00    212432.50
   82.92        2971.50           2449       39061.00    171261.60
   82.95        2971.75           2452       31493.00    137922.10
   82.98        2972.00           2456       23085.00    100970.70
   83.01        2972.25           2459       17472.00     76354.47
   83.04        2972.50           2463       10232.00     44663.67
   83.07        2972.75           2466        5439.00     23721.39
   83.10        2973.00           2470        1737.00      7566.46
   83.14        2973.25           2473         898.00      3907.67
   83.17        2973.50           2477         641.00      2787.10
   83.20        2973.75           2481         598.00      2599.62
   83.23        2974.00           2484         583.00      2534.22
   83.26        2974.25           2488         561.00      2438.30
   83.29        2974.50           2491         567.00      2464.46
   83.32        2974.75           2495         554.00      2407.78
   83.35        2975.00           2498         552.00      2399.06
   83.38        2975.25           2502         535.00      2324.94
   83.41        2975.50           2505         520.00      2259.55
   83.44        2975.75           2509         519.00      2255.19
   83.47        2976.00           2512         509.00      2211.59
   83.50        2976.25           2516         495.00      2150.55
   83.53        2976.50           2520         520.00      2259.55
   83.56        2976.75           2523         503.00      2185.43
   83.59        2977.00           2527         449.00      1950.00
   83.62        2977.25           2530         451.00      1958.72
   83.66        2977.50           2534         464.00      2015.40
   83.69        2977.75           2537         437.00      1897.68
   83.72        2978.00           2541         452.00      1963.08
   83.75        2978.25           2544         464.00      2015.40
   83.78        2978.50           2548         439.00      1906.40
   83.81        2978.75           2552         444.00      1928.20
   83.84        2979.00           2555         443.00      1923.84
   83.87        2979.25           2559         435.00      1888.96
   83.90        2979.50           2562         424.00      1841.00
   83.93        2979.75           2566         418.00      1814.85
   83.96        2980.00           2569         394.00      1710.21
   83.99        2980.25           2573         426.00      1849.72
   84.02        2980.50           2577         414.00      1797.41
   84.05        2980.75           2580         423.00      1836.64
   84.08        2981.00           2584         430.00      1867.16
   84.11        2981.25           2587         408.00      1771.25
   84.14        2981.50           2591         404.00      1753.81
   84.18        2981.75           2594         402.00      1745.09
   84.21        2982.00           2598         419.00      1819.21
   84.24        2982.25           2601         404.00      1753.81
   84.27        2982.50           2605         412.00      1788.69
   84.30        2982.75           2609         393.00      1705.85
   84.33        2983.00           2612         427.00      1854.08
   84.36        2983.25           2616         379.00      1644.82
   84.39        2983.50           2619         387.00      1679.70
   84.42        2983.75           2623         398.00      1727.65
   84.45        2984.00           2626         393.00      1705.85
HS scan finished at 01:24:40
end
************************************************************
  HS Scan of (1) Internal mercury lamp
************************************************************
Integration time is 0.2294 seconds per sample
dh220717Reading 51.44 .94 3.31pr1000
************************************************************
Dead Time -------------------------  3.4E-08 
Number of Cycles Used -------------  4 
Starting Wavelength (Angstroms) ---  2950 
Final Wavelength (Angstoms) -------  2984 
Wavelength Increment (Angstroms) --  .25 
Filter Wheel #1 Position ---------- (1) Ground quartz diffuser (ND=2.32)
Filter Wheel #2 Position ---------- (1) Neutral Density 0.494



************************************************************
HS scan start time = 21:07:26
Dark Count =  1.7 


Time (GMT)  Wavelength (Ang)  Step Number  Raw Counts  Counts/Second

 1268.33        2950.00           2144         371.00      1609.94
 1268.52        2950.25           2147         361.00      1566.34
 1268.55        2950.50           2151         374.00      1623.02
 1268.58        2950.75           2155         374.00      1623.02
 1268.61        2951.00           2158         362.00      1570.70
 1268.64        2951.25           2162         373.00      1618.66
 1268.67        2951.50           2165         380.00      1649.18
 1268.70        2951.75           2169         404.00      1753.81
 1268.73        2952.00           2172         391.00      1697.13
 1268.76        2952.25           2176         390.00      1692.77
 1268.80        2952.50           2179         370.00      1605.58
 1268.83        2952.75           2183         379.00      1644.82
 1268.86        2953.00           2186         371.00      1609.94
 1268.89        2953.25           2190         368.00      1596.86
 1268.92        2953.50           2193         402.00      1745.09
 1268.95        2953.75           2197         381.00      1653.54
 1268.99        2954.00           2200         400.00      1736.37
 1269.02        2954.25           2204         425.00      1845.36
 1269.05        2954.50           2208         396.00      1718.93
 1269.08        2954.75           2211         393.00      1705.85
 1269.11        2955.00           2215         427.00      1854.08
 1269.14        2955.25           2218         391.00      1697.13
 1269.17        2955.50           2222         404.00      1753.81
 1269.20        2955.75           2225         408.00      1771.25
 1269.23        2956.00           2229         429.00      1862.80
 1269.26        2956.25           2232         410.00      1779.97
 1269.29        2956.50           2236         437.00      1897.68
 1269.32        2956.75           2239         428.00      1858.44
 1269.35        2957.00           2243         441.00      1915.12
 1269.38        2957.25           2246         428.00      1858.44
 1269.41        2957.50           2250         448.00      1945.64
 1269.44        2957.75           2254         446.00      1936.92
 1269.47        2958.00           2257         461.00      2002.32
 1269.51        2958.25           2261         448.00      1945.64
 1269.54        2958.50           2264         472.00      2050.27
 1269.57        2958.75           2268         473.00      2054.63
 1269.60        2959.00           2271         480.00      2085.15
 1269.63        2959.25           2275         494.00      2146.19
 1269.66        2959.50           2278         503.00      2185.43
 1269.69        2959.75           2282         514.00      2233.39
 1269.72        2960.00           2285         512.00      2224.67
 1269.75        2960.25           2289         528.00      2294.42
 1269.78        2960.50           2293         558.00      2425.22
 1269.81        2960.75           2296         561.00      2438.30
 1269.84        2961.00           2300         604.00      2625.78
 1269.87        2961.25           2303         942.00      4099.53
 1269.90        2961.50           2307        3366.00     14672.97
 1269.93        2961.75           2310        7636.00     33317.15
 1269.96        2962.00           2314       14747.00     64418.62
 1269.99        2962.25           2317       20951.00     91607.02
 1270.03        2962.50           2321       29279.00    128183.00
 1270.06        2962.75           2324       34647.00    151807.30
 1270.09        2963.00           2328       42639.00    187050.30
 1270.12        2963.25           2331       49003.00    215174.90
 1270.15        2963.50           2335       57875.00    254473.40
 1270.18        2963.75           2339       67037.00    295167.50
 1270.21        2964.00           2342       73560.00    324209.40
 1270.24        2964.25           2346       81683.00    360455.50
 1270.27        2964.50           2349       87495.00    386444.90
 1270.30        2964.75           2353       96272.00    425780.70
 1270.33        2965.00           2356      103125.00    456567.60
 1270.36        2965.25           2360      111163.00    492761.00
 1270.39        2965.50           2363      117287.00    520396.50
 1270.42        2965.75           2367      125084.00    555657.60
 1270.45        2966.00           2370      130741.00    581294.50
 1270.48        2966.25           2374      138191.00    615125.80
 1270.51        2966.50           2378      142442.00    634465.40
 1270.54        2966.75           2381      143931.00    641245.70
 1270.58        2967.00           2385      144274.00    642808.00
 1270.61        2967.25           2388      144255.00    642721.50
 1270.64        2967.50           2392      144183.00    642393.50
 1270.67        2967.75           2395      143639.00    639915.80
 1270.70        2968.00           2399      140479.00    625531.80
 1270.73        2968.25           2402      136358.00    606794.60
 1270.76        2968.50           2406      129707.00    576605.10
 1270.79        2968.75           2409      124010.00    550795.60
 1270.82        2969.00           2413      114928.00    509745.00
 1270.85        2969.25           2417      107360.00    475625.70
 1270.88        2969.50           2420      101334.00    448515.40
 1270.91        2969.75           2424       92928.00    410781.50
 1270.94        2970.00           2427       86854.00    383576.30
 1270.97        2970.25           2431       79078.00    348821.90
 1271.00        2970.50           2434       72728.00    320501.90
 1271.03        2970.75           2438       63169.00    277973.60
 1271.06        2971.00           2441       56588.00    248766.10
 1271.10        2971.25           2445       48192.00    211587.80
 1271.13        2971.50           2449       39770.00    174388.80
 1271.16        2971.75           2452       34266.00    150129.20
 1271.19        2972.00           2456       26645.00    116604.80
 1271.22        2972.25           2459       21019.00     91905.32
 1271.25        2972.50           2463       12620.00     55108.83
 1271.28        2972.75           2466        6726.00     29341.81
 1271.31        2973.00           2470        1929.00      8403.88
 1271.34        2973.25           2473         891.00      3877.15
 1271.37        2973.50           2477         649.00      2821.98
 1271.40        2973.75           2481         582.00      2529.86
 1271.43        2974.00           2484         570.00      2477.54
 1271.46        2974.25           2488         570.00      2477.54
 1271.49        2974.50           2491         556.00      2416.50
 1271.52        2974.75           2495         538.00      2338.02
 1271.55        2975.00           2498         515.00      2237.75
 1271.59        2975.25           2502         488.00      2120.03
 1271.62        2975.50           2505         518.00      2250.83
 1271.65        2975.75           2509         522.00      2268.27
 1271.68        2976.00           2512         505.00      2194.15
 1271.71        2976.25           2516         471.00      2045.91
 1271.74        2976.50           2520         475.00      2063.35
 1271.77        2976.75           2523         451.00      1958.72
 1271.80        2977.00           2527         472.00      2050.27
 1271.83        2977.25           2530         447.00      1941.28
 1271.86        2977.50           2534         435.00      1888.96
 1271.89        2977.75           2537         435.00      1888.96
 1271.92        2978.00           2541         424.00      1841.00
 1271.95        2978.25           2544         441.00      1915.12
 1271.98        2978.50           2548         431.00      1871.52
 1272.01        2978.75           2552         432.00      1875.88
 1272.04        2979.00           2555         417.00      1810.49
 1272.07        2979.25           2559         420.00      1823.57
 1272.10        2979.50           2562         410.00      1779.97
 1272.14        2979.75           2566         399.00      1732.01
 1272.17        2980.00           2569         449.00      1950.00
 1272.20        2980.25           2573         413.00      1793.05
 1272.23        2980.50           2577         408.00      1771.25
 1272.26        2980.75           2580         413.00      1793.05
 1272.29        2981.00           2584         376.00      1631.74
 1272.32        2981.25           2587         378.00      1640.46
 1272.35        2981.50           2591         366.00      1588.14
 1272.38        2981.75           2594         372.00      1614.30
 1272.41        2982.00           2598         389.00      1688.41
 1272.44        2982.25           2601         390.00      1692.77
 1272.47        2982.50           2605         394.00      1710.21
 1272.50        2982.75           2609         405.00      1758.17
 1272.53        2983.00           2612         380.00      1649.18
 1272.56        2983.25           2616         358.00      1553.26
 1272.59        2983.50           2619         385.00      1670.98
 1272.62        2983.75           2623         371.00      1609.94
 1272.66        2984.00           2626         386.00      1675.34
HS scan finished at 21:12:53
end
