************************************************************
  HS Scan of (1) Internal mercury lamp
************************************************************
Integration time is 0.2294 seconds per sample
dh240717Reading 51.44 .94 3.41pr1000
************************************************************
Dead Time -------------------------  3.4E-08 
Number of Cycles Used -------------  4 
Starting Wavelength (Angstroms) ---  2950 
Final Wavelength (Angstoms) -------  2984 
Wavelength Increment (Angstroms) --  .25 
Filter Wheel #1 Position ---------- (1) Ground quartz diffuser (ND=2.32)
Filter Wheel #2 Position ---------- (1) Neutral Density 0.494



************************************************************
HS scan start time = 01:23:53
Dark Count =  1.7 


Time (GMT)  Wavelength (Ang)  Step Number  Raw Counts  Counts/Second

   84.78        2950.00           2144         384.00      1666.62
   84.97        2950.25           2147         380.00      1649.18
   85.00        2950.50           2151         392.00      1701.49
   85.03        2950.75           2155         380.00      1649.18
   85.06        2951.00           2158         412.00      1788.69
   85.09        2951.25           2162         383.00      1662.26
   85.12        2951.50           2165         377.00      1636.10
   85.15        2951.75           2169         380.00      1649.18
   85.18        2952.00           2172         380.00      1649.18
   85.22        2952.25           2176         435.00      1888.96
   85.25        2952.50           2179         404.00      1753.81
   85.28        2952.75           2183         382.00      1657.90
   85.31        2953.00           2186         397.00      1723.29
   85.34        2953.25           2190         439.00      1906.40
   85.37        2953.50           2193         439.00      1906.40
   85.40        2953.75           2197         435.00      1888.96
   85.43        2954.00           2200         424.00      1841.00
   85.46        2954.25           2204         427.00      1854.08
   85.49        2954.50           2208         404.00      1753.81
   85.52        2954.75           2211         456.00      1980.52
   85.55        2955.00           2215         423.00      1836.64
   85.58        2955.25           2218         429.00      1862.80
   85.61        2955.50           2222         437.00      1897.68
   85.64        2955.75           2225         435.00      1888.96
   85.67        2956.00           2229         432.00      1875.88
   85.70        2956.25           2232         438.00      1902.04
   85.74        2956.50           2236         430.00      1867.16
   85.77        2956.75           2239         454.00      1971.80
   85.80        2957.00           2243         456.00      1980.52
   85.83        2957.25           2246         443.00      1923.84
   85.86        2957.50           2250         484.00      2102.59
   85.89        2957.75           2254         459.00      1993.60
   85.92        2958.00           2257         503.00      2185.43
   85.95        2958.25           2261         467.00      2028.47
   85.98        2958.50           2264         484.00      2102.59
   86.01        2958.75           2268         501.00      2176.71
   86.04        2959.00           2271         507.00      2202.87
   86.07        2959.25           2275         502.00      2181.07
   86.10        2959.50           2278         521.00      2263.91
   86.13        2959.75           2282         549.00      2385.98
   86.16        2960.00           2285         532.00      2311.86
   86.19        2960.25           2289         546.00      2372.90
   86.22        2960.50           2293         574.00      2494.98
   86.25        2960.75           2296         593.00      2577.82
   86.29        2961.00           2300         701.00      3048.70
   86.32        2961.25           2303        1340.00      5835.07
   86.35        2961.50           2307        4794.00     20905.44
   86.38        2961.75           2310        9812.00     42827.36
   86.41        2962.00           2314       17269.00     75464.96
   86.44        2962.25           2317       23273.00    101795.90
   86.47        2962.50           2321       32479.00    142261.40
   86.50        2962.75           2324       40003.00    175416.70
   86.53        2963.00           2328       49410.00    216975.40
   86.56        2963.25           2331       56703.00    249276.00
   86.59        2963.50           2335       65651.00    289004.20
   86.62        2963.75           2339       74902.00    330191.40
   86.65        2964.00           2342       81793.00    360947.00
   86.68        2964.25           2346       91120.00    402678.20
   86.71        2964.50           2349       98238.00    434606.30
   86.74        2964.75           2353      107544.00    476454.30
   86.77        2965.00           2356      114792.00    509131.10
   86.81        2965.25           2360      124349.00    552330.10
   86.84        2965.50           2363      131765.00    585939.90
   86.87        2965.75           2367      139452.00    620860.00
   86.90        2966.00           2370      145309.00    647523.30
   86.93        2966.25           2374      152242.00    679148.10
   86.96        2966.50           2378      156291.00    697649.60
   86.99        2966.75           2381      156726.00    699638.60
   87.02        2967.00           2385      157091.00    701308.00
   87.05        2967.25           2388      157116.00    701422.20
   87.08        2967.50           2392      156626.00    699181.30
   87.11        2967.75           2395      155329.00    693251.70
   87.14        2968.00           2399      149717.00    667622.40
   87.17        2968.25           2402      143712.00    640248.30
   87.20        2968.50           2406      135828.00    604386.60
   87.23        2968.75           2409      129259.00    574573.80
   87.26        2969.00           2413      120730.00    535956.60
   87.29        2969.25           2417      111869.00    495944.30
   87.33        2969.50           2420      105621.00    467796.90
   87.36        2969.75           2424       96509.00    426844.40
   87.39        2970.00           2427       89677.00    396214.10
   87.42        2970.25           2431       80026.00    353054.40
   87.45        2970.50           2434       72763.00    320657.90
   87.48        2970.75           2438       62464.00    274841.90
   87.51        2971.00           2441       55057.00    241979.60
   87.54        2971.25           2445       46406.00    203691.30
   87.57        2971.50           2449       37866.00    165992.20
   87.60        2971.75           2452       31350.00    137292.80
   87.63        2972.00           2456       22013.00     96266.18
   87.66        2972.25           2459       15377.00     67177.24
   87.69        2972.50           2463        7715.00     33662.31
   87.72        2972.75           2466        3538.00     15423.52
   87.75        2973.00           2470        1189.00      5176.59
   87.78        2973.25           2473         775.00      3371.35
   87.81        2973.50           2477         632.00      2747.86
   87.85        2973.75           2481         610.00      2651.94
   87.88        2974.00           2484         583.00      2534.22
   87.91        2974.25           2488         574.00      2494.98
   87.94        2974.50           2491         595.00      2586.54
   87.97        2974.75           2495         560.00      2433.94
   88.00        2975.00           2498         554.00      2407.78
   88.03        2975.25           2502         550.00      2390.34
   88.06        2975.50           2505         534.00      2320.58
   88.09        2975.75           2509         551.00      2394.70
   88.12        2976.00           2512         561.00      2438.30
   88.15        2976.25           2516         515.00      2237.75
   88.18        2976.50           2520         490.00      2128.75
   88.21        2976.75           2523         514.00      2233.39
   88.24        2977.00           2527         491.00      2133.11
   88.27        2977.25           2530         468.00      2032.83
   88.30        2977.50           2534         482.00      2093.87
   88.33        2977.75           2537         483.00      2098.23
   88.37        2978.00           2541         461.00      2002.32
   88.40        2978.25           2544         472.00      2050.27
   88.43        2978.50           2548         447.00      1941.28
   88.46        2978.75           2552         439.00      1906.40
   88.49        2979.00           2555         445.00      1932.56
   88.52        2979.25           2559         425.00      1845.36
   88.55        2979.50           2562         444.00      1928.20
   88.58        2979.75           2566         417.00      1810.49
   88.61        2980.00           2569         418.00      1814.85
   88.64        2980.25           2573         431.00      1871.52
   88.67        2980.50           2577         429.00      1862.80
   88.70        2980.75           2580         444.00      1928.20
   88.73        2981.00           2584         411.00      1784.33
   88.76        2981.25           2587         429.00      1862.80
   88.79        2981.50           2591         400.00      1736.37
   88.82        2981.75           2594         420.00      1823.57
   88.85        2982.00           2598         415.00      1801.77
   88.88        2982.25           2601         428.00      1858.44
   88.92        2982.50           2605         399.00      1732.01
   88.95        2982.75           2609         394.00      1710.21
   88.98        2983.00           2612         403.00      1749.45
   89.01        2983.25           2616         388.00      1684.05
   89.04        2983.50           2619         396.00      1718.93
   89.07        2983.75           2623         399.00      1732.01
   89.10        2984.00           2626         414.00      1797.41
HS scan finished at 01:29:19
end
************************************************************
  HS Scan of (1) Internal mercury lamp
************************************************************
Integration time is 0.2294 seconds per sample
dh240717Reading 51.44 .94 3.6pr1000
************************************************************
Dead Time -------------------------  3.4E-08 
Number of Cycles Used -------------  4 
Starting Wavelength (Angstroms) ---  2950 
Final Wavelength (Angstoms) -------  2984 
Wavelength Increment (Angstroms) --  .25 
Filter Wheel #1 Position ---------- (1) Ground quartz diffuser (ND=2.32)
Filter Wheel #2 Position ---------- (1) Neutral Density 0.494



************************************************************
HS scan start time = 21:07:26
Dark Count =  3.7 


Time (GMT)  Wavelength (Ang)  Step Number  Raw Counts  Counts/Second

 1268.34        2950.00           2144         352.00      1518.39
 1268.53        2950.25           2147         353.00      1522.75
 1268.56        2950.50           2151         345.00      1487.87
 1268.59        2950.75           2155         344.00      1483.51
 1268.63        2951.00           2158         339.00      1461.71
 1268.66        2951.25           2162         349.00      1505.31
 1268.69        2951.50           2165         342.00      1474.79
 1268.72        2951.75           2169         340.00      1466.07
 1268.75        2952.00           2172         333.00      1435.55
 1268.78        2952.25           2176         388.00      1675.34
 1268.82        2952.50           2179         381.00      1644.82
 1268.85        2952.75           2183         380.00      1640.46
 1268.88        2953.00           2186         334.00      1439.91
 1268.91        2953.25           2190         366.00      1579.42
 1268.94        2953.50           2193         398.00      1718.93
 1268.97        2953.75           2197         394.00      1701.49
 1269.00        2954.00           2200         372.00      1605.58
 1269.03        2954.25           2204         375.00      1618.66
 1269.06        2954.50           2208         406.00      1753.81
 1269.09        2954.75           2211         384.00      1657.90
 1269.12        2955.00           2215         373.00      1609.94
 1269.15        2955.25           2218         378.00      1631.74
 1269.18        2955.50           2222         399.00      1723.29
 1269.21        2955.75           2225         379.00      1636.10
 1269.24        2956.00           2229         394.00      1701.49
 1269.27        2956.25           2232         400.00      1727.65
 1269.30        2956.50           2236         392.00      1692.77
 1269.33        2956.75           2239         415.00      1793.05
 1269.37        2957.00           2243         411.00      1775.61
 1269.40        2957.25           2246         421.00      1819.21
 1269.43        2957.50           2250         423.00      1827.93
 1269.46        2957.75           2254         420.00      1814.85
 1269.49        2958.00           2257         427.00      1845.36
 1269.52        2958.25           2261         432.00      1867.16
 1269.55        2958.50           2264         427.00      1845.36
 1269.58        2958.75           2268         443.00      1915.12
 1269.61        2959.00           2271         437.00      1888.96
 1269.64        2959.25           2275         450.00      1945.64
 1269.67        2959.50           2278         466.00      2015.40
 1269.70        2959.75           2282         518.00      2242.11
 1269.73        2960.00           2285         499.00      2159.27
 1269.76        2960.25           2289         516.00      2233.39
 1269.79        2960.50           2293         522.00      2259.55
 1269.82        2960.75           2296         524.00      2268.27
 1269.86        2961.00           2300         564.00      2442.66
 1269.89        2961.25           2303         783.00      3397.52
 1269.92        2961.50           2307        2233.00      9721.17
 1269.95        2961.75           2310        5959.00     25983.28
 1269.98        2962.00           2314       13479.00     58859.17
 1270.01        2962.25           2317       19411.00     84844.68
 1270.04        2962.50           2321       27455.00    120155.50
 1270.07        2962.75           2324       33441.00    146487.60
 1270.10        2963.00           2328       41881.00    183695.20
 1270.13        2963.25           2331       48092.00    211136.70
 1270.16        2963.50           2335       56747.00    249462.20
 1270.19        2963.75           2339       65299.00    287430.50
 1270.22        2964.00           2342       71881.00    316719.70
 1270.25        2964.25           2346       80417.00    354791.60
 1270.28        2964.50           2349       87291.00    385523.00
 1270.31        2964.75           2353       96430.00    426480.80
 1270.34        2965.00           2356      102656.00    454449.60
 1270.37        2965.25           2360      110082.00    487879.30
 1270.41        2965.50           2363      116141.00    515212.00
 1270.44        2965.75           2367      124887.00    554756.60
 1270.48        2966.00           2370      131468.00    584583.30
 1270.51        2966.25           2374      138892.00    618304.10
 1270.54        2966.50           2378      144537.00    643996.90
 1270.57        2966.75           2381      146363.00    652317.60
 1270.60        2967.00           2385      147104.00    655695.50
 1270.63        2967.25           2388      147026.00    655339.80
 1270.66        2967.50           2392      146982.00    655139.30
 1270.69        2967.75           2395      146542.00    653133.50
 1270.72        2968.00           2399      143587.00    639669.80
 1270.75        2968.25           2402      138545.00    616726.30
 1270.79        2968.50           2406      131627.00    585304.60
 1270.82        2968.75           2409      126732.00    563112.50
 1270.85        2969.00           2413      118894.00    527648.00
 1270.88        2969.25           2417      110748.00    490881.10
 1270.91        2969.50           2420      103933.00    460192.80
 1270.94        2969.75           2424       94276.00    416817.00
 1270.97        2970.00           2427       87535.00    386615.00
 1271.00        2970.25           2431       78390.00    345741.90
 1271.03        2970.50           2434       72259.00    318403.50
 1271.06        2970.75           2438       63727.00    280443.90
 1271.09        2971.00           2441       57225.00    251581.80
 1271.12        2971.25           2445       48190.00    211570.10
 1271.15        2971.50           2449       39820.00    174600.60
 1271.18        2971.75           2452       32892.00    144070.60
 1271.21        2972.00           2456       24778.00    108394.80
 1271.24        2972.25           2459       18888.00     82551.78
 1271.27        2972.50           2463       11164.00     48730.63
 1271.31        2972.75           2466        6087.00     26542.25
 1271.34        2973.00           2470        1855.00      8072.40
 1271.37        2973.25           2473         833.00      3615.53
 1271.40        2973.50           2477         590.00      2556.02
 1271.43        2973.75           2481         556.00      2407.78
 1271.46        2974.00           2484         531.00      2298.78
 1271.49        2974.25           2488         532.00      2303.14
 1271.52        2974.50           2491         508.00      2198.51
 1271.55        2974.75           2495         494.00      2137.47
 1271.58        2975.00           2498         480.00      2076.43
 1271.61        2975.25           2502         461.00      1993.60
 1271.64        2975.50           2505         442.00      1910.76
 1271.67        2975.75           2509         445.00      1923.84
 1271.70        2976.00           2512         441.00      1906.40
 1271.73        2976.25           2516         420.00      1814.85
 1271.76        2976.50           2520         438.00      1893.32
 1271.79        2976.75           2523         423.00      1827.93
 1271.83        2977.00           2527         401.00      1732.01
 1271.86        2977.25           2530         394.00      1701.49
 1271.89        2977.50           2534         398.00      1718.93
 1271.92        2977.75           2537         400.00      1727.65
 1271.95        2978.00           2541         403.00      1740.73
 1271.98        2978.25           2544         378.00      1631.74
 1272.01        2978.50           2548         397.00      1714.57
 1272.04        2978.75           2552         395.00      1705.85
 1272.07        2979.00           2555         388.00      1675.34
 1272.10        2979.25           2559         349.00      1505.31
 1272.13        2979.50           2562         376.00      1623.02
 1272.16        2979.75           2566         368.00      1588.14
 1272.19        2980.00           2569         351.00      1514.03
 1272.22        2980.25           2573         376.00      1623.02
 1272.25        2980.50           2577         361.00      1557.62
 1272.28        2980.75           2580         346.00      1492.23
 1272.31        2981.00           2584         369.00      1592.50
 1272.35        2981.25           2587         347.00      1496.59
 1272.38        2981.50           2591         364.00      1570.70
 1272.41        2981.75           2594         347.00      1496.59
 1272.44        2982.00           2598         332.00      1431.19
 1272.47        2982.25           2601         369.00      1592.50
 1272.50        2982.50           2605         325.00      1400.68
 1272.53        2982.75           2609         326.00      1405.04
 1272.56        2983.00           2612         338.00      1457.35
 1272.59        2983.25           2616         330.00      1422.48
 1272.62        2983.50           2619         332.00      1431.19
 1272.65        2983.75           2623         329.00      1418.12
 1272.68        2984.00           2626         311.00      1339.64
HS scan finished at 21:12:54
end
