************************************************************
  HS Scan of (1) Internal mercury lamp
************************************************************
Integration time is 0.2294 seconds per sample
dh190718Reading 51.44 .94 3.52pr1000
************************************************************
Dead Time -------------------------  3.4E-08 
Number of Cycles Used -------------  4 
Starting Wavelength (Angstroms) ---  2950 
Final Wavelength (Angstoms) -------  2984 
Wavelength Increment (Angstroms) --  .25 
Filter Wheel #1 Position ---------- (1) Ground quartz diffuser (ND=2.32)
Filter Wheel #2 Position ---------- (1) Neutral Density 0.494



************************************************************
HS scan start time = 01:36:19
Dark Count =  2.4 


Time (GMT)  Wavelength (Ang)  Step Number  Raw Counts  Counts/Second

   97.21        2950.00           2144          72.00       303.40
   97.40        2950.25           2147          72.00       303.40
   97.43        2950.50           2151          69.00       290.33
   97.46        2950.75           2155          78.00       329.56
   97.49        2951.00           2158          78.00       329.56
   97.52        2951.25           2162          74.00       312.12
   97.55        2951.50           2165          73.00       307.76
   97.59        2951.75           2169          82.00       347.00
   97.62        2952.00           2172          72.00       303.40
   97.65        2952.25           2176          83.00       351.36
   97.68        2952.50           2179          68.00       285.97
   97.71        2952.75           2183          79.00       333.92
   97.74        2953.00           2186          72.00       303.40
   97.77        2953.25           2190          77.00       325.20
   97.80        2953.50           2193          77.00       325.20
   97.83        2953.75           2197          75.00       316.48
   97.86        2954.00           2200          81.00       342.64
   97.89        2954.25           2204          77.00       325.20
   97.92        2954.50           2208          80.00       338.28
   97.95        2954.75           2211          82.00       347.00
   97.98        2955.00           2215          78.00       329.56
   98.01        2955.25           2218          79.00       333.92
   98.04        2955.50           2222          79.00       333.92
   98.07        2955.75           2225          87.00       368.79
   98.11        2956.00           2229          87.00       368.79
   98.14        2956.25           2232          89.00       377.51
   98.17        2956.50           2236          90.00       381.87
   98.20        2956.75           2239          88.00       373.15
   98.23        2957.00           2243         109.00       464.70
   98.26        2957.25           2246          95.00       403.67
   98.29        2957.50           2250          91.00       386.23
   98.32        2957.75           2254          94.00       399.31
   98.35        2958.00           2257          99.00       421.10
   98.38        2958.25           2261          90.00       381.87
   98.41        2958.50           2264          95.00       403.67
   98.44        2958.75           2268          94.00       399.31
   98.47        2959.00           2271          95.00       403.67
   98.50        2959.25           2275         115.00       490.85
   98.53        2959.50           2278         101.00       429.82
   98.56        2959.75           2282         100.00       425.46
   98.59        2960.00           2285         101.00       429.82
   98.62        2960.25           2289         130.00       556.24
   98.66        2960.50           2293         131.00       560.60
   98.69        2960.75           2296         120.00       512.65
   98.72        2961.00           2300         149.00       639.07
   98.75        2961.25           2303         347.00      1502.26
   98.78        2961.50           2307        1246.00      5422.10
   98.81        2961.75           2310        2280.00      9931.86
   98.84        2962.00           2314        4107.00     17903.66
   98.87        2962.25           2317        5528.00     24106.94
   98.90        2962.50           2321        7289.00     31798.09
   98.93        2962.75           2324        8618.00     37605.16
   98.96        2963.00           2328       10516.00     45902.45
   99.00        2963.25           2331       11874.00     51841.95
   99.04        2963.50           2335       13638.00     59560.78
   99.07        2963.75           2339       15860.00     69289.46
   99.10        2964.00           2342       17515.00     76539.82
   99.13        2964.25           2346       19601.00     85683.44
   99.16        2964.50           2349       20811.00     90989.87
   99.19        2964.75           2353       22610.00     98882.88
   99.22        2965.00           2356       23969.00    104848.30
   99.25        2965.25           2360       25757.00    112700.40
   99.28        2965.50           2363       27071.00    118473.60
   99.31        2965.75           2367       28802.00    126082.50
   99.34        2966.00           2370       30049.00    131566.30
   99.37        2966.25           2374       31250.00    136849.70
   99.41        2966.50           2378       32265.00    141316.40
   99.44        2966.75           2381       32329.00    141598.10
   99.47        2967.00           2385       32471.00    142223.10
   99.50        2967.25           2388       32364.00    141752.20
   99.53        2967.50           2392       32317.00    141545.30
   99.56        2967.75           2395       31732.00    138970.70
   99.59        2968.00           2399       30490.00    133506.10
   99.62        2968.25           2402       29282.00    128193.10
   99.65        2968.50           2406       27620.00    120886.40
   99.68        2968.75           2409       26475.00    115854.80
   99.71        2969.00           2413       24600.00    107618.90
   99.74        2969.25           2417       22655.00     99080.38
   99.77        2969.50           2420       21376.00     93468.31
   99.80        2969.75           2424       19277.00     84262.86
   99.83        2970.00           2427       17881.00     78143.71
   99.86        2970.25           2431       15991.00     69863.23
   99.89        2970.50           2434       14624.00     63877.03
   99.93        2970.75           2438       12889.00     56282.84
   99.96        2971.00           2441       11429.00     49895.39
   99.99        2971.25           2445        9812.00     42824.30
  100.02        2971.50           2449        7846.00     34231.62
  100.05        2971.75           2452        6225.00     27150.60
  100.08        2972.00           2456        4491.00     19579.73
  100.11        2972.25           2459        3232.00     14085.21
  100.14        2972.50           2463        1779.00      7746.59
  100.17        2972.75           2466         883.00      3839.21
  100.20        2973.00           2470         268.00      1157.85
  100.23        2973.25           2473         158.00       678.31
  100.26        2973.50           2477         130.00       556.24
  100.29        2973.75           2481         120.00       512.65
  100.32        2974.00           2484         120.00       512.65
  100.35        2974.25           2488         124.00       530.09
  100.38        2974.50           2491         103.00       438.54
  100.41        2974.75           2495         103.00       438.54
  100.44        2975.00           2498         135.00       578.04
  100.48        2975.25           2502         102.00       434.18
  100.51        2975.50           2505         120.00       512.65
  100.54        2975.75           2509         125.00       534.45
  100.57        2976.00           2512          98.00       416.75
  100.60        2976.25           2516          97.00       412.39
  100.63        2976.50           2520         112.00       477.78
  100.66        2976.75           2523          96.00       408.03
  100.69        2977.00           2527         100.00       425.46
  100.72        2977.25           2530         116.00       495.21
  100.75        2977.50           2534          95.00       403.67
  100.78        2977.75           2537          96.00       408.03
  100.81        2978.00           2541          87.00       368.79
  100.84        2978.25           2544          95.00       403.67
  100.87        2978.50           2548          95.00       403.67
  100.90        2978.75           2552          85.00       360.07
  100.93        2979.00           2555          83.00       351.36
  100.96        2979.25           2559          86.00       364.43
  101.00        2979.50           2562          84.00       355.71
  101.03        2979.75           2566          79.00       333.92
  101.06        2980.00           2569          84.00       355.71
  101.09        2980.25           2573          77.00       325.20
  101.12        2980.50           2577          83.00       351.36
  101.15        2980.75           2580          86.00       364.43
  101.18        2981.00           2584          84.00       355.71
  101.21        2981.25           2587          82.00       347.00
  101.24        2981.50           2591          79.00       333.92
  101.27        2981.75           2594          76.00       320.84
  101.30        2982.00           2598          75.00       316.48
  101.33        2982.25           2601          73.00       307.76
  101.36        2982.50           2605          74.00       312.12
  101.39        2982.75           2609          75.00       316.48
  101.42        2983.00           2612          72.00       303.40
  101.45        2983.25           2616          78.00       329.56
  101.48        2983.50           2619          73.00       307.76
  101.52        2983.75           2623          80.00       338.28
  101.55        2984.00           2626          67.00       281.61
HS scan finished at 01:41:46
end
************************************************************
  HS Scan of (1) Internal mercury lamp
************************************************************
Integration time is 0.2294 seconds per sample
dh190718Reading 51.44 .94 4.11pr1000
************************************************************
Dead Time -------------------------  3.4E-08 
Number of Cycles Used -------------  4 
Starting Wavelength (Angstroms) ---  2950 
Final Wavelength (Angstoms) -------  2984 
Wavelength Increment (Angstroms) --  .25 
Filter Wheel #1 Position ---------- (1) Ground quartz diffuser (ND=2.32)
Filter Wheel #2 Position ---------- (1) Neutral Density 0.494



************************************************************
HS scan start time = 21:07:28
Dark Count =  13 


Time (GMT)  Wavelength (Ang)  Step Number  Raw Counts  Counts/Second

 1268.37        2950.00           2144          45.00       139.50
 1268.56        2950.25           2147          45.00       139.50
 1268.59        2950.50           2151          44.00       135.14
 1268.62        2950.75           2155          46.00       143.85
 1268.65        2951.00           2158          43.00       130.78
 1268.68        2951.25           2162          45.00       139.50
 1268.71        2951.50           2165          47.00       148.21
 1268.74        2951.75           2169          42.00       126.42
 1268.77        2952.00           2172          45.00       139.50
 1268.80        2952.25           2176          44.00       135.14
 1268.83        2952.50           2179          52.00       170.01
 1268.86        2952.75           2183          47.00       148.21
 1268.89        2953.00           2186          49.00       156.93
 1268.93        2953.25           2190          39.00       113.34
 1268.96        2953.50           2193          49.00       156.93
 1268.99        2953.75           2197          54.00       178.73
 1269.02        2954.00           2200          56.00       187.45
 1269.05        2954.25           2204          45.00       139.50
 1269.08        2954.50           2208          51.00       165.65
 1269.11        2954.75           2211          51.00       165.65
 1269.14        2955.00           2215          55.00       183.09
 1269.17        2955.25           2218          51.00       165.65
 1269.20        2955.50           2222          49.00       156.93
 1269.23        2955.75           2225          50.00       161.29
 1269.26        2956.00           2229          52.00       170.01
 1269.29        2956.25           2232          49.00       156.93
 1269.32        2956.50           2236          55.00       183.09
 1269.35        2956.75           2239          57.00       191.81
 1269.38        2957.00           2243          63.00       217.96
 1269.41        2957.25           2246          55.00       183.09
 1269.44        2957.50           2250          57.00       191.81
 1269.48        2957.75           2254          55.00       183.09
 1269.51        2958.00           2257          60.00       204.88
 1269.54        2958.25           2261          56.00       187.45
 1269.57        2958.50           2264          59.00       200.52
 1269.60        2958.75           2268          63.00       217.96
 1269.63        2959.00           2271          55.00       183.09
 1269.66        2959.25           2275          67.00       235.40
 1269.69        2959.50           2278          54.00       178.73
 1269.72        2959.75           2282          61.00       209.24
 1269.75        2960.00           2285          72.00       257.19
 1269.78        2960.25           2289          63.00       217.96
 1269.81        2960.50           2293          63.00       217.96
 1269.84        2960.75           2296          72.00       257.19
 1269.87        2961.00           2300          93.00       348.74
 1269.90        2961.25           2303         180.00       728.00
 1269.93        2961.50           2307         641.00      2737.83
 1269.96        2961.75           2310        1241.00      5354.07
 1270.00        2962.00           2314        2058.00      8917.26
 1270.03        2962.25           2317        2688.00     11665.48
 1270.06        2962.50           2321        3631.00     15780.04
 1270.09        2962.75           2324        4252.00     18490.26
 1270.12        2963.00           2328        5159.00     22449.56
 1270.15        2963.25           2331        5835.00     25401.18
 1270.18        2963.50           2335        6901.00     30056.86
 1270.21        2963.75           2339        7825.00     34093.56
 1270.24        2964.00           2342        8689.00     37869.13
 1270.27        2964.25           2346        9700.00     42288.31
 1270.30        2964.50           2349       10242.00     44658.00
 1270.33        2964.75           2353       11201.00     48851.78
 1270.36        2965.00           2356       11980.00     52259.30
 1270.39        2965.25           2360       12953.00     56516.52
 1270.42        2965.50           2363       13622.00     59444.35
 1270.45        2965.75           2367       14469.00     63152.02
 1270.49        2966.00           2370       15029.00     65603.90
 1270.52        2966.25           2374       15879.00     69326.25
 1270.55        2966.50           2378       16366.00     71459.38
 1270.58        2966.75           2381       16638.00     72650.91
 1270.61        2967.00           2385       16557.00     72296.06
 1270.64        2967.25           2388       16505.00     72068.27
 1270.67        2967.50           2392       16533.00     72190.93
 1270.70        2967.75           2395       16518.00     72125.21
 1270.73        2968.00           2399       15881.00     69335.02
 1270.76        2968.25           2402       15254.00     66589.13
 1270.79        2968.50           2406       14474.00     63173.91
 1270.82        2968.75           2409       13764.00     60065.88
 1270.85        2969.00           2413       12885.00     56218.96
 1270.88        2969.25           2417       11845.00     51668.73
 1270.91        2969.50           2420       11142.00     48593.74
 1270.94        2969.75           2424       10147.00     44242.62
 1270.97        2970.00           2427        9533.00     41558.24
 1271.00        2970.25           2431        8545.00     37239.80
 1271.04        2970.50           2434        7712.00     33599.83
 1271.07        2970.75           2438        6656.00     28986.71
 1271.10        2971.00           2441        5894.00     25658.82
 1271.13        2971.25           2445        4952.00     21545.86
 1271.16        2971.50           2449        4101.00     17831.21
 1271.19        2971.75           2452        3420.00     14859.29
 1271.22        2972.00           2456        2446.00     10609.76
 1271.25        2972.25           2459        1720.00      7443.03
 1271.28        2972.50           2463         849.00      3644.74
 1271.31        2972.75           2466         408.00      1721.98
 1271.34        2973.00           2470         157.00       627.74
 1271.37        2973.25           2473          85.00       313.87
 1271.40        2973.50           2477          72.00       257.19
 1271.43        2973.75           2481          73.00       261.55
 1271.46        2974.00           2484          68.00       239.76
 1271.49        2974.25           2488          68.00       239.76
 1271.52        2974.50           2491          72.00       257.19
 1271.56        2974.75           2495          61.00       209.24
 1271.59        2975.00           2498          72.00       257.19
 1271.62        2975.25           2502          68.00       239.76
 1271.65        2975.50           2505          63.00       217.96
 1271.68        2975.75           2509          60.00       204.88
 1271.71        2976.00           2512          63.00       217.96
 1271.74        2976.25           2516          59.00       200.52
 1271.77        2976.50           2520          57.00       191.81
 1271.80        2976.75           2523          53.00       174.37
 1271.83        2977.00           2527          54.00       178.73
 1271.86        2977.25           2530          57.00       191.81
 1271.89        2977.50           2534          52.00       170.01
 1271.92        2977.75           2537          56.00       187.45
 1271.95        2978.00           2541          54.00       178.73
 1271.98        2978.25           2544          55.00       183.09
 1272.01        2978.50           2548          60.00       204.88
 1272.04        2978.75           2552          63.00       217.96
 1272.08        2979.00           2555          50.00       161.29
 1272.11        2979.25           2559          51.00       165.65
 1272.14        2979.50           2562          52.00       170.01
 1272.17        2979.75           2566          50.00       161.29
 1272.20        2980.00           2569          48.00       152.57
 1272.23        2980.25           2573          54.00       178.73
 1272.26        2980.50           2577          47.00       148.21
 1272.29        2980.75           2580          52.00       170.01
 1272.32        2981.00           2584          47.00       148.21
 1272.35        2981.25           2587          45.00       139.50
 1272.38        2981.50           2591          46.00       143.85
 1272.41        2981.75           2594          53.00       174.37
 1272.44        2982.00           2598          55.00       183.09
 1272.47        2982.25           2601          47.00       148.21
 1272.51        2982.50           2605          52.00       170.01
 1272.54        2982.75           2609          52.00       170.01
 1272.57        2983.00           2612          49.00       156.93
 1272.60        2983.25           2616          43.00       130.78
 1272.63        2983.50           2619          40.00       117.70
 1272.66        2983.75           2623          48.00       152.57
 1272.69        2984.00           2626          47.00       148.21
HS scan finished at 21:12:55
end
