************************************************************
  HS Scan of (1) Internal mercury lamp
************************************************************
Integration time is 0.2294 seconds per sample
dh200718Reading 51.44 .94 3.74pr1000
************************************************************
Dead Time -------------------------  3.4E-08 
Number of Cycles Used -------------  4 
Starting Wavelength (Angstroms) ---  2950 
Final Wavelength (Angstoms) -------  2984 
Wavelength Increment (Angstroms) --  .25 
Filter Wheel #1 Position ---------- (1) Ground quartz diffuser (ND=2.32)
Filter Wheel #2 Position ---------- (1) Neutral Density 0.494



************************************************************
HS scan start time = 01:14:20
Dark Count =  4.1 


Time (GMT)  Wavelength (Ang)  Step Number  Raw Counts  Counts/Second

   75.24        2950.00           2144          70.00       287.27
   75.43        2950.25           2147          67.00       274.20
   75.46        2950.50           2151          74.00       304.71
   75.49        2950.75           2155          66.00       269.84
   75.52        2951.00           2158          70.00       287.27
   75.55        2951.25           2162          70.00       287.27
   75.58        2951.50           2165          72.00       295.99
   75.61        2951.75           2169          77.00       317.79
   75.64        2952.00           2172          78.00       322.15
   75.68        2952.25           2176          70.00       287.27
   75.71        2952.50           2179          78.00       322.15
   75.74        2952.75           2183          62.00       252.40
   75.77        2953.00           2186          68.00       278.56
   75.80        2953.25           2190          69.00       282.91
   75.83        2953.50           2193          71.00       291.63
   75.86        2953.75           2197          72.00       295.99
   75.89        2954.00           2200          72.00       295.99
   75.92        2954.25           2204          77.00       317.79
   75.95        2954.50           2208          75.00       309.07
   75.98        2954.75           2211          80.00       330.87
   76.01        2955.00           2215          68.00       278.56
   76.04        2955.25           2218          80.00       330.87
   76.07        2955.50           2222          74.00       304.71
   76.10        2955.75           2225          80.00       330.87
   76.13        2956.00           2229          73.00       300.35
   76.16        2956.25           2232          72.00       295.99
   76.20        2956.50           2236          81.00       335.23
   76.23        2956.75           2239          77.00       317.79
   76.26        2957.00           2243          78.00       322.15
   76.29        2957.25           2246          93.00       387.54
   76.32        2957.50           2250          87.00       361.38
   76.35        2957.75           2254          85.00       352.66
   76.38        2958.00           2257          68.00       278.56
   76.41        2958.25           2261          88.00       365.74
   76.44        2958.50           2264          83.00       343.94
   76.47        2958.75           2268          94.00       391.90
   76.50        2959.00           2271          95.00       396.26
   76.53        2959.25           2275          99.00       413.69
   76.56        2959.50           2278          91.00       378.82
   76.59        2959.75           2282         102.00       426.77
   76.62        2960.00           2285         116.00       487.80
   76.65        2960.25           2289          95.00       396.26
   76.68        2960.50           2293         120.00       505.24
   76.72        2960.75           2296         131.00       553.19
   76.75        2961.00           2300         142.00       601.15
   76.78        2961.25           2303         322.00      1385.85
   76.81        2961.50           2307        1190.00      5170.48
   76.84        2961.75           2310        2135.00      9291.95
   76.87        2962.00           2314        3686.00     16058.90
   76.90        2962.25           2317        5007.00     21824.82
   76.93        2962.50           2321        6753.00     29449.27
   76.96        2962.75           2324        8001.00     34901.46
   76.99        2963.00           2328        9602.00     41898.80
   77.02        2963.25           2331       10931.00     47709.85
   77.05        2963.50           2335       12794.00     55859.70
   77.08        2963.75           2339       14519.00     63409.89
   77.11        2964.00           2342       16021.00     69987.19
   77.14        2964.25           2346       17639.00     77075.75
   77.17        2964.50           2349       18766.00     82015.21
   77.20        2964.75           2353       20853.00     91166.63
   77.23        2965.00           2356       22064.00     96479.44
   77.27        2965.25           2360       23879.00    104445.70
   77.30        2965.50           2363       25262.00    110518.70
   77.33        2965.75           2367       26931.00    117851.00
   77.36        2966.00           2370       27909.00    122149.20
   77.39        2966.25           2374       29466.00    128994.80
   77.42        2966.50           2378       30458.00    133357.90
   77.45        2966.75           2381       30612.00    134035.40
   77.48        2967.00           2385       30820.00    134950.40
   77.51        2967.25           2388       30817.00    134937.20
   77.54        2967.50           2392       30550.00    133762.60
   77.57        2967.75           2395       30472.00    133419.50
   77.60        2968.00           2399       29778.00    130366.90
   77.63        2968.25           2402       28557.00    124997.90
   77.66        2968.50           2406       27137.00    118756.20
   77.69        2968.75           2409       25814.00    112943.40
   77.72        2969.00           2413       23800.00    104098.80
   77.75        2969.25           2417       21939.00     95930.96
   77.79        2969.50           2420       20656.00     90302.56
   77.82        2969.75           2424       18965.00     82887.59
   77.85        2970.00           2427       17338.00     75756.79
   77.88        2970.25           2431       15429.00     67394.45
   77.91        2970.50           2434       14146.00     61776.97
   77.95        2970.75           2438       12408.00     54170.74
   77.98        2971.00           2441       11002.00     48020.37
   78.01        2971.25           2445        9204.00     40158.99
   78.04        2971.50           2449        7428.00     32397.92
   78.07        2971.75           2452        6120.00     26684.62
   78.10        2972.00           2456        4526.00     19725.08
   78.13        2972.25           2459        3199.00     13933.80
   78.16        2972.50           2463        1570.00      6827.65
   78.19        2972.75           2466         680.00      2946.68
   78.22        2973.00           2470         246.00      1054.53
   78.25        2973.25           2473         139.00       588.07
   78.28        2973.50           2477         113.00       474.72
   78.31        2973.75           2481         116.00       487.80
   78.34        2974.00           2484         109.00       457.29
   78.37        2974.25           2488         152.00       644.74
   78.40        2974.50           2491         106.00       444.21
   78.43        2974.75           2495         131.00       553.19
   78.47        2975.00           2498         115.00       483.44
   78.50        2975.25           2502          99.00       413.69
   78.53        2975.50           2505          92.00       383.18
   78.56        2975.75           2509          88.00       365.74
   78.59        2976.00           2512          83.00       343.94
   78.62        2976.25           2516          99.00       413.69
   78.65        2976.50           2520          94.00       391.90
   78.68        2976.75           2523          85.00       352.66
   78.71        2977.00           2527          93.00       387.54
   78.74        2977.25           2530          85.00       352.66
   78.77        2977.50           2534          90.00       374.46
   78.80        2977.75           2537          89.00       370.10
   78.83        2978.00           2541          85.00       352.66
   78.86        2978.25           2544          89.00       370.10
   78.89        2978.50           2548          84.00       348.30
   78.92        2978.75           2552          85.00       352.66
   78.95        2979.00           2555          92.00       383.18
   78.98        2979.25           2559          82.00       339.59
   79.01        2979.50           2562          89.00       370.10
   79.05        2979.75           2566          85.00       352.66
   79.08        2980.00           2569          83.00       343.94
   79.11        2980.25           2573          72.00       295.99
   79.14        2980.50           2577          77.00       317.79
   79.17        2980.75           2580          74.00       304.71
   79.20        2981.00           2584          79.00       326.51
   79.23        2981.25           2587          73.00       300.35
   79.26        2981.50           2591          83.00       343.94
   79.29        2981.75           2594          73.00       300.35
   79.32        2982.00           2598          78.00       322.15
   79.35        2982.25           2601          72.00       295.99
   79.38        2982.50           2605          76.00       313.43
   79.41        2982.75           2609          71.00       291.63
   79.44        2983.00           2612          72.00       295.99
   79.47        2983.25           2616          75.00       309.07
   79.50        2983.50           2619          78.00       322.15
   79.54        2983.75           2623          75.00       309.07
   79.57        2984.00           2626          74.00       304.71
HS scan finished at 01:19:47
end
************************************************************
  HS Scan of (1) Internal mercury lamp
************************************************************
Integration time is 0.2294 seconds per sample
dh200718Reading 51.44 .94 3.8pr1000
************************************************************
Dead Time -------------------------  3.4E-08 
Number of Cycles Used -------------  4 
Starting Wavelength (Angstroms) ---  2950 
Final Wavelength (Angstoms) -------  2984 
Wavelength Increment (Angstroms) --  .25 
Filter Wheel #1 Position ---------- (1) Ground quartz diffuser (ND=2.32)
Filter Wheel #2 Position ---------- (1) Neutral Density 0.494



************************************************************
HS scan start time = 21:07:29
Dark Count =  6 


Time (GMT)  Wavelength (Ang)  Step Number  Raw Counts  Counts/Second

 1268.39        2950.00           2144          67.00       265.91
 1268.58        2950.25           2147          65.00       257.19
 1268.61        2950.50           2151          67.00       265.91
 1268.64        2950.75           2155          70.00       278.99
 1268.67        2951.00           2158          67.00       265.91
 1268.70        2951.25           2162          68.00       270.27
 1268.73        2951.50           2165          76.00       305.15
 1268.76        2951.75           2169          64.00       252.84
 1268.79        2952.00           2172          67.00       265.91
 1268.82        2952.25           2176          67.00       265.91
 1268.85        2952.50           2179          62.00       244.12
 1268.88        2952.75           2183          74.00       296.43
 1268.92        2953.00           2186          67.00       265.91
 1268.95        2953.25           2190          65.00       257.19
 1268.98        2953.50           2193          68.00       270.27
 1269.01        2953.75           2197          70.00       278.99
 1269.04        2954.00           2200          72.00       287.71
 1269.07        2954.25           2204          73.00       292.07
 1269.10        2954.50           2208          77.00       309.51
 1269.13        2954.75           2211          72.00       287.71
 1269.16        2955.00           2215          67.00       265.91
 1269.19        2955.25           2218          66.00       261.55
 1269.22        2955.50           2222          75.00       300.79
 1269.25        2955.75           2225          72.00       287.71
 1269.28        2956.00           2229          73.00       292.07
 1269.31        2956.25           2232          78.00       313.87
 1269.34        2956.50           2236          75.00       300.79
 1269.37        2956.75           2239          80.00       322.58
 1269.40        2957.00           2243          72.00       287.71
 1269.44        2957.25           2246          77.00       309.51
 1269.47        2957.50           2250          81.00       326.94
 1269.50        2957.75           2254          75.00       300.79
 1269.53        2958.00           2257          77.00       309.51
 1269.56        2958.25           2261          91.00       370.54
 1269.59        2958.50           2264          85.00       344.38
 1269.62        2958.75           2268          88.00       357.46
 1269.65        2959.00           2271          93.00       379.26
 1269.68        2959.25           2275          99.00       405.41
 1269.71        2959.50           2278          96.00       392.33
 1269.74        2959.75           2282          90.00       366.18
 1269.77        2960.00           2285          83.00       335.66
 1269.80        2960.25           2289         115.00       475.16
 1269.83        2960.50           2293         114.00       470.80
 1269.86        2960.75           2296         108.00       444.64
 1269.89        2961.00           2300         151.00       632.10
 1269.92        2961.25           2303         349.00      1495.28
 1269.96        2961.50           2307        1151.00      4992.13
 1269.99        2961.75           2310        2110.00      9174.61
 1270.02        2962.00           2314        3618.00     15753.86
 1270.05        2962.25           2317        4720.00     20563.63
 1270.08        2962.50           2321        6148.00     26798.60
 1270.11        2962.75           2324        7196.00     31376.09
 1270.14        2963.00           2328        8932.00     38961.78
 1270.17        2963.25           2331       10241.00     44684.23
 1270.20        2963.50           2335       11856.00     51747.46
 1270.23        2963.75           2339       13243.00     57816.24
 1270.26        2964.00           2342       14461.00     63147.64
 1270.29        2964.25           2346       16071.00     70197.86
 1270.32        2964.50           2349       17440.00     76195.40
 1270.35        2964.75           2353       19351.00     84571.52
 1270.38        2965.00           2356       20593.00     90017.91
 1270.41        2965.25           2360       22000.00     96190.28
 1270.44        2965.50           2363       23194.00    101430.30
 1270.48        2965.75           2367       24651.00    107827.00
 1270.51        2966.00           2370       25719.00    112517.70
 1270.54        2966.25           2374       26821.00    117359.30
 1270.57        2966.50           2378       27527.00    120461.90
 1270.60        2966.75           2381       27414.00    119965.20
 1270.63        2967.00           2385       27433.00    120048.70
 1270.66        2967.25           2388       27423.00    120004.80
 1270.69        2967.50           2392       27426.00    120018.00
 1270.72        2967.75           2395       27157.00    118835.80
 1270.75        2968.00           2399       26343.00    115259.00
 1270.78        2968.25           2402       25258.00    110492.80
 1270.81        2968.50           2406       23539.00    102944.70
 1270.84        2968.75           2409       22474.00     98270.25
 1270.87        2969.00           2413       21022.00     91899.61
 1270.90        2969.25           2417       19530.00     85356.34
 1270.93        2969.50           2420       18484.00     80770.78
 1270.96        2969.75           2424       16669.00     72817.38
 1271.00        2970.00           2427       15455.00     67499.99
 1271.03        2970.25           2431       13663.00     59654.44
 1271.06        2970.50           2434       12476.00     54459.95
 1271.09        2970.75           2438       11039.00     48173.87
 1271.12        2971.00           2441        9695.00     42297.05
 1271.15        2971.25           2445        8126.00     35439.36
 1271.18        2971.50           2449        6743.00     29397.29
 1271.21        2971.75           2452        5615.00     24471.10
 1271.24        2972.00           2456        4127.00     17975.24
 1271.27        2972.25           2459        2922.00     12716.92
 1271.30        2972.50           2463        1503.00      6527.17
 1271.33        2972.75           2466         716.00      3095.36
 1271.36        2973.00           2470         264.00      1124.72
 1271.39        2973.25           2473         145.00       605.94
 1271.42        2973.50           2477         127.00       527.47
 1271.45        2973.75           2481         101.00       414.13
 1271.48        2974.00           2484         112.00       462.08
 1271.52        2974.25           2488          96.00       392.33
 1271.55        2974.50           2491          96.00       392.33
 1271.58        2974.75           2495          94.00       383.61
 1271.61        2975.00           2498          87.00       353.10
 1271.64        2975.25           2502          89.00       361.82
 1271.67        2975.50           2505          96.00       392.33
 1271.70        2975.75           2509          92.00       374.90
 1271.73        2976.00           2512          86.00       348.74
 1271.76        2976.25           2516          91.00       370.54
 1271.79        2976.50           2520          86.00       348.74
 1271.82        2976.75           2523          88.00       357.46
 1271.85        2977.00           2527          75.00       300.79
 1271.88        2977.25           2530          78.00       313.87
 1271.91        2977.50           2534          75.00       300.79
 1271.94        2977.75           2537          77.00       309.51
 1271.97        2978.00           2541          77.00       309.51
 1272.00        2978.25           2544          71.00       283.35
 1272.03        2978.50           2548          82.00       331.30
 1272.07        2978.75           2552          75.00       300.79
 1272.10        2979.00           2555          76.00       305.15
 1272.13        2979.25           2559          76.00       305.15
 1272.16        2979.50           2562          76.00       305.15
 1272.19        2979.75           2566          81.00       326.94
 1272.22        2980.00           2569          79.00       318.22
 1272.25        2980.25           2573          74.00       296.43
 1272.28        2980.50           2577          74.00       296.43
 1272.31        2980.75           2580          72.00       287.71
 1272.34        2981.00           2584          69.00       274.63
 1272.37        2981.25           2587          71.00       283.35
 1272.40        2981.50           2591          76.00       305.15
 1272.43        2981.75           2594          70.00       278.99
 1272.46        2982.00           2598          64.00       252.84
 1272.49        2982.25           2601          76.00       305.15
 1272.52        2982.50           2605          79.00       318.22
 1272.55        2982.75           2609          68.00       270.27
 1272.59        2983.00           2612          70.00       278.99
 1272.62        2983.25           2616          68.00       270.27
 1272.65        2983.50           2619          67.00       265.91
 1272.68        2983.75           2623          71.00       283.35
 1272.71        2984.00           2626          67.00       265.91
HS scan finished at 21:12:56
end
