************************************************************
  HS Scan of (1) Internal mercury lamp
************************************************************
Integration time is 0.2294 seconds per sample
dh210718Reading 51.44 .94 3.58pr1000
************************************************************
Dead Time -------------------------  3.4E-08 
Number of Cycles Used -------------  4 
Starting Wavelength (Angstroms) ---  2950 
Final Wavelength (Angstoms) -------  2984 
Wavelength Increment (Angstroms) --  .25 
Filter Wheel #1 Position ---------- (1) Ground quartz diffuser (ND=2.32)
Filter Wheel #2 Position ---------- (1) Neutral Density 0.494



************************************************************
HS scan start time = 01:14:24
Dark Count =  3.1 


Time (GMT)  Wavelength (Ang)  Step Number  Raw Counts  Counts/Second

   75.30        2950.00           2144          72.00       300.35
   75.50        2950.25           2147          71.00       295.99
   75.53        2950.50           2151          64.00       265.48
   75.56        2950.75           2155          74.00       309.07
   75.59        2951.00           2158          67.00       278.56
   75.62        2951.25           2162          77.00       322.15
   75.65        2951.50           2165          76.00       317.79
   75.68        2951.75           2169          73.00       304.71
   75.71        2952.00           2172          72.00       300.35
   75.74        2952.25           2176          73.00       304.71
   75.77        2952.50           2179          76.00       317.79
   75.80        2952.75           2183          74.00       309.07
   75.83        2953.00           2186          77.00       322.15
   75.87        2953.25           2190          79.00       330.87
   75.90        2953.50           2193          74.00       309.07
   75.93        2953.75           2197          77.00       322.15
   75.96        2954.00           2200          83.00       348.30
   75.99        2954.25           2204          74.00       309.07
   76.02        2954.50           2208          73.00       304.71
   76.05        2954.75           2211          79.00       330.87
   76.08        2955.00           2215          81.00       339.59
   76.11        2955.25           2218          73.00       304.71
   76.14        2955.50           2222          85.00       357.02
   76.17        2955.75           2225          77.00       322.15
   76.20        2956.00           2229          81.00       339.59
   76.23        2956.25           2232          85.00       357.02
   76.26        2956.50           2236          87.00       365.74
   76.29        2956.75           2239         112.00       474.72
   76.32        2957.00           2243          89.00       374.46
   76.35        2957.25           2246          92.00       387.54
   76.39        2957.50           2250          90.00       378.82
   76.42        2957.75           2254          93.00       391.90
   76.45        2958.00           2257          87.00       365.74
   76.48        2958.25           2261          95.00       400.62
   76.51        2958.50           2264          88.00       370.10
   76.54        2958.75           2268         103.00       435.49
   76.57        2959.00           2271         101.00       426.77
   76.61        2959.25           2275          88.00       370.10
   76.64        2959.50           2278         102.00       431.13
   76.67        2959.75           2282          93.00       391.90
   76.70        2960.00           2285         117.00       496.52
   76.73        2960.25           2289         103.00       435.49
   76.76        2960.50           2293         110.00       466.01
   76.79        2960.75           2296         159.00       679.61
   76.82        2961.00           2300         174.00       745.01
   76.85        2961.25           2303         413.00      1786.94
   76.88        2961.50           2307        1339.00      5824.61
   76.91        2961.75           2310        2311.00     10064.04
   76.94        2962.00           2314        3948.00     17206.66
   76.97        2962.25           2317        5371.00     23418.38
   77.00        2962.50           2321        7160.00     31231.49
   77.03        2962.75           2324        8504.00     37103.89
   77.06        2963.00           2328       10429.00     45518.96
   77.10        2963.25           2331       11726.00     51191.47
   77.13        2963.50           2335       13653.00     59623.37
   77.16        2963.75           2339       15557.00     67959.38
   77.19        2964.00           2342       16955.00     74083.06
   77.22        2964.25           2346       18754.00     81967.01
   77.25        2964.50           2349       20250.00     88526.31
   77.28        2964.75           2353       21868.00     95623.82
   77.31        2965.00           2356       23278.00    101811.70
   77.34        2965.25           2360       24913.00    108990.30
   77.37        2965.50           2363       26417.00    115596.90
   77.40        2965.75           2367       28164.00    123274.50
   77.43        2966.00           2370       29679.00    129935.90
   77.46        2966.25           2374       30957.00    135557.50
   77.49        2966.50           2378       31618.00    138466.00
   77.52        2966.75           2381       31732.00    138967.60
   77.55        2967.00           2385       31803.00    139280.10
   77.58        2967.25           2388       31823.00    139368.10
   77.62        2967.50           2392       31637.00    138549.60
   77.65        2967.75           2395       31521.00    138039.10
   77.68        2968.00           2399       30440.00    133283.10
   77.71        2968.25           2402       28979.00    126857.70
   77.74        2968.50           2406       27595.00    120773.50
   77.77        2968.75           2409       26520.00    116049.40
   77.80        2969.00           2413       24833.00    108639.00
   77.83        2969.25           2417       23077.00    100929.50
   77.86        2969.50           2420       21470.00     93877.63
   77.89        2969.75           2424       19626.00     85789.99
   77.92        2970.00           2427       18118.00     79179.31
   77.95        2970.25           2431       16489.00     72041.55
   77.98        2970.50           2434       15082.00     65879.31
   78.01        2970.75           2438       12961.00     56594.85
   78.04        2971.00           2441       11402.00     49774.23
   78.07        2971.25           2445        9485.00     41391.69
   78.10        2971.50           2449        7575.00     33044.52
   78.14        2971.75           2452        6288.00     27422.68
   78.17        2972.00           2456        4464.00     19458.82
   78.20        2972.25           2459        3188.00     13890.17
   78.23        2972.50           2463        1591.00      6923.60
   78.26        2972.75           2466         746.00      3238.81
   78.29        2973.00           2470         227.00       976.06
   78.32        2973.25           2473         143.00       609.86
   78.35        2973.50           2477         124.00       527.04
   78.38        2973.75           2481         130.00       553.19
   78.41        2974.00           2484         132.00       561.91
   78.44        2974.25           2488         110.00       466.01
   78.47        2974.50           2491         113.00       479.08
   78.50        2974.75           2495         102.00       431.13
   78.53        2975.00           2498          99.00       418.05
   78.56        2975.25           2502         101.00       426.77
   78.59        2975.50           2505          94.00       396.26
   78.62        2975.75           2509          93.00       391.90
   78.66        2976.00           2512         108.00       457.29
   78.69        2976.25           2516          96.00       404.98
   78.73        2976.50           2520         109.00       461.65
   78.76        2976.75           2523          98.00       413.69
   78.79        2977.00           2527          94.00       396.26
   78.82        2977.25           2530          98.00       413.69
   78.85        2977.50           2534          98.00       413.69
   78.88        2977.75           2537          84.00       352.66
   78.91        2978.00           2541          91.00       383.18
   78.95        2978.25           2544          85.00       357.02
   78.98        2978.50           2548          91.00       383.18
   79.01        2978.75           2552          90.00       378.82
   79.04        2979.00           2555          80.00       335.23
   79.07        2979.25           2559          82.00       343.94
   79.10        2979.50           2562          81.00       339.59
   79.13        2979.75           2566          82.00       343.94
   79.16        2980.00           2569          74.00       309.07
   79.19        2980.25           2573          76.00       317.79
   79.22        2980.50           2577          85.00       357.02
   79.25        2980.75           2580          81.00       339.59
   79.29        2981.00           2584          79.00       330.87
   79.32        2981.25           2587          77.00       322.15
   79.35        2981.50           2591          85.00       357.02
   79.38        2981.75           2594          79.00       330.87
   79.41        2982.00           2598          79.00       330.87
   79.44        2982.25           2601          77.00       322.15
   79.47        2982.50           2605          78.00       326.51
   79.50        2982.75           2609          77.00       322.15
   79.53        2983.00           2612          77.00       322.15
   79.56        2983.25           2616          73.00       304.71
   79.59        2983.50           2619          87.00       365.74
   79.63        2983.75           2623          72.00       300.35
   79.66        2984.00           2626          74.00       309.07
HS scan finished at 01:19:53
end
************************************************************
  HS Scan of (1) Internal mercury lamp
************************************************************
Integration time is 0.2294 seconds per sample
dh210718Reading 51.44 .94 3.98pr1000
************************************************************
Dead Time -------------------------  3.4E-08 
Number of Cycles Used -------------  4 
Starting Wavelength (Angstroms) ---  2950 
Final Wavelength (Angstoms) -------  2984 
Wavelength Increment (Angstroms) --  .25 
Filter Wheel #1 Position ---------- (1) Ground quartz diffuser (ND=2.32)
Filter Wheel #2 Position ---------- (1) Neutral Density 0.494



************************************************************
HS scan start time = 21:07:24
Dark Count =  8.2 


Time (GMT)  Wavelength (Ang)  Step Number  Raw Counts  Counts/Second

 1268.30        2950.00           2144          47.00       169.14
 1268.49        2950.25           2147          46.00       164.78
 1268.52        2950.50           2151          51.00       186.57
 1268.56        2950.75           2155          47.00       169.14
 1268.59        2951.00           2158          47.00       169.14
 1268.62        2951.25           2162          49.00       177.86
 1268.65        2951.50           2165          50.00       182.22
 1268.68        2951.75           2169          48.00       173.50
 1268.71        2952.00           2172          51.00       186.57
 1268.74        2952.25           2176          46.00       164.78
 1268.77        2952.50           2179          59.00       221.45
 1268.80        2952.75           2183          46.00       164.78
 1268.83        2953.00           2186          52.00       190.93
 1268.86        2953.25           2190          44.00       156.06
 1268.89        2953.50           2193          51.00       186.57
 1268.92        2953.75           2197          50.00       182.22
 1268.95        2954.00           2200          50.00       182.22
 1268.98        2954.25           2204          53.00       195.29
 1269.01        2954.50           2208          53.00       195.29
 1269.04        2954.75           2211          48.00       173.50
 1269.08        2955.00           2215          54.00       199.65
 1269.11        2955.25           2218          51.00       186.57
 1269.14        2955.50           2222          52.00       190.93
 1269.17        2955.75           2225          49.00       177.86
 1269.20        2956.00           2229          53.00       195.29
 1269.23        2956.25           2232          59.00       221.45
 1269.26        2956.50           2236          56.00       208.37
 1269.29        2956.75           2239          55.00       204.01
 1269.32        2957.00           2243          56.00       208.37
 1269.35        2957.25           2246          61.00       230.17
 1269.38        2957.50           2250          58.00       217.09
 1269.41        2957.75           2254          59.00       221.45
 1269.44        2958.00           2257          57.00       212.73
 1269.47        2958.25           2261          63.00       238.89
 1269.50        2958.50           2264          63.00       238.89
 1269.53        2958.75           2268          65.00       247.60
 1269.56        2959.00           2271          66.00       251.96
 1269.60        2959.25           2275          65.00       247.60
 1269.63        2959.50           2278          65.00       247.60
 1269.66        2959.75           2282          67.00       256.32
 1269.69        2960.00           2285          62.00       234.53
 1269.72        2960.25           2289          76.00       295.56
 1269.75        2960.50           2293          70.00       269.40
 1269.78        2960.75           2296          80.00       312.99
 1269.81        2961.00           2300         110.00       443.77
 1269.84        2961.25           2303         237.00       997.42
 1269.87        2961.50           2307         853.00      3683.11
 1269.90        2961.75           2310        1418.00      6146.88
 1269.93        2962.00           2314        2332.00     10133.40
 1269.96        2962.25           2317        3061.00     13313.79
 1269.99        2962.50           2321        4134.00     17996.19
 1270.02        2962.75           2324        4958.00     21593.01
 1270.05        2963.00           2328        6011.00     26190.70
 1270.08        2963.25           2331        6718.00     29278.48
 1270.12        2963.50           2335        7966.00     34730.61
 1270.15        2963.75           2339        9089.00     39638.39
 1270.18        2964.00           2342        9887.00     43126.83
 1270.21        2964.25           2346       11037.00     48155.51
 1270.24        2964.50           2349       11722.00     51151.66
 1270.27        2964.75           2353       12600.00     54992.88
 1270.30        2965.00           2356       13696.00     59789.25
 1270.33        2965.25           2360       14710.00     64228.17
 1270.36        2965.50           2363       15320.00     66899.16
 1270.39        2965.75           2367       16254.00     70989.80
 1270.42        2966.00           2370       17147.00     74901.94
 1270.45        2966.25           2374       17815.00     77829.05
 1270.48        2966.50           2378       18247.00     79722.35
 1270.51        2966.75           2381       18259.00     79774.94
 1270.54        2967.00           2385       18474.00     80717.30
 1270.57        2967.25           2388       18373.00     80274.61
 1270.60        2967.50           2392       18403.00     80406.10
 1270.63        2967.75           2395       18183.00     79441.84
 1270.67        2968.00           2399       17243.00     75322.56
 1270.70        2968.25           2402       16638.00     72671.94
 1270.73        2968.50           2406       16023.00     69977.99
 1270.76        2968.75           2409       15335.00     66964.85
 1270.79        2969.00           2413       14265.00     62279.96
 1270.82        2969.25           2417       13171.00     57491.52
 1270.85        2969.50           2420       12379.00     54025.92
 1270.88        2969.75           2424       11291.00     49266.41
 1270.91        2970.00           2427       10666.00     46533.03
 1270.94        2970.25           2431        9490.00     41391.26
 1270.98        2970.50           2434        8602.00     37509.88
 1271.01        2970.75           2438        7605.00     33153.30
 1271.04        2971.00           2441        6750.00     29418.25
 1271.07        2971.25           2445        5695.00     24810.81
 1271.10        2971.50           2449        4606.00     20056.39
 1271.13        2971.75           2452        3777.00     16438.13
 1271.16        2972.00           2456        2691.00     11699.51
 1271.19        2972.25           2459        2007.00      8715.75
 1271.22        2972.50           2463        1039.00      4494.15
 1271.25        2972.75           2466         479.00      2052.45
 1271.28        2973.00           2470         144.00       591.99
 1271.31        2973.25           2473         103.00       413.26
 1271.34        2973.50           2477          77.00       299.92
 1271.37        2973.75           2481          72.00       278.12
 1271.40        2974.00           2484          69.00       265.04
 1271.43        2974.25           2488          80.00       312.99
 1271.47        2974.50           2491          71.00       273.76
 1271.50        2974.75           2495          68.00       260.68
 1271.53        2975.00           2498          71.00       273.76
 1271.56        2975.25           2502          74.00       286.84
 1271.59        2975.50           2505          63.00       238.89
 1271.62        2975.75           2509          61.00       230.17
 1271.65        2976.00           2512          65.00       247.60
 1271.68        2976.25           2516          59.00       221.45
 1271.71        2976.50           2520          66.00       251.96
 1271.74        2976.75           2523          62.00       234.53
 1271.77        2977.00           2527          63.00       238.89
 1271.80        2977.25           2530          55.00       204.01
 1271.83        2977.50           2534          57.00       212.73
 1271.86        2977.75           2537          58.00       217.09
 1271.89        2978.00           2541          57.00       212.73
 1271.92        2978.25           2544          64.00       243.25
 1271.95        2978.50           2548          60.00       225.81
 1271.99        2978.75           2552          54.00       199.65
 1272.02        2979.00           2555          50.00       182.22
 1272.05        2979.25           2559          56.00       208.37
 1272.08        2979.50           2562          54.00       199.65
 1272.11        2979.75           2566          55.00       204.01
 1272.14        2980.00           2569          51.00       186.57
 1272.17        2980.25           2573          57.00       212.73
 1272.20        2980.50           2577          55.00       204.01
 1272.23        2980.75           2580          49.00       177.86
 1272.26        2981.00           2584          54.00       199.65
 1272.29        2981.25           2587          55.00       204.01
 1272.32        2981.50           2591          57.00       212.73
 1272.35        2981.75           2594          51.00       186.57
 1272.38        2982.00           2598          47.00       169.14
 1272.41        2982.25           2601          46.00       164.78
 1272.44        2982.50           2605          55.00       204.01
 1272.47        2982.75           2609          46.00       164.78
 1272.51        2983.00           2612          51.00       186.57
 1272.54        2983.25           2616          51.00       186.57
 1272.57        2983.50           2619          50.00       182.22
 1272.60        2983.75           2623          54.00       199.65
 1272.63        2984.00           2626          47.00       169.14
HS scan finished at 21:12:51
end
