************************************************************
  HS Scan of (1) Internal mercury lamp
************************************************************
Integration time is 0.2294 seconds per sample
dh200717Reading 51.44 .94 3.56pr1000
************************************************************
Dead Time -------------------------  3.4E-08 
Number of Cycles Used -------------  4 
Starting Wavelength (Angstroms) ---  2950 
Final Wavelength (Angstoms) -------  2984 
Wavelength Increment (Angstroms) --  .25 
Filter Wheel #1 Position ---------- (1) Ground quartz diffuser (ND=2.32)
Filter Wheel #2 Position ---------- (1) Neutral Density 0.494



************************************************************
HS scan start time = 01:15:33
Dark Count =  3.1 


Time (GMT)  Wavelength (Ang)  Step Number  Raw Counts  Counts/Second

   76.46        2950.00           2144         326.00      1407.65
   76.65        2950.25           2147         347.00      1499.20
   76.68        2950.50           2151         337.00      1455.61
   76.71        2950.75           2155         334.00      1442.53
   76.74        2951.00           2158         326.00      1407.65
   76.77        2951.25           2162         335.00      1446.89
   76.80        2951.50           2165         361.00      1560.24
   76.83        2951.75           2169         386.00      1669.23
   76.86        2952.00           2172         355.00      1534.08
   76.89        2952.25           2176         358.00      1547.16
   76.92        2952.50           2179         347.00      1499.20
   76.95        2952.75           2183         353.00      1525.36
   76.99        2953.00           2186         356.00      1538.44
   77.02        2953.25           2190         373.00      1612.56
   77.05        2953.50           2193         335.00      1446.89
   77.08        2953.75           2197         358.00      1547.16
   77.11        2954.00           2200         369.00      1595.12
   77.14        2954.25           2204         364.00      1573.32
   77.17        2954.50           2208         381.00      1647.43
   77.20        2954.75           2211         383.00      1656.15
   77.23        2955.00           2215         395.00      1708.47
   77.26        2955.25           2218         365.00      1577.68
   77.29        2955.50           2222         394.00      1704.11
   77.32        2955.75           2225         381.00      1647.43
   77.35        2956.00           2229         392.00      1695.39
   77.38        2956.25           2232         394.00      1704.11
   77.41        2956.50           2236         403.00      1743.35
   77.44        2956.75           2239         421.00      1821.82
   77.47        2957.00           2243         404.00      1747.71
   77.50        2957.25           2246         409.00      1769.50
   77.54        2957.50           2250         407.00      1760.79
   77.57        2957.75           2254         407.00      1760.79
   77.60        2958.00           2257         412.00      1782.58
   77.63        2958.25           2261         444.00      1922.10
   77.66        2958.50           2264         439.00      1900.30
   77.69        2958.75           2268         445.00      1926.46
   77.72        2959.00           2271         437.00      1891.58
   77.75        2959.25           2275         482.00      2087.77
   77.78        2959.50           2278         451.00      1952.61
   77.81        2959.75           2282         470.00      2035.45
   77.84        2960.00           2285         471.00      2039.81
   77.87        2960.25           2289         489.00      2118.29
   77.90        2960.50           2293         549.00      2379.88
   77.93        2960.75           2296         541.00      2345.00
   77.96        2961.00           2300         668.00      2898.72
   77.99        2961.25           2303        1312.00      5706.86
   78.02        2961.50           2307        4922.00     21458.11
   78.06        2961.75           2310        9671.00     42204.82
   78.09        2962.00           2314       17232.00     75296.71
   78.12        2962.25           2317       23579.00    103133.00
   78.15        2962.50           2321       31513.00    138003.90
   78.18        2962.75           2324       36996.00    162150.90
   78.21        2963.00           2328       44393.00    194790.20
   78.24        2963.25           2331       51105.00    224470.00
   78.27        2963.50           2335       60694.00    266976.10
   78.30        2963.75           2339       69598.00    306556.60
   78.34        2964.00           2342       75425.00    332517.10
   78.37        2964.25           2346       82714.00    365056.20
   78.40        2964.50           2349       88836.00    392441.80
   78.43        2964.75           2353       97474.00    431169.70
   78.46        2965.00           2356      104362.00    462125.40
   78.49        2965.25           2360      112243.00    497624.60
   78.52        2965.50           2363      118263.00    524799.40
   78.55        2965.75           2367      125574.00    557870.10
   78.58        2966.00           2370      130940.00    582190.70
   78.61        2966.25           2374      136989.00    609655.80
   78.64        2966.50           2378      140144.00    624001.30
   78.67        2966.75           2381      140532.00    625766.60
   78.70        2967.00           2385      141153.00    628592.20
   78.73        2967.25           2388      141060.00    628169.10
   78.76        2967.50           2392      140862.00    627268.00
   78.79        2967.75           2395      139724.00    622090.90
   78.82        2968.00           2399      135608.00    603380.80
   78.86        2968.25           2402      130960.00    582281.50
   78.89        2968.50           2406      124057.00    551002.00
   78.92        2968.75           2409      117613.00    521862.80
   78.95        2969.00           2413      110014.00    487575.50
   78.98        2969.25           2417      102525.00    453863.20
   79.01        2969.50           2420       96807.00    428175.60
   79.04        2969.75           2424       88556.00    391188.10
   79.07        2970.00           2427       82645.00    364747.90
   79.10        2970.25           2431       74593.00    328807.50
   79.13        2970.50           2434       67477.00    297118.50
   79.16        2970.75           2438       58685.00    258060.40
   79.19        2971.00           2441       52256.00    229565.60
   79.22        2971.25           2445       44150.00    193716.80
   79.25        2971.50           2449       36392.00    159488.90
   79.28        2971.75           2452       30727.00    134545.60
   79.31        2972.00           2456       23368.00    102206.80
   79.34        2972.25           2459       17733.00     77492.05
   79.38        2972.50           2463        9768.00     42628.87
   79.41        2972.75           2466        4422.00     19275.49
   79.44        2973.00           2470        1247.00      5423.41
   79.47        2973.25           2473         701.00      3042.60
   79.50        2973.50           2477         574.00      2488.88
   79.53        2973.75           2481         535.00      2318.84
   79.56        2974.00           2484         530.00      2297.04
   79.59        2974.25           2488         527.00      2283.96
   79.62        2974.50           2491         515.00      2231.64
   79.65        2974.75           2495         474.00      2052.89
   79.68        2975.00           2498         469.00      2031.09
   79.71        2975.25           2502         472.00      2044.17
   79.74        2975.50           2505         485.00      2100.85
   79.77        2975.75           2509         456.00      1974.41
   79.80        2976.00           2512         461.00      1996.21
   79.83        2976.25           2516         450.00      1948.25
   79.86        2976.50           2520         463.00      2004.93
   79.90        2976.75           2523         436.00      1887.22
   79.93        2977.00           2527         431.00      1865.42
   79.96        2977.25           2530         418.00      1808.74
   79.99        2977.50           2534         406.00      1756.43
   80.02        2977.75           2537         442.00      1913.38
   80.05        2978.00           2541         408.00      1765.15
   80.08        2978.25           2544         407.00      1760.79
   80.11        2978.50           2548         414.00      1791.30
   80.14        2978.75           2552         405.00      1752.07
   80.17        2979.00           2555         408.00      1765.15
   80.20        2979.25           2559         398.00      1721.55
   80.23        2979.50           2562         383.00      1656.15
   80.26        2979.75           2566         396.00      1712.83
   80.29        2980.00           2569         378.00      1634.35
   80.32        2980.25           2573         391.00      1691.03
   80.35        2980.50           2577         399.00      1725.91
   80.38        2980.75           2580         361.00      1560.24
   80.42        2981.00           2584         381.00      1647.43
   80.45        2981.25           2587         360.00      1555.88
   80.48        2981.50           2591         366.00      1582.04
   80.51        2981.75           2594         358.00      1547.16
   80.54        2982.00           2598         351.00      1516.64
   80.57        2982.25           2601         351.00      1516.64
   80.60        2982.50           2605         359.00      1551.52
   80.63        2982.75           2609         338.00      1459.97
   80.66        2983.00           2612         357.00      1542.80
   80.69        2983.25           2616         348.00      1503.56
   80.72        2983.50           2619         353.00      1525.36
   80.75        2983.75           2623         344.00      1486.13
   80.78        2984.00           2626         336.00      1451.25
HS scan finished at 01:21:00
end
************************************************************
  HS Scan of (1) Internal mercury lamp
************************************************************
Integration time is 0.2294 seconds per sample
dh200717Reading 51.44 .94 3.54pr1000
************************************************************
Dead Time -------------------------  3.4E-08 
Number of Cycles Used -------------  4 
Starting Wavelength (Angstroms) ---  2950 
Final Wavelength (Angstoms) -------  2984 
Wavelength Increment (Angstroms) --  .25 
Filter Wheel #1 Position ---------- (1) Ground quartz diffuser (ND=2.32)
Filter Wheel #2 Position ---------- (1) Neutral Density 0.494



************************************************************
HS scan start time = 21:07:30
Dark Count =  3.3 


Time (GMT)  Wavelength (Ang)  Step Number  Raw Counts  Counts/Second

 1268.41        2950.00           2144         361.00      1559.37
 1268.60        2950.25           2147         363.00      1568.09
 1268.63        2950.50           2151         374.00      1616.04
 1268.66        2950.75           2155         365.00      1576.81
 1268.69        2951.00           2158         363.00      1568.09
 1268.72        2951.25           2162         357.00      1541.93
 1268.75        2951.50           2165         358.00      1546.29
 1268.78        2951.75           2169         372.00      1607.32
 1268.81        2952.00           2172         373.00      1611.68
 1268.84        2952.25           2176         378.00      1633.48
 1268.87        2952.50           2179         365.00      1576.81
 1268.91        2952.75           2183         366.00      1581.17
 1268.94        2953.00           2186         400.00      1729.40
 1268.97        2953.25           2190         376.00      1624.76
 1269.00        2953.50           2193         391.00      1690.16
 1269.03        2953.75           2197         392.00      1694.52
 1269.06        2954.00           2200         364.00      1572.45
 1269.09        2954.25           2204         384.00      1659.64
 1269.12        2954.50           2208         398.00      1720.68
 1269.15        2954.75           2211         372.00      1607.32
 1269.18        2955.00           2215         424.00      1834.03
 1269.21        2955.25           2218         423.00      1829.67
 1269.24        2955.50           2222         390.00      1685.80
 1269.27        2955.75           2225         401.00      1733.76
 1269.30        2956.00           2229         397.00      1716.32
 1269.33        2956.25           2232         420.00      1816.59
 1269.36        2956.50           2236         425.00      1838.39
 1269.39        2956.75           2239         443.00      1916.86
 1269.43        2957.00           2243         426.00      1842.75
 1269.46        2957.25           2246         454.00      1964.82
 1269.49        2957.50           2250         446.00      1929.94
 1269.52        2957.75           2254         437.00      1890.71
 1269.55        2958.00           2257         440.00      1903.79
 1269.58        2958.25           2261         437.00      1890.71
 1269.61        2958.50           2264         460.00      1990.98
 1269.64        2958.75           2268         458.00      1982.26
 1269.67        2959.00           2271         480.00      2078.18
 1269.70        2959.25           2275         487.00      2108.70
 1269.73        2959.50           2278         459.00      1986.62
 1269.76        2959.75           2282         496.00      2147.93
 1269.79        2960.00           2285         508.00      2200.25
 1269.82        2960.25           2289         489.00      2117.41
 1269.85        2960.50           2293         527.00      2283.09
 1269.88        2960.75           2296         540.00      2339.77
 1269.91        2961.00           2300         647.00      2806.28
 1269.95        2961.25           2303        1082.00      4703.02
 1269.98        2961.50           2307        4318.00     18820.67
 1270.01        2961.75           2310        8791.00     38357.31
 1270.04        2962.00           2314       16005.00     69920.60
 1270.07        2962.25           2317       21752.00     95113.98
 1270.10        2962.50           2321       29469.00    129011.50
 1270.13        2962.75           2324       35013.00    153412.30
 1270.16        2963.00           2328       43492.00    190809.70
 1270.19        2963.25           2331       50085.00    219954.80
 1270.22        2963.50           2335       58840.00    258747.20
 1270.25        2963.75           2339       67897.00    298986.10
 1270.28        2964.00           2342       74387.00    327888.40
 1270.31        2964.25           2346       82808.00    365475.50
 1270.34        2964.50           2349       88737.00    391997.60
 1270.37        2964.75           2353       97483.00    431209.20
 1270.40        2965.00           2356      103287.00    457289.00
 1270.43        2965.25           2360      111207.00    492952.20
 1270.47        2965.50           2363      116916.00    518713.60
 1270.50        2965.75           2367      125271.00    556497.20
 1270.53        2966.00           2370      130447.00    579953.80
 1270.56        2966.25           2374      137505.00    612000.10
 1270.59        2966.50           2378      143321.00    638460.40
 1270.62        2966.75           2381      144998.00    646099.00
 1270.65        2967.00           2385      145423.00    648035.50
 1270.68        2967.25           2388      145042.00    646299.50
 1270.71        2967.50           2392      145307.00    647506.90
 1270.74        2967.75           2395      144549.00    644053.40
 1270.77        2968.00           2399      142733.00    635783.00
 1270.80        2968.25           2402      138569.00    616837.30
 1270.83        2968.50           2406      130978.00    582362.20
 1270.86        2968.75           2409      125016.00    555342.60
 1270.89        2969.00           2413      116563.00    517119.40
 1270.92        2969.25           2417      108103.00    478964.70
 1270.95        2969.50           2420      101915.00    451119.80
 1270.98        2969.75           2424       93841.00    414868.00
 1271.02        2970.00           2427       87565.00    386751.10
 1271.05        2970.25           2431       77808.00    343146.30
 1271.08        2970.50           2434       71507.00    315055.70
 1271.11        2970.75           2438       62016.00    272845.00
 1271.14        2971.00           2441       55270.00    242916.50
 1271.17        2971.25           2445       46638.00    204709.70
 1271.20        2971.50           2449       39288.00    172255.70
 1271.23        2971.75           2452       32807.00    143698.20
 1271.26        2972.00           2456       23874.00    104427.20
 1271.29        2972.25           2459       17527.00     76588.45
 1271.32        2972.50           2463        9676.00     42225.80
 1271.35        2972.75           2466        5270.00     22976.53
 1271.38        2973.00           2470        1750.00      7616.18
 1271.41        2973.25           2473         849.00      3687.04
 1271.44        2973.50           2477         656.00      2845.52
 1271.47        2973.75           2481         559.00      2422.61
 1271.51        2974.00           2484         548.00      2374.65
 1271.54        2974.25           2488         526.00      2278.73
 1271.57        2974.50           2491         496.00      2147.93
 1271.60        2974.75           2495         506.00      2191.53
 1271.63        2975.00           2498         505.00      2187.17
 1271.66        2975.25           2502         498.00      2156.65
 1271.69        2975.50           2505         494.00      2139.21
 1271.72        2975.75           2509         471.00      2038.94
 1271.75        2976.00           2512         459.00      1986.62
 1271.78        2976.25           2516         455.00      1969.18
 1271.81        2976.50           2520         458.00      1982.26
 1271.84        2976.75           2523         444.00      1921.22
 1271.87        2977.00           2527         439.00      1899.43
 1271.90        2977.25           2530         419.00      1812.23
 1271.93        2977.50           2534         419.00      1812.23
 1271.96        2977.75           2537         416.00      1799.15
 1271.99        2978.00           2541         414.00      1790.43
 1272.02        2978.25           2544         396.00      1711.96
 1272.06        2978.50           2548         409.00      1768.63
 1272.09        2978.75           2552         391.00      1690.16
 1272.12        2979.00           2555         404.00      1746.83
 1272.15        2979.25           2559         388.00      1677.08
 1272.18        2979.50           2562         378.00      1633.48
 1272.21        2979.75           2566         375.00      1620.40
 1272.24        2980.00           2569         385.00      1664.00
 1272.27        2980.25           2573         396.00      1711.96
 1272.30        2980.50           2577         374.00      1616.04
 1272.33        2980.75           2580         364.00      1572.45
 1272.36        2981.00           2584         406.00      1755.55
 1272.39        2981.25           2587         372.00      1607.32
 1272.42        2981.50           2591         351.00      1515.77
 1272.45        2981.75           2594         368.00      1589.89
 1272.48        2982.00           2598         382.00      1650.92
 1272.51        2982.25           2601         358.00      1546.29
 1272.54        2982.50           2605         340.00      1467.82
 1272.58        2982.75           2609         343.00      1480.89
 1272.61        2983.00           2612         353.00      1524.49
 1272.64        2983.25           2616         357.00      1541.93
 1272.67        2983.50           2619         344.00      1485.25
 1272.70        2983.75           2623         340.00      1467.82
 1272.73        2984.00           2626         337.00      1454.74
HS scan finished at 21:12:57
end
