************************************************************
  HS Scan of (1) Internal mercury lamp
************************************************************
Integration time is 0.2294 seconds per sample
dh230718Reading 51.44 .94 3.8pr1000
************************************************************
Dead Time -------------------------  3.4E-08 
Number of Cycles Used -------------  4 
Starting Wavelength (Angstroms) ---  2950 
Final Wavelength (Angstoms) -------  2984 
Wavelength Increment (Angstroms) --  .25 
Filter Wheel #1 Position ---------- (1) Ground quartz diffuser (ND=2.32)
Filter Wheel #2 Position ---------- (1) Neutral Density 0.494



************************************************************
HS scan start time = 01:22:15
Dark Count =  5.9 


Time (GMT)  Wavelength (Ang)  Step Number  Raw Counts  Counts/Second

   83.15        2950.00           2144          74.00       296.86
   83.34        2950.25           2147          78.00       314.30
   83.37        2950.50           2151          83.00       336.10
   83.40        2950.75           2155          75.00       301.22
   83.44        2951.00           2158          73.00       292.51
   83.47        2951.25           2162          73.00       292.51
   83.50        2951.50           2165          72.00       288.15
   83.53        2951.75           2169          76.00       305.58
   83.56        2952.00           2172          78.00       314.30
   83.59        2952.25           2176          86.00       349.18
   83.62        2952.50           2179          88.00       357.89
   83.65        2952.75           2183          75.00       301.22
   83.68        2953.00           2186          82.00       331.74
   83.71        2953.25           2190          80.00       323.02
   83.74        2953.50           2193          80.00       323.02
   83.77        2953.75           2197          80.00       323.02
   83.80        2954.00           2200          79.00       318.66
   83.83        2954.25           2204          79.00       318.66
   83.86        2954.50           2208          78.00       314.30
   83.89        2954.75           2211          90.00       366.61
   83.92        2955.00           2215          87.00       353.54
   83.96        2955.25           2218          85.00       344.82
   83.99        2955.50           2222          92.00       375.33
   84.02        2955.75           2225          85.00       344.82
   84.05        2956.00           2229          85.00       344.82
   84.08        2956.25           2232          87.00       353.54
   84.11        2956.50           2236          85.00       344.82
   84.14        2956.75           2239          90.00       366.61
   84.17        2957.00           2243          88.00       357.89
   84.20        2957.25           2246          95.00       388.41
   84.23        2957.50           2250          86.00       349.18
   84.26        2957.75           2254          90.00       366.61
   84.29        2958.00           2257          95.00       388.41
   84.32        2958.25           2261          93.00       379.69
   84.35        2958.50           2264         101.00       414.57
   84.38        2958.75           2268          94.00       384.05
   84.41        2959.00           2271         130.00       540.99
   84.44        2959.25           2275         107.00       440.72
   84.48        2959.50           2278         124.00       514.83
   84.51        2959.75           2282         113.00       466.88
   84.54        2960.00           2285         117.00       484.31
   84.57        2960.25           2289         108.00       445.08
   84.60        2960.50           2293         115.00       475.60
   84.63        2960.75           2296         133.00       554.06
   84.66        2961.00           2300         181.00       763.32
   84.69        2961.25           2303         434.00      1866.29
   84.72        2961.50           2307        1591.00      6911.39
   84.75        2961.75           2310        2850.00     12403.23
   84.78        2962.00           2314        4504.00     19621.20
   84.81        2962.25           2317        6022.00     26248.79
   84.84        2962.50           2321        7719.00     33661.43
   84.87        2962.75           2324        8788.00     38332.84
   84.90        2963.00           2328       11102.00     48449.84
   84.93        2963.25           2331       12577.00     54902.30
   84.96        2963.50           2335       15004.00     65525.51
   85.00        2963.75           2339       17183.00     75069.74
   85.03        2964.00           2342       18894.00     82568.45
   85.06        2964.25           2346       20708.00     90522.74
   85.09        2964.50           2349       22050.00     96410.09
   85.12        2964.75           2353       23908.00    104565.10
   85.15        2965.00           2356       25633.00    112140.40
   85.18        2965.25           2360       27679.00    121130.40
   85.21        2965.50           2363       29253.00    128050.20
   85.24        2965.75           2367       31212.00    136667.10
   85.27        2966.00           2370       32349.00    141670.70
   85.30        2966.25           2374       34008.00    148974.60
   85.33        2966.50           2378       35018.00    153422.90
   85.36        2966.75           2381       35075.00    153674.00
   85.39        2967.00           2385       35261.00    154493.40
   85.42        2967.25           2388       35486.00    155484.60
   85.45        2967.50           2392       35396.00    155088.10
   85.48        2967.75           2395       34947.00    153110.20
   85.52        2968.00           2399       34068.00    149238.80
   85.55        2968.25           2402       33157.00    145227.60
   85.58        2968.50           2406       31155.00    136416.40
   85.61        2968.75           2409       29521.00    129228.70
   85.64        2969.00           2413       27288.00    119411.90
   85.67        2969.25           2417       25136.00    109957.40
   85.70        2969.50           2420       23383.00    102260.30
   85.73        2969.75           2424       21392.00     93523.15
   85.76        2970.00           2427       19887.00     86922.16
   85.79        2970.25           2431       17567.00     76752.34
   85.82        2970.50           2434       15902.00     69458.08
   85.85        2970.75           2438       13898.00     60683.49
   85.88        2971.00           2441       12329.00     53817.21
   85.91        2971.25           2445       10444.00     45572.30
   85.94        2971.50           2449        8492.00     37039.21
   85.97        2971.75           2452        6929.00     30210.18
   86.00        2972.00           2456        4789.00     20865.28
   86.03        2972.25           2459        3341.00     14545.55
   86.07        2972.50           2463        1634.00      7098.92
   86.10        2972.75           2466         794.00      3435.89
   86.13        2973.00           2470         249.00      1059.76
   86.16        2973.25           2473         157.00       658.69
   86.19        2973.50           2477         137.00       571.50
   86.22        2973.75           2481         135.00       562.78
   86.25        2974.00           2484         153.00       641.25
   86.28        2974.25           2488         121.00       501.75
   86.31        2974.50           2491         134.00       558.42
   86.34        2974.75           2495         112.00       462.52
   86.37        2975.00           2498         106.00       436.36
   86.40        2975.25           2502         146.00       610.74
   86.43        2975.50           2505         130.00       540.99
   86.46        2975.75           2509         103.00       423.28
   86.49        2976.00           2512         138.00       575.86
   86.52        2976.25           2516         104.00       427.64
   86.55        2976.50           2520          91.00       370.97
   86.59        2976.75           2523         117.00       484.31
   86.62        2977.00           2527         101.00       414.57
   86.65        2977.25           2530          99.00       405.85
   86.68        2977.50           2534          96.00       392.77
   86.71        2977.75           2537          96.00       392.77
   86.74        2978.00           2541          98.00       401.49
   86.77        2978.25           2544          94.00       384.05
   86.80        2978.50           2548          91.00       370.97
   86.83        2978.75           2552          90.00       366.61
   86.86        2979.00           2555          95.00       388.41
   86.89        2979.25           2559          86.00       349.18
   86.92        2979.50           2562          87.00       353.54
   86.95        2979.75           2566          82.00       331.74
   86.98        2980.00           2569          86.00       349.18
   87.01        2980.25           2573          86.00       349.18
   87.04        2980.50           2577          81.00       327.38
   87.07        2980.75           2580          88.00       357.89
   87.11        2981.00           2584          80.00       323.02
   87.14        2981.25           2587          77.00       309.94
   87.17        2981.50           2591          79.00       318.66
   87.20        2981.75           2594          74.00       296.86
   87.23        2982.00           2598          79.00       318.66
   87.26        2982.25           2601          81.00       327.38
   87.29        2982.50           2605          78.00       314.30
   87.32        2982.75           2609          69.00       275.07
   87.35        2983.00           2612          78.00       314.30
   87.38        2983.25           2616          82.00       331.74
   87.41        2983.50           2619          78.00       314.30
   87.44        2983.75           2623          69.00       275.07
   87.47        2984.00           2626          78.00       314.30
HS scan finished at 01:27:42
end
************************************************************
  HS Scan of (1) Internal mercury lamp
************************************************************
Integration time is 0.2294 seconds per sample
dh230718Reading 51.44 .94 4.13pr1000
************************************************************
Dead Time -------------------------  3.4E-08 
Number of Cycles Used -------------  4 
Starting Wavelength (Angstroms) ---  2950 
Final Wavelength (Angstoms) -------  2984 
Wavelength Increment (Angstroms) --  .25 
Filter Wheel #1 Position ---------- (1) Ground quartz diffuser (ND=2.32)
Filter Wheel #2 Position ---------- (1) Neutral Density 0.494



************************************************************
HS scan start time = 21:07:26
Dark Count =  12.6 


Time (GMT)  Wavelength (Ang)  Step Number  Raw Counts  Counts/Second

 1268.34        2950.00           2144          48.00       154.32
 1268.53        2950.25           2147          54.00       180.47
 1268.56        2950.50           2151          53.00       176.11
 1268.59        2950.75           2155          44.00       136.88
 1268.62        2951.00           2158          47.00       149.96
 1268.65        2951.25           2162          58.00       197.91
 1268.68        2951.50           2165          47.00       149.96
 1268.71        2951.75           2169          49.00       158.68
 1268.74        2952.00           2172          54.00       180.47
 1268.77        2952.25           2176          59.00       202.27
 1268.81        2952.50           2179          56.00       189.19
 1268.84        2952.75           2183          58.00       197.91
 1268.87        2953.00           2186          48.00       154.32
 1268.90        2953.25           2190          55.00       184.83
 1268.93        2953.50           2193          48.00       154.32
 1268.96        2953.75           2197          58.00       197.91
 1268.99        2954.00           2200          55.00       184.83
 1269.02        2954.25           2204          59.00       202.27
 1269.05        2954.50           2208          51.00       167.39
 1269.08        2954.75           2211          49.00       158.68
 1269.11        2955.00           2215          54.00       180.47
 1269.14        2955.25           2218          54.00       180.47
 1269.17        2955.50           2222          60.00       206.63
 1269.20        2955.75           2225          56.00       189.19
 1269.23        2956.00           2229          57.00       193.55
 1269.26        2956.25           2232          63.00       219.71
 1269.29        2956.50           2236          66.00       232.78
 1269.33        2956.75           2239          58.00       197.91
 1269.36        2957.00           2243          55.00       184.83
 1269.39        2957.25           2246          61.00       210.99
 1269.42        2957.50           2250          66.00       232.78
 1269.45        2957.75           2254          59.00       202.27
 1269.48        2958.00           2257          64.00       224.06
 1269.51        2958.25           2261          61.00       210.99
 1269.54        2958.50           2264          60.00       206.63
 1269.57        2958.75           2268          68.00       241.50
 1269.60        2959.00           2271          67.00       237.14
 1269.63        2959.25           2275          66.00       232.78
 1269.66        2959.50           2278          68.00       241.50
 1269.69        2959.75           2282          66.00       232.78
 1269.72        2960.00           2285          75.00       272.02
 1269.75        2960.25           2289          73.00       263.30
 1269.78        2960.50           2293          71.00       254.58
 1269.81        2960.75           2296          75.00       272.02
 1269.85        2961.00           2300         101.00       385.36
 1269.88        2961.25           2303         245.00      1013.11
 1269.91        2961.50           2307         763.00      3271.51
 1269.94        2961.75           2310        1371.00      5922.73
 1269.97        2962.00           2314        2277.00      9874.28
 1270.00        2962.25           2317        2945.00     12788.47
 1270.03        2962.50           2321        3984.00     17322.32
 1270.06        2962.75           2324        4890.00     21276.94
 1270.09        2963.00           2328        6021.00     26215.16
 1270.12        2963.25           2331        7028.00     30613.37
 1270.15        2963.50           2335        8044.00     35052.21
 1270.18        2963.75           2339        9195.00     40082.49
 1270.21        2964.00           2342       10083.00     43964.55
 1270.24        2964.25           2346       11165.00     48696.08
 1270.27        2964.50           2349       12050.00     52567.28
 1270.30        2964.75           2353       13260.00     57861.76
 1270.33        2965.00           2356       14096.00     61520.89
 1270.38        2965.25           2360       15336.00     66949.96
 1270.41        2965.50           2363       15976.00     69752.85
 1270.44        2965.75           2367       17112.00     74729.31
 1270.47        2966.00           2370       17561.00     76696.69
 1270.50        2966.25           2374       18423.00     80474.47
 1270.53        2966.50           2378       18741.00     81868.37
 1270.56        2966.75           2381       18979.00     82911.70
 1270.59        2967.00           2385       18959.00     82824.02
 1270.62        2967.25           2388       18972.00     82881.01
 1270.66        2967.50           2392       19002.00     83012.53
 1270.69        2967.75           2395       18652.00     81478.25
 1270.72        2968.00           2399       18024.00     78725.71
 1270.75        2968.25           2402       17134.00     74825.70
 1270.78        2968.50           2406       16373.00     71491.79
 1270.81        2968.75           2409       15436.00     67387.88
 1270.84        2969.00           2413       14408.00     62886.72
 1270.87        2969.25           2417       13449.00     58688.93
 1270.90        2969.50           2420       12445.00     54295.44
 1270.93        2969.75           2424       11529.00     50288.18
 1270.96        2970.00           2427       10665.00     46509.42
 1270.99        2970.25           2431        9363.00     40816.85
 1271.02        2970.50           2434        8396.00     36590.40
 1271.05        2970.75           2438        7315.00     31867.12
 1271.08        2971.00           2441        6585.00     28678.34
 1271.11        2971.25           2445        5474.00     23826.62
 1271.14        2971.50           2449        4382.00     19059.43
 1271.18        2971.75           2452        3535.00     15362.86
 1271.21        2972.00           2456        2333.00     10118.56
 1271.24        2972.25           2459        1621.00      7013.01
 1271.27        2972.50           2463         781.00      3349.99
 1271.30        2972.75           2466         336.00      1409.83
 1271.33        2973.00           2470         148.00       590.25
 1271.36        2973.25           2473          94.00       354.84
 1271.39        2973.50           2477          82.00       302.53
 1271.42        2973.75           2481          78.00       285.09
 1271.45        2974.00           2484          75.00       272.02
 1271.48        2974.25           2488          80.00       293.81
 1271.51        2974.50           2491          70.00       250.22
 1271.54        2974.75           2495          75.00       272.02
 1271.57        2975.00           2498          71.00       254.58
 1271.60        2975.25           2502          76.00       276.38
 1271.63        2975.50           2505          71.00       254.58
 1271.66        2975.75           2509          68.00       241.50
 1271.70        2976.00           2512          68.00       241.50
 1271.73        2976.25           2516          68.00       241.50
 1271.76        2976.50           2520          71.00       254.58
 1271.79        2976.75           2523          69.00       245.86
 1271.82        2977.00           2527          68.00       241.50
 1271.85        2977.25           2530          67.00       237.14
 1271.88        2977.50           2534          58.00       197.91
 1271.91        2977.75           2537          64.00       224.06
 1271.94        2978.00           2541          67.00       237.14
 1271.97        2978.25           2544          58.00       197.91
 1272.00        2978.50           2548          63.00       219.71
 1272.03        2978.75           2552          56.00       189.19
 1272.06        2979.00           2555          61.00       210.99
 1272.09        2979.25           2559          58.00       197.91
 1272.12        2979.50           2562          52.00       171.75
 1272.15        2979.75           2566          54.00       180.47
 1272.18        2980.00           2569          62.00       215.35
 1272.22        2980.25           2573          60.00       206.63
 1272.25        2980.50           2577          64.00       224.06
 1272.28        2980.75           2580          62.00       215.35
 1272.31        2981.00           2584          57.00       193.55
 1272.34        2981.25           2587          53.00       176.11
 1272.37        2981.50           2591          60.00       206.63
 1272.40        2981.75           2594          62.00       215.35
 1272.43        2982.00           2598          58.00       197.91
 1272.46        2982.25           2601          62.00       215.35
 1272.49        2982.50           2605          59.00       202.27
 1272.52        2982.75           2609          48.00       154.32
 1272.55        2983.00           2612          60.00       206.63
 1272.58        2983.25           2616          55.00       184.83
 1272.61        2983.50           2619          57.00       193.55
 1272.64        2983.75           2623          55.00       184.83
 1272.67        2984.00           2626          58.00       197.91
HS scan finished at 21:12:54
end
