************************************************************
  HS Scan of (1) Internal mercury lamp
************************************************************
Integration time is 0.2294 seconds per sample
dh190717Reading 51.44 .94 3.58pr1000
************************************************************
Dead Time -------------------------  3.4E-08 
Number of Cycles Used -------------  4 
Starting Wavelength (Angstroms) ---  2950 
Final Wavelength (Angstoms) -------  2984 
Wavelength Increment (Angstroms) --  .25 
Filter Wheel #1 Position ---------- (1) Ground quartz diffuser (ND=2.32)
Filter Wheel #2 Position ---------- (1) Neutral Density 0.494



************************************************************
HS scan start time = 01:36:16
Dark Count =  2.9 


Time (GMT)  Wavelength (Ang)  Step Number  Raw Counts  Counts/Second

   97.16        2950.00           2144         322.00      1391.09
   97.36        2950.25           2147         315.00      1360.57
   97.39        2950.50           2151         331.00      1430.32
   97.42        2950.75           2155         310.00      1338.77
   97.45        2951.00           2158         319.00      1378.01
   97.48        2951.25           2162         352.00      1521.87
   97.51        2951.50           2165         333.00      1439.04
   97.54        2951.75           2169         324.00      1399.81
   97.57        2952.00           2172         315.00      1360.57
   97.60        2952.25           2176         324.00      1399.81
   97.63        2952.50           2179         331.00      1430.32
   97.66        2952.75           2183         337.00      1456.48
   97.69        2953.00           2186         328.00      1417.24
   97.72        2953.25           2190         341.00      1473.92
   97.75        2953.50           2193         336.00      1452.12
   97.79        2953.75           2197         343.00      1482.64
   97.82        2954.00           2200         334.00      1443.40
   97.85        2954.25           2204         327.00      1412.88
   97.88        2954.50           2208         333.00      1439.04
   97.91        2954.75           2211         352.00      1521.87
   97.94        2955.00           2215         364.00      1574.19
   97.97        2955.25           2218         354.00      1530.59
   98.00        2955.50           2222         380.00      1643.95
   98.03        2955.75           2225         369.00      1595.99
   98.07        2956.00           2229         384.00      1661.38
   98.10        2956.25           2232         356.00      1539.31
   98.13        2956.50           2236         377.00      1630.87
   98.16        2956.75           2239         364.00      1574.19
   98.19        2957.00           2243         378.00      1635.23
   98.23        2957.25           2246         392.00      1696.26
   98.26        2957.50           2250         404.00      1748.58
   98.29        2957.75           2254         412.00      1783.46
   98.32        2958.00           2257         417.00      1805.25
   98.35        2958.25           2261         433.00      1875.01
   98.38        2958.50           2264         424.00      1835.77
   98.41        2958.75           2268         412.00      1783.46
   98.44        2959.00           2271         417.00      1805.25
   98.47        2959.25           2275         437.00      1892.45
   98.50        2959.50           2278         446.00      1931.69
   98.53        2959.75           2282         428.00      1853.21
   98.56        2960.00           2285         441.00      1909.89
   98.59        2960.25           2289         480.00      2079.92
   98.62        2960.50           2293         502.00      2175.84
   98.65        2960.75           2296         501.00      2171.48
   98.68        2961.00           2300         600.00      2603.11
   98.71        2961.25           2303        1066.00      4634.99
   98.74        2961.50           2307        4180.00     18220.09
   98.78        2961.75           2310        8256.00     36020.99
   98.81        2962.00           2314       15324.00     66939.90
   98.84        2962.25           2317       20922.00     91474.56
   98.87        2962.50           2321       28591.00    125152.60
   98.90        2962.75           2324       34266.00    150124.00
   98.93        2963.00           2328       43169.00    189385.10
   98.96        2963.25           2331       49872.00    219014.10
   98.99        2963.50           2335       57421.00    252454.50
   99.02        2963.75           2339       65649.00    288990.00
   99.05        2964.00           2342       71405.00    314603.10
   99.08        2964.25           2346       79261.00    349633.50
   99.11        2964.50           2349       85530.00    377647.60
   99.14        2964.75           2353       93835.00    414842.90
   99.17        2965.00           2356       99721.00    441261.70
   99.20        2965.25           2360      107638.00    476872.30
   99.23        2965.50           2363      113255.00    502190.20
   99.26        2965.75           2367      120517.00    534988.10
   99.30        2966.00           2370      126034.00    559954.30
   99.33        2966.25           2374      133797.00    595157.10
   99.36        2966.50           2378      138247.00    615375.00
   99.39        2966.75           2381      139237.00    619876.70
   99.42        2967.00           2385      140003.00    623360.80
   99.45        2967.25           2388      140040.00    623529.10
   99.48        2967.50           2392      140241.00    624443.50
   99.51        2967.75           2395      139772.00    622310.10
   99.54        2968.00           2399      137917.00    613874.80
   99.57        2968.25           2402      133278.00    592801.00
   99.60        2968.50           2406      125799.00    558890.10
   99.63        2968.75           2409      120046.00    532858.60
   99.66        2969.00           2413      112197.00    497418.00
   99.69        2969.25           2417      104554.00    462990.20
   99.72        2969.50           2420       99372.00    439694.00
   99.75        2969.75           2424       90378.00    399348.60
   99.78        2970.00           2427       83626.00    369133.50
   99.82        2970.25           2431       74867.00    330030.00
   99.85        2970.50           2434       67962.00    299277.00
   99.88        2970.75           2438       59474.00    261562.10
   99.91        2971.00           2441       53322.00    234287.40
   99.94        2971.25           2445       44930.00    197163.40
   99.97        2971.50           2449       36828.00    161411.30
  100.00        2971.75           2452       30306.00    132694.60
  100.03        2972.00           2456       21723.00     94988.50
  100.06        2972.25           2459       16077.00     70237.72
  100.09        2972.50           2463        8965.00     39119.56
  100.12        2972.75           2466        4725.00     20598.99
  100.15        2973.00           2470        1442.00      6274.66
  100.18        2973.25           2473         793.00      3444.61
  100.21        2973.50           2477         559.00      2424.35
  100.24        2973.75           2481         541.00      2345.87
  100.27        2974.00           2484         514.00      2228.16
  100.30        2974.25           2488         523.00      2267.39
  100.34        2974.50           2491         493.00      2136.60
  100.37        2974.75           2495         463.00      2005.80
  100.40        2975.00           2498         475.00      2058.12
  100.43        2975.25           2502         476.00      2062.48
  100.46        2975.50           2505         453.00      1962.21
  100.49        2975.75           2509         437.00      1892.45
  100.52        2976.00           2512         447.00      1936.05
  100.55        2976.25           2516         426.00      1844.49
  100.58        2976.50           2520         431.00      1866.29
  100.61        2976.75           2523         429.00      1857.57
  100.64        2977.00           2527         421.00      1822.69
  100.67        2977.25           2530         408.00      1766.02
  100.70        2977.50           2534         418.00      1809.61
  100.73        2977.75           2537         401.00      1735.50
  100.76        2978.00           2541         409.00      1770.38
  100.79        2978.25           2544         403.00      1744.22
  100.82        2978.50           2548         372.00      1609.07
  100.86        2978.75           2552         414.00      1792.18
  100.89        2979.00           2555         382.00      1652.66
  100.92        2979.25           2559         418.00      1809.61
  100.95        2979.50           2562         387.00      1674.46
  100.98        2979.75           2566         371.00      1604.71
  101.01        2980.00           2569         401.00      1735.50
  101.04        2980.25           2573         371.00      1604.71
  101.07        2980.50           2577         369.00      1595.99
  101.10        2980.75           2580         351.00      1517.52
  101.13        2981.00           2584         368.00      1591.63
  101.16        2981.25           2587         348.00      1504.44
  101.19        2981.50           2591         351.00      1517.52
  101.22        2981.75           2594         368.00      1591.63
  101.25        2982.00           2598         346.00      1495.72
  101.28        2982.25           2601         388.00      1678.82
  101.31        2982.50           2605         334.00      1443.40
  101.34        2982.75           2609         347.00      1500.08
  101.38        2983.00           2612         338.00      1460.84
  101.41        2983.25           2616         343.00      1482.64
  101.44        2983.50           2619         336.00      1452.12
  101.47        2983.75           2623         328.00      1417.24
  101.50        2984.00           2626         335.00      1447.76
HS scan finished at 01:41:43
end
************************************************************
  HS Scan of (1) Internal mercury lamp
************************************************************
Integration time is 0.2294 seconds per sample
dh190717Reading 51.44 .94 3.62pr1000
************************************************************
Dead Time -------------------------  3.4E-08 
Number of Cycles Used -------------  4 
Starting Wavelength (Angstroms) ---  2950 
Final Wavelength (Angstoms) -------  2984 
Wavelength Increment (Angstroms) --  .25 
Filter Wheel #1 Position ---------- (1) Ground quartz diffuser (ND=2.32)
Filter Wheel #2 Position ---------- (1) Neutral Density 0.494



************************************************************
HS scan start time = 21:07:26
Dark Count =  3.9 


Time (GMT)  Wavelength (Ang)  Step Number  Raw Counts  Counts/Second

 1268.33        2950.00           2144         325.00      1399.81
 1268.54        2950.25           2147         349.00      1504.44
 1268.57        2950.50           2151         362.00      1561.11
 1268.60        2950.75           2155         340.00      1465.20
 1268.63        2951.00           2158         322.00      1386.73
 1268.66        2951.25           2162         358.00      1543.67
 1268.69        2951.50           2165         336.00      1447.76
 1268.72        2951.75           2169         341.00      1469.56
 1268.75        2952.00           2172         360.00      1552.39
 1268.78        2952.25           2176         338.00      1456.48
 1268.82        2952.50           2179         330.00      1421.60
 1268.85        2952.75           2183         324.00      1395.45
 1268.88        2953.00           2186         353.00      1521.87
 1268.91        2953.25           2190         376.00      1622.15
 1268.94        2953.50           2193         347.00      1495.72
 1268.97        2953.75           2197         366.00      1578.55
 1269.00        2954.00           2200         367.00      1582.91
 1269.03        2954.25           2204         370.00      1595.99
 1269.06        2954.50           2208         368.00      1587.27
 1269.09        2954.75           2211         351.00      1513.16
 1269.12        2955.00           2215         351.00      1513.16
 1269.15        2955.25           2218         369.00      1591.63
 1269.18        2955.50           2222         372.00      1604.71
 1269.21        2955.75           2225         369.00      1591.63
 1269.24        2956.00           2229         379.00      1635.23
 1269.27        2956.25           2232         390.00      1683.18
 1269.30        2956.50           2236         385.00      1661.38
 1269.34        2956.75           2239         429.00      1853.21
 1269.37        2957.00           2243         409.00      1766.02
 1269.40        2957.25           2246         410.00      1770.38
 1269.43        2957.50           2250         413.00      1783.46
 1269.46        2957.75           2254         432.00      1866.29
 1269.49        2958.00           2257         435.00      1879.37
 1269.52        2958.25           2261         437.00      1888.09
 1269.55        2958.50           2264         428.00      1848.85
 1269.58        2958.75           2268         427.00      1844.49
 1269.61        2959.00           2271         431.00      1861.93
 1269.64        2959.25           2275         451.00      1949.13
 1269.67        2959.50           2278         446.00      1927.33
 1269.70        2959.75           2282         478.00      2066.84
 1269.73        2960.00           2285         457.00      1975.29
 1269.76        2960.25           2289         471.00      2036.32
 1269.79        2960.50           2293         527.00      2280.47
 1269.83        2960.75           2296         499.00      2158.40
 1269.86        2961.00           2300         581.00      2515.91
 1269.89        2961.25           2303         901.00      3911.16
 1269.92        2961.50           2307        3014.00     13127.48
 1269.95        2961.75           2310        6854.00     29891.31
 1269.98        2962.00           2314       14803.00     64654.17
 1270.01        2962.25           2317       21135.00     92404.50
 1270.04        2962.50           2321       29302.00    128274.40
 1270.07        2962.75           2324       34834.00    152621.20
 1270.10        2963.00           2328       41739.00    183067.50
 1270.13        2963.25           2331       48363.00    212334.30
 1270.16        2963.50           2335       56883.00    250064.40
 1270.19        2963.75           2339       64781.00    285127.00
 1270.22        2964.00           2342       71421.00    314670.00
 1270.25        2964.25           2346       79110.00    348954.90
 1270.28        2964.50           2349       84666.00    373779.00
 1270.31        2964.75           2353       92147.00    407270.80
 1270.34        2965.00           2356       98282.00    434794.00
 1270.38        2965.25           2360      106726.00    472761.20
 1270.41        2965.50           2363      112709.00    499722.70
 1270.44        2965.75           2367      120415.00    534522.30
 1270.47        2966.00           2370      126024.00    559904.60
 1270.50        2966.25           2374      132181.00    587817.50
 1270.53        2966.50           2378      136202.00    606075.80
 1270.56        2966.75           2381      137347.00    611279.10
 1270.59        2967.00           2385      137065.00    609997.50
 1270.62        2967.25           2388      137836.00    613501.90
 1270.65        2967.50           2392      137729.00    613015.50
 1270.68        2967.75           2395      137409.00    611561.00
 1270.71        2968.00           2399      133743.00    594907.50
 1270.74        2968.25           2402      130028.00    578050.80
 1270.77        2968.50           2406      123192.00    547083.50
 1270.80        2968.75           2409      117557.00    521606.20
 1270.83        2969.00           2413      109315.00    484422.00
 1270.87        2969.25           2417      101567.00    449552.70
 1270.90        2969.50           2420       96414.00    426408.20
 1270.93        2969.75           2424       88541.00    391117.40
 1270.96        2970.00           2427       82683.00    364914.10
 1270.99        2970.25           2431       74776.00    329619.90
 1271.02        2970.50           2434       68837.00    303166.00
 1271.05        2970.75           2438       59920.00    263537.00
 1271.08        2971.00           2441       53261.00    234012.80
 1271.11        2971.25           2445       45487.00    199620.10
 1271.14        2971.50           2449       37471.00    164241.10
 1271.17        2971.75           2452       32239.00    141195.40
 1271.20        2972.00           2456       24843.00    108679.40
 1271.23        2972.25           2459       19531.00     85369.92
 1271.26        2972.50           2463       11729.00     51201.09
 1271.29        2972.75           2466        6291.00     27432.29
 1271.32        2973.00           2470        1866.00      8119.50
 1271.35        2973.25           2473         810.00      3514.37
 1271.39        2973.50           2477         582.00      2520.27
 1271.42        2973.75           2481         540.00      2337.15
 1271.45        2974.00           2484         532.00      2302.27
 1271.48        2974.25           2488         530.00      2293.55
 1271.51        2974.50           2491         502.00      2171.48
 1271.54        2974.75           2495         498.00      2154.04
 1271.57        2975.00           2498         483.00      2088.64
 1271.60        2975.25           2502         472.00      2040.68
 1271.63        2975.50           2505         481.00      2079.92
 1271.66        2975.75           2509         443.00      1914.25
 1271.69        2976.00           2512         430.00      1857.57
 1271.72        2976.25           2516         444.00      1918.61
 1271.75        2976.50           2520         421.00      1818.33
 1271.78        2976.75           2523         414.00      1787.82
 1271.81        2977.00           2527         425.00      1835.77
 1271.84        2977.25           2530         424.00      1831.41
 1271.87        2977.50           2534         413.00      1783.46
 1271.90        2977.75           2537         406.00      1752.94
 1271.94        2978.00           2541         403.00      1739.86
 1271.97        2978.25           2544         397.00      1713.70
 1272.00        2978.50           2548         379.00      1635.23
 1272.03        2978.75           2552         382.00      1648.31
 1272.06        2979.00           2555         404.00      1744.22
 1272.09        2979.25           2559         368.00      1587.27
 1272.12        2979.50           2562         382.00      1648.31
 1272.15        2979.75           2566         364.00      1569.83
 1272.18        2980.00           2569         365.00      1574.19
 1272.21        2980.25           2573         371.00      1600.35
 1272.24        2980.50           2577         361.00      1556.75
 1272.27        2980.75           2580         361.00      1556.75
 1272.30        2981.00           2584         406.00      1752.94
 1272.33        2981.25           2587         351.00      1513.16
 1272.36        2981.50           2591         339.00      1460.84
 1272.39        2981.75           2594         333.00      1434.68
 1272.43        2982.00           2598         347.00      1495.72
 1272.46        2982.25           2601         357.00      1539.31
 1272.49        2982.50           2605         332.00      1430.32
 1272.52        2982.75           2609         362.00      1561.11
 1272.55        2983.00           2612         338.00      1456.48
 1272.58        2983.25           2616         342.00      1473.92
 1272.61        2983.50           2619         331.00      1425.96
 1272.64        2983.75           2623         350.00      1508.80
 1272.67        2984.00           2626         329.00      1417.24
HS scan finished at 21:12:54
end
