************************************************************
  HS Scan of (1) Internal mercury lamp
************************************************************
Integration time is 0.2294 seconds per sample
dh230717Reading 51.44 .94 3.27pr1000
************************************************************
Dead Time -------------------------  3.4E-08 
Number of Cycles Used -------------  4 
Starting Wavelength (Angstroms) ---  2950 
Final Wavelength (Angstoms) -------  2984 
Wavelength Increment (Angstroms) --  .25 
Filter Wheel #1 Position ---------- (1) Ground quartz diffuser (ND=2.32)
Filter Wheel #2 Position ---------- (1) Neutral Density 0.494



************************************************************
HS scan start time = 01:23:15
Dark Count =  1.5 


Time (GMT)  Wavelength (Ang)  Step Number  Raw Counts  Counts/Second

   84.14        2950.00           2144         385.00      1671.85
   84.34        2950.25           2147         399.00      1732.88
   84.37        2950.50           2151         381.00      1654.41
   84.40        2950.75           2155         385.00      1671.85
   84.43        2951.00           2158         393.00      1706.73
   84.46        2951.25           2162         411.00      1785.20
   84.49        2951.50           2165         394.00      1711.08
   84.52        2951.75           2169         391.00      1698.01
   84.55        2952.00           2172         404.00      1754.68
   84.58        2952.25           2176         399.00      1732.88
   84.61        2952.50           2179         395.00      1715.44
   84.64        2952.75           2183         424.00      1841.88
   84.67        2953.00           2186         411.00      1785.20
   84.71        2953.25           2190         419.00      1820.08
   84.74        2953.50           2193         400.00      1737.24
   84.77        2953.75           2197         422.00      1833.16
   84.80        2954.00           2200         409.00      1776.48
   84.83        2954.25           2204         421.00      1828.80
   84.86        2954.50           2208         422.00      1833.16
   84.89        2954.75           2211         421.00      1828.80
   84.92        2955.00           2215         432.00      1876.75
   84.95        2955.25           2218         435.00      1889.83
   84.98        2955.50           2222         437.00      1898.55
   85.01        2955.75           2225         449.00      1950.87
   85.04        2956.00           2229         454.00      1972.67
   85.07        2956.25           2232         451.00      1959.59
   85.10        2956.50           2236         457.00      1985.75
   85.13        2956.75           2239         445.00      1933.43
   85.16        2957.00           2243         483.00      2099.10
   85.19        2957.25           2246         484.00      2103.46
   85.23        2957.50           2250         459.00      1994.47
   85.26        2957.75           2254         508.00      2208.10
   85.29        2958.00           2257         515.00      2238.62
   85.32        2958.25           2261         490.00      2129.62
   85.35        2958.50           2264         497.00      2160.14
   85.38        2958.75           2268         481.00      2090.38
   85.41        2959.00           2271         489.00      2125.26
   85.44        2959.25           2275         538.00      2338.90
   85.47        2959.50           2278         536.00      2330.18
   85.50        2959.75           2282         534.00      2321.46
   85.53        2960.00           2285         541.00      2351.98
   85.56        2960.25           2289         577.00      2508.93
   85.59        2960.50           2293         588.00      2556.89
   85.62        2960.75           2296         599.00      2604.85
   85.65        2961.00           2300         758.00      3298.10
   85.68        2961.25           2303        1535.00      6686.35
   85.71        2961.50           2307        5387.00     23495.22
   85.75        2961.75           2310       10234.00     44673.30
   85.78        2962.00           2314       18438.00     80588.86
   85.81        2962.25           2317       25306.00    110723.40
   85.84        2962.50           2321       34483.00    151085.80
   85.87        2962.75           2324       41520.00    182111.50
   85.90        2963.00           2328       50640.00    222418.90
   85.93        2963.25           2331       57021.00    250686.90
   85.96        2963.50           2335       65664.00    289062.90
   85.99        2963.75           2339       75342.00    332154.20
   86.02        2964.00           2342       82872.00    365769.50
   86.05        2964.25           2346       92416.00    408487.20
   86.08        2964.50           2349       98656.00    436484.30
   86.11        2964.75           2353      107221.00    475000.70
   86.14        2965.00           2356      113895.00    505084.00
   86.17        2965.25           2360      122264.00    542895.60
   86.20        2965.50           2363      128595.00    571564.60
   86.23        2965.75           2367      137501.00    611990.10
   86.27        2966.00           2370      143389.00    638778.20
   86.30        2966.25           2374      150406.00    670767.50
   86.33        2966.50           2378      154580.00    689829.50
   86.36        2966.75           2381      155415.00    693645.80
   86.39        2967.00           2385      155657.00    694752.00
   86.42        2967.25           2388      155559.00    694304.00
   86.45        2967.50           2392      155616.00    694564.60
   86.48        2967.75           2395      155276.00    693010.40
   86.51        2968.00           2399      150251.00    670060.10
   86.54        2968.25           2402      145097.00    646558.10
   86.57        2968.50           2406      136843.00    608999.50
   86.60        2968.75           2409      130892.00    581980.30
   86.63        2969.00           2413      122639.00    544592.10
   86.66        2969.25           2417      113426.00    502967.90
   86.69        2969.50           2420      106754.00    472898.00
   86.72        2969.75           2424       97888.00    433035.60
   86.75        2970.00           2427       90804.00    401263.40
   86.79        2970.25           2431       81382.00    359111.80
   86.82        2970.50           2434       74789.00    329688.50
   86.85        2970.75           2438       65806.00    289694.20
   86.88        2971.00           2441       58304.00    256377.20
   86.91        2971.25           2445       48184.00    211553.30
   86.94        2971.50           2449       39018.00    171072.80
   86.97        2971.75           2452       32217.00    141109.10
   87.00        2972.00           2456       23320.00    102003.10
   87.03        2972.25           2459       16720.00     73060.52
   87.06        2972.50           2463        8786.00     38343.33
   87.09        2972.75           2466        4149.00     18090.90
   87.12        2973.00           2470        1319.00      5744.37
   87.15        2973.25           2473         765.00      3328.62
   87.18        2973.50           2477         673.00      2927.49
   87.21        2973.75           2481         617.00      2683.33
   87.24        2974.00           2484         627.00      2726.93
   87.27        2974.25           2488         612.00      2661.53
   87.30        2974.50           2491         566.00      2460.97
   87.34        2974.75           2495         559.00      2430.45
   87.37        2975.00           2498         557.00      2421.73
   87.40        2975.25           2502         555.00      2413.01
   87.43        2975.50           2505         537.00      2334.54
   87.46        2975.75           2509         516.00      2242.98
   87.49        2976.00           2512         526.00      2286.58
   87.52        2976.25           2516         512.00      2225.54
   87.55        2976.50           2520         532.00      2312.74
   87.58        2976.75           2523         508.00      2208.10
   87.61        2977.00           2527         499.00      2168.86
   87.64        2977.25           2530         495.00      2151.42
   87.67        2977.50           2534         487.00      2116.54
   87.70        2977.75           2537         473.00      2055.51
   87.73        2978.00           2541         459.00      1994.47
   87.76        2978.25           2544         453.00      1968.31
   87.79        2978.50           2548         452.00      1963.95
   87.82        2978.75           2552         453.00      1968.31
   87.86        2979.00           2555         454.00      1972.67
   87.89        2979.25           2559         458.00      1990.11
   87.92        2979.50           2562         451.00      1959.59
   87.95        2979.75           2566         460.00      1998.83
   87.98        2980.00           2569         442.00      1920.35
   88.01        2980.25           2573         438.00      1902.91
   88.04        2980.50           2577         442.00      1920.35
   88.07        2980.75           2580         438.00      1902.91
   88.10        2981.00           2584         429.00      1863.68
   88.13        2981.25           2587         439.00      1907.27
   88.16        2981.50           2591         431.00      1872.39
   88.19        2981.75           2594         428.00      1859.32
   88.22        2982.00           2598         421.00      1828.80
   88.25        2982.25           2601         419.00      1820.08
   88.28        2982.50           2605         415.00      1802.64
   88.31        2982.75           2609         403.00      1750.32
   88.34        2983.00           2612         410.00      1780.84
   88.38        2983.25           2616         405.00      1759.04
   88.41        2983.50           2619         439.00      1907.27
   88.44        2983.75           2623         399.00      1732.88
   88.47        2984.00           2626         405.00      1759.04
HS scan finished at 01:28:41
end
************************************************************
  HS Scan of (1) Internal mercury lamp
************************************************************
Integration time is 0.2294 seconds per sample
dh230717Reading 51.44 .94 3.47pr1000
************************************************************
Dead Time -------------------------  3.4E-08 
Number of Cycles Used -------------  4 
Starting Wavelength (Angstroms) ---  2950 
Final Wavelength (Angstoms) -------  2984 
Wavelength Increment (Angstroms) --  .25 
Filter Wheel #1 Position ---------- (1) Ground quartz diffuser (ND=2.32)
Filter Wheel #2 Position ---------- (1) Neutral Density 0.494



************************************************************
HS scan start time = 21:07:31
Dark Count =  2.8 


Time (GMT)  Wavelength (Ang)  Step Number  Raw Counts  Counts/Second

 1268.42        2950.00           2144         365.00      1578.99
 1268.61        2950.25           2147         367.00      1587.71
 1268.64        2950.50           2151         363.00      1570.27
 1268.67        2950.75           2155         352.00      1522.31
 1268.70        2951.00           2158         347.00      1500.51
 1268.73        2951.25           2162         424.00      1836.21
 1268.76        2951.50           2165         363.00      1570.27
 1268.80        2951.75           2169         363.00      1570.27
 1268.83        2952.00           2172         379.00      1640.02
 1268.86        2952.25           2176         369.00      1596.42
 1268.89        2952.50           2179         382.00      1653.10
 1268.92        2952.75           2183         362.00      1565.91
 1268.95        2953.00           2186         365.00      1578.99
 1268.98        2953.25           2190         379.00      1640.02
 1269.01        2953.50           2193         398.00      1722.86
 1269.04        2953.75           2197         389.00      1683.62
 1269.07        2954.00           2200         402.00      1740.29
 1269.10        2954.25           2204         397.00      1718.50
 1269.13        2954.50           2208         386.00      1670.54
 1269.16        2954.75           2211         414.00      1792.61
 1269.19        2955.00           2215         409.00      1770.81
 1269.22        2955.25           2218         407.00      1762.09
 1269.25        2955.50           2222         404.00      1749.01
 1269.28        2955.75           2225         410.00      1775.17
 1269.31        2956.00           2229         426.00      1844.93
 1269.35        2956.25           2232         407.00      1762.09
 1269.38        2956.50           2236         424.00      1836.21
 1269.41        2956.75           2239         425.00      1840.57
 1269.44        2957.00           2243         433.00      1875.45
 1269.47        2957.25           2246         440.00      1905.97
 1269.50        2957.50           2250         431.00      1866.73
 1269.53        2957.75           2254         446.00      1932.12
 1269.56        2958.00           2257         455.00      1971.36
 1269.59        2958.25           2261         453.00      1962.64
 1269.62        2958.50           2264         462.00      2001.88
 1269.65        2958.75           2268         471.00      2041.12
 1269.68        2959.00           2271         482.00      2089.08
 1269.71        2959.25           2275         504.00      2184.99
 1269.74        2959.50           2278         477.00      2067.28
 1269.77        2959.75           2282         514.00      2228.59
 1269.80        2960.00           2285         518.00      2246.03
 1269.83        2960.25           2289         506.00      2193.71
 1269.87        2960.50           2293         546.00      2368.11
 1269.90        2960.75           2296         557.00      2416.07
 1269.93        2961.00           2300         642.00      2786.66
 1269.96        2961.25           2303        1130.00      4914.51
 1269.99        2961.50           2307        4406.00     19206.96
 1270.02        2961.75           2310        8991.00     39233.64
 1270.05        2962.00           2314       16318.00     71293.80
 1270.08        2962.25           2317       22505.00     98420.34
 1270.11        2962.50           2321       30374.00    132994.10
 1270.14        2962.75           2324       36658.00    160662.50
 1270.17        2963.00           2328       45023.00    197574.80
 1270.20        2963.25           2331       51530.00    226352.60
 1270.23        2963.50           2335       60054.00    264136.50
 1270.26        2963.75           2339       68794.00    302979.50
 1270.29        2964.00           2342       75110.00    331113.90
 1270.32        2964.25           2346       84166.00    371548.20
 1270.36        2964.50           2349       90499.00    399891.10
 1270.39        2964.75           2353       98621.00    436321.30
 1270.42        2965.00           2356      104484.00    462675.70
 1270.45        2965.25           2360      112099.00    496976.50
 1270.48        2965.50           2363      118768.00    527082.60
 1270.51        2965.75           2367      127857.00    568213.90
 1270.54        2966.00           2370      132765.00    590472.90
 1270.57        2966.25           2374      140236.00    624421.30
 1270.60        2966.50           2378      145501.00    648393.10
 1270.63        2966.75           2381      147333.00    656743.60
 1270.66        2967.00           2385      147419.00    657135.80
 1270.69        2967.25           2388      147637.00    658129.80
 1270.72        2967.50           2392      147763.00    658704.30
 1270.75        2967.75           2395      147112.00    655736.00
 1270.78        2968.00           2399      143101.00    637460.80
 1270.81        2968.25           2402      138130.00    614843.50
 1270.84        2968.50           2406      130856.00    581811.10
 1270.88        2968.75           2409      125154.00    555969.60
 1270.91        2969.00           2413      116930.00    518779.10
 1270.94        2969.25           2417      107667.00    477003.30
 1270.97        2969.50           2420      100752.00    445894.70
 1271.00        2969.75           2424       92706.00    409781.40
 1271.03        2970.00           2427       86588.00    382381.20
 1271.06        2970.25           2431       78261.00    345170.20
 1271.09        2970.50           2434       72531.00    319619.40
 1271.12        2970.75           2438       62576.00    275334.50
 1271.15        2971.00           2441       55256.00    242856.70
 1271.18        2971.25           2445       46493.00    204071.00
 1271.21        2971.50           2449       38010.00    166622.20
 1271.24        2971.75           2452       31934.00    139857.90
 1271.27        2972.00           2456       24044.00    105175.80
 1271.30        2972.25           2459       17865.00     78071.83
 1271.33        2972.50           2463        9243.00     40335.14
 1271.36        2972.75           2466        4349.00     18958.16
 1271.40        2973.00           2470        1330.00      5786.67
 1271.43        2973.25           2473         752.00      3266.27
 1271.46        2973.50           2477         660.00      2865.14
 1271.49        2973.75           2481         578.00      2507.62
 1271.52        2974.00           2484         579.00      2511.98
 1271.55        2974.25           2488         549.00      2381.19
 1271.58        2974.50           2491         554.00      2402.99
 1271.61        2974.75           2495         528.00      2289.63
 1271.64        2975.00           2498         514.00      2228.59
 1271.67        2975.25           2502         492.00      2132.67
 1271.70        2975.50           2505         532.00      2307.07
 1271.73        2975.75           2509         498.00      2158.83
 1271.76        2976.00           2512         500.00      2167.55
 1271.79        2976.25           2516         491.00      2128.31
 1271.82        2976.50           2520         485.00      2102.16
 1271.85        2976.75           2523         473.00      2049.84
 1271.88        2977.00           2527         470.00      2036.76
 1271.92        2977.25           2530         474.00      2054.20
 1271.95        2977.50           2534         445.00      1927.76
 1271.98        2977.75           2537         428.00      1853.65
 1272.01        2978.00           2541         432.00      1871.09
 1272.04        2978.25           2544         436.00      1888.53
 1272.07        2978.50           2548         432.00      1871.09
 1272.10        2978.75           2552         435.00      1884.17
 1272.13        2979.00           2555         431.00      1866.73
 1272.16        2979.25           2559         431.00      1866.73
 1272.19        2979.50           2562         443.00      1919.04
 1272.22        2979.75           2566         422.00      1827.49
 1272.25        2980.00           2569         411.00      1779.53
 1272.28        2980.25           2573         424.00      1836.21
 1272.31        2980.50           2577         417.00      1805.69
 1272.34        2980.75           2580         393.00      1701.06
 1272.37        2981.00           2584         422.00      1827.49
 1272.40        2981.25           2587         403.00      1744.65
 1272.43        2981.50           2591         383.00      1657.46
 1272.47        2981.75           2594         388.00      1679.26
 1272.50        2982.00           2598         385.00      1666.18
 1272.53        2982.25           2601         391.00      1692.34
 1272.56        2982.50           2605         399.00      1727.22
 1272.59        2982.75           2609         376.00      1626.94
 1272.62        2983.00           2612         375.00      1622.58
 1272.65        2983.25           2616         398.00      1722.86
 1272.68        2983.50           2619         399.00      1727.22
 1272.71        2983.75           2623         380.00      1644.38
 1272.74        2984.00           2626         367.00      1587.71
HS scan finished at 21:12:58
end
