************************************************************
  HS Scan of (1) Internal mercury lamp
************************************************************
Integration time is 0.2294 seconds per sample
dh280717Reading 51.44 .94 3.29pr1000
************************************************************
Dead Time -------------------------  3.4E-08 
Number of Cycles Used -------------  4 
Starting Wavelength (Angstroms) ---  2950 
Final Wavelength (Angstoms) -------  2984 
Wavelength Increment (Angstroms) --  .25 
Filter Wheel #1 Position ---------- (1) Ground quartz diffuser (ND=2.32)
Filter Wheel #2 Position ---------- (1) Neutral Density 0.494



************************************************************
HS scan start time = 01:15:45
Dark Count =  1.7 


Time (GMT)  Wavelength (Ang)  Step Number  Raw Counts  Counts/Second

   76.65        2950.00           2144         383.00      1662.26
   76.84        2950.25           2147         378.00      1640.46
   76.87        2950.50           2151         386.00      1675.34
   76.90        2950.75           2155         397.00      1723.29
   76.93        2951.00           2158         395.00      1714.57
   76.96        2951.25           2162         368.00      1596.86
   76.99        2951.50           2165         423.00      1836.64
   77.02        2951.75           2169         417.00      1810.49
   77.05        2952.00           2172         421.00      1827.93
   77.08        2952.25           2176         402.00      1745.09
   77.11        2952.50           2179         390.00      1692.77
   77.15        2952.75           2183         414.00      1797.41
   77.18        2953.00           2186         392.00      1701.49
   77.21        2953.25           2190         406.00      1762.53
   77.24        2953.50           2193         411.00      1784.33
   77.27        2953.75           2197         420.00      1823.57
   77.30        2954.00           2200         414.00      1797.41
   77.33        2954.25           2204         439.00      1906.40
   77.36        2954.50           2208         436.00      1893.32
   77.39        2954.75           2211         422.00      1832.29
   77.42        2955.00           2215         427.00      1854.08
   77.45        2955.25           2218         437.00      1897.68
   77.48        2955.50           2222         427.00      1854.08
   77.51        2955.75           2225         435.00      1888.96
   77.54        2956.00           2229         429.00      1862.80
   77.57        2956.25           2232         444.00      1928.20
   77.60        2956.50           2236         475.00      2063.35
   77.63        2956.75           2239         468.00      2032.83
   77.67        2957.00           2243         472.00      2050.27
   77.70        2957.25           2246         466.00      2024.11
   77.73        2957.50           2250         468.00      2032.83
   77.76        2957.75           2254         471.00      2045.91
   77.79        2958.00           2257         491.00      2133.11
   77.82        2958.25           2261         483.00      2098.23
   77.85        2958.50           2264         499.00      2167.99
   77.88        2958.75           2268         501.00      2176.71
   77.91        2959.00           2271         528.00      2294.42
   77.94        2959.25           2275         522.00      2268.27
   77.97        2959.50           2278         528.00      2294.42
   78.00        2959.75           2282         545.00      2368.54
   78.03        2960.00           2285         547.00      2377.26
   78.06        2960.25           2289         570.00      2477.54
   78.09        2960.50           2293         595.00      2586.54
   78.12        2960.75           2296         585.00      2542.94
   78.15        2961.00           2300         751.00      3266.71
   78.19        2961.25           2303        1358.00      5913.57
   78.22        2961.50           2307        5033.00     21948.81
   78.25        2961.75           2310       10467.00     45691.24
   78.28        2962.00           2314       18449.00     80636.21
   78.31        2962.25           2317       25053.00    109611.30
   78.34        2962.50           2321       34031.00    149094.40
   78.37        2962.75           2324       41217.00    180773.40
   78.40        2963.00           2328       50672.00    222559.70
   78.43        2963.25           2331       57424.00    252473.20
   78.46        2963.50           2335       66443.00    292525.80
   78.49        2963.75           2339       75895.00    334619.30
   78.52        2964.00           2342       82730.00    365134.00
   78.55        2964.25           2346       92769.00    410068.70
   78.58        2964.50           2349       99556.00    440525.90
   78.61        2964.75           2353      107633.00    476855.10
   78.64        2965.00           2356      113214.00    502010.70
   78.67        2965.25           2360      122689.00    544817.50
   78.71        2965.50           2363      129420.00    575303.80
   78.74        2965.75           2367      137978.00    614157.50
   78.77        2966.00           2370      144324.00    643035.80
   78.80        2966.25           2374      151699.00    676668.80
   78.83        2966.50           2378      155350.00    693347.70
   78.86        2966.75           2381      156749.00    699743.90
   78.89        2967.00           2385      156851.00    700210.30
   78.92        2967.25           2388      156766.00    699821.60
   78.95        2967.50           2392      156674.00    699400.90
   78.98        2967.75           2395      155983.00    696241.40
   79.01        2968.00           2399      151649.00    676440.50
   79.04        2968.25           2402      145879.00    650120.70
   79.07        2968.50           2406      138114.00    614775.80
   79.10        2968.75           2409      132078.00    587360.10
   79.13        2969.00           2413      123696.00    549374.30
   79.16        2969.25           2417      114613.00    508323.20
   79.19        2969.50           2420      107460.00    476076.10
   79.22        2969.75           2424       98310.00    434929.60
   79.26        2970.00           2427       91390.00    403888.10
   79.29        2970.25           2431       81942.00    361612.70
   79.32        2970.50           2434       75354.00    332206.80
   79.35        2970.75           2438       65576.00    288670.80
   79.38        2971.00           2441       57906.00    254610.90
   79.41        2971.25           2445       48025.00    210849.20
   79.44        2971.50           2449       38251.00    167689.60
   79.47        2971.75           2452       31196.00    136615.20
   79.50        2972.00           2456       22394.00     97938.06
   79.53        2972.25           2459       16043.00     70094.06
   79.56        2972.50           2463        8577.00     37429.03
   79.59        2972.75           2466        4224.00     18417.37
   79.62        2973.00           2470        1298.00      5651.91
   79.65        2973.25           2473         762.00      3314.67
   79.68        2973.50           2477         637.00      2769.66
   79.71        2973.75           2481         614.00      2669.38
   79.74        2974.00           2484         602.00      2617.06
   79.78        2974.25           2488         579.00      2516.78
   79.81        2974.50           2491         546.00      2372.90
   79.84        2974.75           2495         583.00      2534.22
   79.87        2975.00           2498         557.00      2420.86
   79.90        2975.25           2502         538.00      2338.02
   79.93        2975.50           2505         535.00      2324.94
   79.96        2975.75           2509         532.00      2311.86
   79.99        2976.00           2512         520.00      2259.55
   80.02        2976.25           2516         549.00      2385.98
   80.05        2976.50           2520         528.00      2294.42
   80.08        2976.75           2523         509.00      2211.59
   80.11        2977.00           2527         501.00      2176.71
   80.14        2977.25           2530         505.00      2194.15
   80.17        2977.50           2534         480.00      2085.15
   80.20        2977.75           2537         482.00      2093.87
   80.23        2978.00           2541         455.00      1976.16
   80.26        2978.25           2544         470.00      2041.55
   80.30        2978.50           2548         467.00      2028.47
   80.33        2978.75           2552         464.00      2015.40
   80.36        2979.00           2555         456.00      1980.52
   80.39        2979.25           2559         441.00      1915.12
   80.42        2979.50           2562         442.00      1919.48
   80.45        2979.75           2566         436.00      1893.32
   80.48        2980.00           2569         424.00      1841.00
   80.51        2980.25           2573         429.00      1862.80
   80.54        2980.50           2577         425.00      1845.36
   80.57        2980.75           2580         407.00      1766.89
   80.60        2981.00           2584         422.00      1832.29
   80.63        2981.25           2587         441.00      1915.12
   80.66        2981.50           2591         395.00      1714.57
   80.69        2981.75           2594         403.00      1749.45
   80.72        2982.00           2598         409.00      1775.61
   80.75        2982.25           2601         404.00      1753.81
   80.78        2982.50           2605         416.00      1806.13
   80.82        2982.75           2609         407.00      1766.89
   80.85        2983.00           2612         399.00      1732.01
   80.88        2983.25           2616         380.00      1649.18
   80.91        2983.50           2619         388.00      1684.05
   80.94        2983.75           2623         385.00      1670.98
   80.97        2984.00           2626         403.00      1749.45
HS scan finished at 01:21:12
end
************************************************************
  HS Scan of (1) Internal mercury lamp
************************************************************
Integration time is 0.2294 seconds per sample
dh280717Reading 51.44 .94 3.41pr1000
************************************************************
Dead Time -------------------------  3.4E-08 
Number of Cycles Used -------------  4 
Starting Wavelength (Angstroms) ---  2950 
Final Wavelength (Angstoms) -------  2984 
Wavelength Increment (Angstroms) --  .25 
Filter Wheel #1 Position ---------- (1) Ground quartz diffuser (ND=2.32)
Filter Wheel #2 Position ---------- (1) Neutral Density 0.494



************************************************************
HS scan start time = 21:07:27
Dark Count =  1.8 


Time (GMT)  Wavelength (Ang)  Step Number  Raw Counts  Counts/Second

 1268.35        2950.00           2144         341.00      1478.71
 1268.54        2950.25           2147         359.00      1557.19
 1268.57        2950.50           2151         369.00      1600.78
 1268.60        2950.75           2155         359.00      1557.19
 1268.63        2951.00           2158         366.00      1587.71
 1268.66        2951.25           2162         390.00      1692.34
 1268.69        2951.50           2165         373.00      1618.22
 1268.72        2951.75           2169         353.00      1531.03
 1268.75        2952.00           2172         351.00      1522.31
 1268.78        2952.25           2176         365.00      1583.35
 1268.82        2952.50           2179         382.00      1657.46
 1268.85        2952.75           2183         364.00      1578.99
 1268.88        2953.00           2186         374.00      1622.58
 1268.91        2953.25           2190         401.00      1740.29
 1268.94        2953.50           2193         394.00      1709.78
 1268.97        2953.75           2197         406.00      1762.09
 1269.00        2954.00           2200         416.00      1805.69
 1269.03        2954.25           2204         386.00      1674.90
 1269.06        2954.50           2208         381.00      1653.10
 1269.09        2954.75           2211         429.00      1862.37
 1269.12        2955.00           2215         401.00      1740.29
 1269.15        2955.25           2218         420.00      1823.13
 1269.18        2955.50           2222         412.00      1788.25
 1269.21        2955.75           2225         408.00      1770.81
 1269.24        2956.00           2229         401.00      1740.29
 1269.27        2956.25           2232         425.00      1844.93
 1269.30        2956.50           2236         419.00      1818.77
 1269.33        2956.75           2239         430.00      1866.73
 1269.37        2957.00           2243         440.00      1910.32
 1269.40        2957.25           2246         425.00      1844.93
 1269.43        2957.50           2250         426.00      1849.29
 1269.46        2957.75           2254         421.00      1827.49
 1269.49        2958.00           2257         441.00      1914.68
 1269.52        2958.25           2261         437.00      1897.25
 1269.55        2958.50           2264         460.00      1997.52
 1269.58        2958.75           2268         466.00      2023.68
 1269.61        2959.00           2271         496.00      2154.47
 1269.64        2959.25           2275         477.00      2071.64
 1269.67        2959.50           2278         491.00      2132.67
 1269.70        2959.75           2282         522.00      2267.83
 1269.73        2960.00           2285         499.00      2167.55
 1269.76        2960.25           2289         520.00      2259.11
 1269.79        2960.50           2293         570.00      2477.11
 1269.82        2960.75           2296         560.00      2433.51
 1269.86        2961.00           2300         634.00      2756.14
 1269.89        2961.25           2303        1183.00      5149.99
 1269.92        2961.50           2307        4343.00     18936.34
 1269.95        2961.75           2310        8842.00     38586.78
 1269.98        2962.00           2314       16111.00     70391.47
 1270.01        2962.25           2317       22512.00     98455.44
 1270.04        2962.50           2321       30202.00    132241.90
 1270.07        2962.75           2324       35937.00    157489.70
 1270.10        2963.00           2328       43330.00    190101.00
 1270.13        2963.25           2331       49858.00    218957.00
 1270.16        2963.50           2335       59117.00    259982.80
 1270.19        2963.75           2339       68817.00    303086.40
 1270.22        2964.00           2342       74954.00    330422.80
 1270.25        2964.25           2346       82866.00    365741.40
 1270.28        2964.50           2349       88568.00    391247.70
 1270.31        2964.75           2353       97705.00    432212.70
 1270.34        2965.00           2356      104099.00    460948.10
 1270.37        2965.25           2360      111913.00    496142.20
 1270.41        2965.50           2363      118115.00    524136.60
 1270.44        2965.75           2367      125185.00    556114.60
 1270.47        2966.00           2370      131066.00    582768.20
 1270.50        2966.25           2374      138744.00    617639.80
 1270.53        2966.50           2378      144301.00    642930.60
 1270.56        2966.75           2381      146038.00    650844.90
 1270.59        2967.00           2385      146649.00    653629.80
 1270.62        2967.25           2388      146636.00    653570.60
 1270.65        2967.50           2392      146717.00    653939.90
 1270.68        2967.75           2395      146422.00    652595.20
 1270.71        2968.00           2399      143717.00    640270.50
 1270.74        2968.25           2402      140041.00    623538.80
 1270.77        2968.50           2406      132635.00    589887.50
 1270.80        2968.75           2409      125855.00    559148.70
 1270.83        2969.00           2413      116493.00    516810.10
 1270.86        2969.25           2417      107806.00    477633.80
 1270.89        2969.50           2420      101401.00    448816.10
 1270.93        2969.75           2424       93216.00    412072.20
 1270.96        2970.00           2427       87022.00    384327.70
 1270.99        2970.25           2431       77100.00    339994.00
 1271.02        2970.50           2434       70045.00    308552.20
 1271.05        2970.75           2438       61320.00    269761.10
 1271.08        2971.00           2441       55397.00    243486.00
 1271.11        2971.25           2445       47007.00    206347.60
 1271.14        2971.50           2449       38735.00    169823.40
 1271.17        2971.75           2452       33143.00    145184.00
 1271.20        2972.00           2456       24522.00    107279.00
 1271.23        2972.25           2459       17600.00     76914.93
 1271.26        2972.50           2463        9071.00     39587.69
 1271.29        2972.75           2466        4434.00     19333.54
 1271.32        2973.00           2470        1398.00      6087.57
 1271.35        2973.25           2473         815.00      3545.33
 1271.38        2973.50           2477         611.00      2655.86
 1271.41        2973.75           2481         572.00      2485.82
 1271.45        2974.00           2484         585.00      2542.50
 1271.48        2974.25           2488         549.00      2385.55
 1271.51        2974.50           2491         544.00      2363.75
 1271.54        2974.75           2495         531.00      2307.07
 1271.57        2975.00           2498         538.00      2337.59
 1271.60        2975.25           2502         504.00      2189.35
 1271.63        2975.50           2505         487.00      2115.24
 1271.66        2975.75           2509         486.00      2110.88
 1271.69        2976.00           2512         496.00      2154.47
 1271.72        2976.25           2516         482.00      2093.44
 1271.75        2976.50           2520         478.00      2076.00
 1271.78        2976.75           2523         460.00      1997.52
 1271.81        2977.00           2527         455.00      1975.72
 1271.84        2977.25           2530         445.00      1932.12
 1271.87        2977.50           2534         449.00      1949.56
 1271.90        2977.75           2537         445.00      1932.12
 1271.93        2978.00           2541         456.00      1980.08
 1271.97        2978.25           2544         415.00      1801.33
 1272.00        2978.50           2548         422.00      1831.85
 1272.03        2978.75           2552         422.00      1831.85
 1272.06        2979.00           2555         420.00      1823.13
 1272.09        2979.25           2559         427.00      1853.65
 1272.12        2979.50           2562         406.00      1762.09
 1272.15        2979.75           2566         415.00      1801.33
 1272.18        2980.00           2569         407.00      1766.45
 1272.21        2980.25           2573         418.00      1814.41
 1272.24        2980.50           2577         396.00      1718.50
 1272.27        2980.75           2580         404.00      1753.37
 1272.30        2981.00           2584         410.00      1779.53
 1272.33        2981.25           2587         417.00      1810.05
 1272.36        2981.50           2591         386.00      1674.90
 1272.39        2981.75           2594         394.00      1709.78
 1272.42        2982.00           2598         372.00      1613.86
 1272.45        2982.25           2601         378.00      1640.02
 1272.49        2982.50           2605         388.00      1683.62
 1272.52        2982.75           2609         372.00      1613.86
 1272.55        2983.00           2612         387.00      1679.26
 1272.58        2983.25           2616         381.00      1653.10
 1272.61        2983.50           2619         369.00      1600.78
 1272.64        2983.75           2623         366.00      1587.71
 1272.67        2984.00           2626         358.00      1552.83
HS scan finished at 21:12:54
end
