************************************************************
  HS Scan of (1) Internal mercury lamp
************************************************************
Integration time is 0.2294 seconds per sample
dh270718Reading 51.44 .94 3.82pr1000
************************************************************
Dead Time -------------------------  3.4E-08 
Number of Cycles Used -------------  4 
Starting Wavelength (Angstroms) ---  2950 
Final Wavelength (Angstoms) -------  2984 
Wavelength Increment (Angstroms) --  .25 
Filter Wheel #1 Position ---------- (1) Ground quartz diffuser (ND=2.32)
Filter Wheel #2 Position ---------- (1) Neutral Density 0.494



************************************************************
HS scan start time = 01:14:29
Dark Count =  6.3 


Time (GMT)  Wavelength (Ang)  Step Number  Raw Counts  Counts/Second

   75.38        2950.00           2144          57.00       221.01
   75.57        2950.25           2147          66.00       260.25
   75.60        2950.50           2151          62.00       242.81
   75.63        2950.75           2155          67.00       264.61
   75.66        2951.00           2158          68.00       268.97
   75.69        2951.25           2162          62.00       242.81
   75.72        2951.50           2165          63.00       247.17
   75.75        2951.75           2169          62.00       242.81
   75.79        2952.00           2172          66.00       260.25
   75.82        2952.25           2176          67.00       264.61
   75.85        2952.50           2179          61.00       238.45
   75.88        2952.75           2183          61.00       238.45
   75.91        2953.00           2186          64.00       251.53
   75.94        2953.25           2190          67.00       264.61
   75.97        2953.50           2193          67.00       264.61
   76.00        2953.75           2197          62.00       242.81
   76.03        2954.00           2200          68.00       268.97
   76.06        2954.25           2204          73.00       290.76
   76.09        2954.50           2208          69.00       273.32
   76.12        2954.75           2211          72.00       286.40
   76.15        2955.00           2215          68.00       268.97
   76.18        2955.25           2218          75.00       299.48
   76.21        2955.50           2222          69.00       273.32
   76.24        2955.75           2225          72.00       286.40
   76.28        2956.00           2229          76.00       303.84
   76.31        2956.25           2232          71.00       282.04
   76.34        2956.50           2236          71.00       282.04
   76.37        2956.75           2239          85.00       343.07
   76.40        2957.00           2243          69.00       273.32
   76.43        2957.25           2246          80.00       321.28
   76.46        2957.50           2250          81.00       325.64
   76.49        2957.75           2254          80.00       321.28
   76.52        2958.00           2257          79.00       316.92
   76.55        2958.25           2261          73.00       290.76
   76.58        2958.50           2264          75.00       299.48
   76.61        2958.75           2268          81.00       325.64
   76.64        2959.00           2271          86.00       347.43
   76.67        2959.25           2275          83.00       334.35
   76.70        2959.50           2278          94.00       382.31
   76.73        2959.75           2282          96.00       391.03
   76.76        2960.00           2285          92.00       373.59
   76.79        2960.25           2289          94.00       382.31
   76.83        2960.50           2293         108.00       443.34
   76.86        2960.75           2296         103.00       421.54
   76.89        2961.00           2300         150.00       626.43
   76.92        2961.25           2303         292.00      1245.48
   76.95        2961.50           2307         869.00      3761.16
   76.98        2961.75           2310        1708.00      7419.92
   77.01        2962.00           2314        3046.00     13256.63
   77.04        2962.25           2317        4195.00     18270.72
   77.07        2962.50           2321        5746.00     25041.80
   77.10        2962.75           2324        6805.00     29666.79
   77.13        2963.00           2328        8539.00     37242.86
   77.16        2963.25           2331        9738.00     42483.74
   77.19        2963.50           2335       11266.00     49165.38
   77.22        2963.75           2339       12936.00     56471.45
   77.25        2964.00           2342       13926.00     60804.31
   77.28        2964.25           2346       15534.00     67844.63
   77.31        2964.50           2349       16801.00     73394.35
   77.35        2964.75           2353       18449.00     80616.03
   77.38        2965.00           2356       19732.00     86240.72
   77.41        2965.25           2360       21619.00     94517.29
   77.44        2965.50           2363       22529.00     98510.30
   77.47        2965.75           2367       24269.00    106148.30
   77.50        2966.00           2370       25294.00    110649.60
   77.53        2966.25           2374       26528.00    116070.50
   77.56        2966.50           2378       26954.00    117942.40
   77.59        2966.75           2381       27017.00    118219.20
   77.62        2967.00           2385       27118.00    118663.10
   77.65        2967.25           2388       27034.00    118293.90
   77.68        2967.50           2392       26867.00    117560.10
   77.71        2967.75           2395       26742.00    117010.80
   77.74        2968.00           2399       25845.00    113069.90
   77.77        2968.25           2402       24669.00    107904.70
   77.80        2968.50           2406       23164.00    101297.30
   77.83        2968.75           2409       22054.00     96425.90
   77.87        2969.00           2413       20383.00     89095.56
   77.90        2969.25           2417       19116.00     83539.91
   77.93        2969.50           2420       17794.00     77745.34
   77.96        2969.75           2424       16522.00     72172.09
   77.99        2970.00           2427       15038.00     65672.63
   78.02        2970.25           2431       13379.00     58410.14
   78.05        2970.50           2434       12143.00     53001.71
   78.08        2970.75           2438       10462.00     45649.27
   78.11        2971.00           2441        9270.00     40437.86
   78.14        2971.25           2445        7755.00     33816.98
   78.17        2971.50           2449        6253.00     27255.85
   78.20        2971.75           2452        5192.00     22622.89
   78.23        2972.00           2456        3644.00     15866.01
   78.26        2972.25           2459        2480.00     10787.30
   78.29        2972.50           2463        1210.00      5248.10
   78.32        2972.75           2466         576.00      2483.64
   78.35        2973.00           2470         208.00       879.28
   78.39        2973.25           2473         125.00       517.45
   78.42        2973.50           2477         107.00       438.98
   78.45        2973.75           2481         120.00       495.65
   78.48        2974.00           2484          98.00       399.74
   78.51        2974.25           2488         114.00       469.49
   78.54        2974.50           2491         101.00       412.82
   78.57        2974.75           2495          88.00       356.15
   78.60        2975.00           2498         100.00       408.46
   78.63        2975.25           2502          90.00       364.87
   78.66        2975.50           2505          84.00       338.71
   78.69        2975.75           2509          86.00       347.43
   78.72        2976.00           2512          86.00       347.43
   78.75        2976.25           2516          84.00       338.71
   78.78        2976.50           2520          81.00       325.64
   78.81        2976.75           2523          85.00       343.07
   78.84        2977.00           2527          90.00       364.87
   78.87        2977.25           2530          80.00       321.28
   78.91        2977.50           2534          89.00       360.51
   78.94        2977.75           2537          85.00       343.07
   78.97        2978.00           2541          81.00       325.64
   79.00        2978.25           2544          71.00       282.04
   79.03        2978.50           2548          82.00       329.99
   79.06        2978.75           2552          79.00       316.92
   79.09        2979.00           2555          78.00       312.56
   79.12        2979.25           2559          72.00       286.40
   79.15        2979.50           2562          76.00       303.84
   79.18        2979.75           2566          64.00       251.53
   79.21        2980.00           2569          69.00       273.32
   79.24        2980.25           2573          79.00       316.92
   79.27        2980.50           2577          74.00       295.12
   79.30        2980.75           2580          71.00       282.04
   79.33        2981.00           2584          75.00       299.48
   79.36        2981.25           2587          77.00       308.20
   79.39        2981.50           2591          69.00       273.32
   79.42        2981.75           2594          64.00       251.53
   79.46        2982.00           2598          72.00       286.40
   79.49        2982.25           2601          68.00       268.97
   79.52        2982.50           2605          73.00       290.76
   79.55        2982.75           2609          69.00       273.32
   79.58        2983.00           2612          65.00       255.89
   79.61        2983.25           2616          64.00       251.53
   79.64        2983.50           2619          70.00       277.68
   79.67        2983.75           2623          71.00       282.04
   79.70        2984.00           2626          67.00       264.61
HS scan finished at 01:19:55
end
************************************************************
  HS Scan of (1) Internal mercury lamp
************************************************************
Integration time is 0.2294 seconds per sample
dh270718Reading 51.44 .94 3.7pr1000
************************************************************
Dead Time -------------------------  3.4E-08 
Number of Cycles Used -------------  4 
Starting Wavelength (Angstroms) ---  2950 
Final Wavelength (Angstoms) -------  2984 
Wavelength Increment (Angstroms) --  .25 
Filter Wheel #1 Position ---------- (1) Ground quartz diffuser (ND=2.32)
Filter Wheel #2 Position ---------- (1) Neutral Density 0.494



************************************************************
HS scan start time = 21:07:27
Dark Count =  4.4 


Time (GMT)  Wavelength (Ang)  Step Number  Raw Counts  Counts/Second

 1268.35        2950.00           2144          57.00       229.30
 1268.55        2950.25           2147          54.00       216.22
 1268.58        2950.50           2151          53.00       211.86
 1268.61        2950.75           2155          57.00       229.30
 1268.64        2951.00           2158          53.00       211.86
 1268.67        2951.25           2162          60.00       242.37
 1268.70        2951.50           2165          53.00       211.86
 1268.73        2951.75           2169          58.00       233.65
 1268.76        2952.00           2172          58.00       233.65
 1268.79        2952.25           2176          56.00       224.94
 1268.82        2952.50           2179          60.00       242.37
 1268.85        2952.75           2183          58.00       233.65
 1268.88        2953.00           2186          61.00       246.73
 1268.91        2953.25           2190          71.00       290.33
 1268.94        2953.50           2193          59.00       238.01
 1268.97        2953.75           2197          64.00       259.81
 1269.00        2954.00           2200          69.00       281.61
 1269.04        2954.25           2204          66.00       268.53
 1269.07        2954.50           2208          61.00       246.73
 1269.10        2954.75           2211          60.00       242.37
 1269.13        2955.00           2215          63.00       255.45
 1269.16        2955.25           2218          64.00       259.81
 1269.19        2955.50           2222          70.00       285.97
 1269.22        2955.75           2225          65.00       264.17
 1269.25        2956.00           2229          63.00       255.45
 1269.28        2956.25           2232          69.00       281.61
 1269.31        2956.50           2236          70.00       285.97
 1269.34        2956.75           2239          63.00       255.45
 1269.37        2957.00           2243          66.00       268.53
 1269.40        2957.25           2246          65.00       264.17
 1269.43        2957.50           2250          65.00       264.17
 1269.46        2957.75           2254          79.00       325.20
 1269.49        2958.00           2257          76.00       312.12
 1269.52        2958.25           2261          64.00       259.81
 1269.56        2958.50           2264          75.00       307.76
 1269.59        2958.75           2268          76.00       312.12
 1269.62        2959.00           2271          78.00       320.84
 1269.65        2959.25           2275          79.00       325.20
 1269.68        2959.50           2278          73.00       299.04
 1269.71        2959.75           2282          81.00       333.92
 1269.74        2960.00           2285          78.00       320.84
 1269.77        2960.25           2289          87.00       360.07
 1269.80        2960.50           2293          81.00       333.92
 1269.83        2960.75           2296          89.00       368.79
 1269.86        2961.00           2300         127.00       534.45
 1269.90        2961.25           2303         249.00      1066.30
 1269.93        2961.50           2307         831.00      3603.75
 1269.96        2961.75           2310        1695.00      7371.51
 1269.99        2962.00           2314        3022.00     13160.20
 1270.02        2962.25           2317        3899.00     16987.14
 1270.05        2962.50           2321        5182.00     22587.52
 1270.08        2962.75           2324        6118.00     26674.57
 1270.11        2963.00           2328        7425.00     32383.50
 1270.14        2963.25           2331        8231.00     35905.18
 1270.17        2963.50           2335        9682.00     42247.22
 1270.20        2963.75           2339       11077.00     48347.07
 1270.23        2964.00           2342       12071.00     52695.03
 1270.27        2964.25           2346       13644.00     59578.28
 1270.30        2964.50           2349       14587.00     63706.28
 1270.33        2964.75           2353       15814.00     69079.23
 1270.36        2965.00           2356       17047.00     74480.45
 1270.39        2965.25           2360       18244.00     79725.85
 1270.42        2965.50           2363       19255.00     84157.63
 1270.45        2965.75           2367       20873.00     91253.05
 1270.48        2966.00           2370       21531.00     94139.55
 1270.51        2966.25           2374       23157.00    101274.90
 1270.54        2966.50           2378       23654.00    103456.60
 1270.57        2966.75           2381       23591.00    103180.00
 1270.60        2967.00           2385       23693.00    103627.80
 1270.63        2967.25           2388       23549.00    102995.60
 1270.66        2967.50           2392       23571.00    103092.20
 1270.69        2967.75           2395       23199.00    101459.20
 1270.72        2968.00           2399       22495.00     98369.43
 1270.75        2968.25           2402       21720.00     94968.75
 1270.79        2968.50           2406       20262.00     88573.22
 1270.82        2968.75           2409       19504.00     85249.34
 1270.85        2969.00           2413       18175.00     79423.43
 1270.88        2969.25           2417       16561.00     72351.27
 1270.91        2969.50           2420       15540.00     67879.24
 1270.94        2969.75           2424       14266.00     62300.97
 1270.97        2970.00           2427       13276.00     57967.67
 1271.00        2970.25           2431       11875.00     51837.58
 1271.03        2970.50           2434       10796.00     47118.14
 1271.06        2970.75           2438        9270.00     40446.17
 1271.09        2971.00           2441        8224.00     35874.60
 1271.12        2971.25           2445        6883.00     30015.80
 1271.15        2971.50           2449        5557.00     24224.83
 1271.18        2971.75           2452        4636.00     20203.94
 1271.21        2972.00           2456        3368.00     14669.91
 1271.24        2972.25           2459        2425.00     10555.66
 1271.27        2972.50           2463        1161.00      5042.71
 1271.31        2972.75           2466         474.00      2047.22
 1271.34        2973.00           2470         146.00       617.28
 1271.37        2973.25           2473         129.00       543.17
 1271.40        2973.50           2477          86.00       355.71
 1271.43        2973.75           2481          93.00       386.23
 1271.46        2974.00           2484          94.00       390.59
 1271.49        2974.25           2488          81.00       333.92
 1271.52        2974.50           2491          91.00       377.51
 1271.55        2974.75           2495          75.00       307.76
 1271.58        2975.00           2498          88.00       364.43
 1271.61        2975.25           2502          87.00       360.07
 1271.64        2975.50           2505          80.00       329.56
 1271.67        2975.75           2509          74.00       303.40
 1271.70        2976.00           2512          73.00       299.04
 1271.73        2976.25           2516          71.00       290.33
 1271.76        2976.50           2520          73.00       299.04
 1271.79        2976.75           2523          72.00       294.68
 1271.82        2977.00           2527          69.00       281.61
 1271.86        2977.25           2530          72.00       294.68
 1271.89        2977.50           2534          65.00       264.17
 1271.92        2977.75           2537          71.00       290.33
 1271.95        2978.00           2541          70.00       285.97
 1271.98        2978.25           2544          70.00       285.97
 1272.01        2978.50           2548          75.00       307.76
 1272.04        2978.75           2552          68.00       277.25
 1272.07        2979.00           2555          56.00       224.94
 1272.10        2979.25           2559          61.00       246.73
 1272.13        2979.50           2562          65.00       264.17
 1272.16        2979.75           2566          73.00       299.04
 1272.19        2980.00           2569          73.00       299.04
 1272.22        2980.25           2573          63.00       255.45
 1272.25        2980.50           2577          58.00       233.65
 1272.28        2980.75           2580          64.00       259.81
 1272.31        2981.00           2584          63.00       255.45
 1272.34        2981.25           2587          66.00       268.53
 1272.38        2981.50           2591          59.00       238.01
 1272.41        2981.75           2594          65.00       264.17
 1272.44        2982.00           2598          59.00       238.01
 1272.47        2982.25           2601          67.00       272.89
 1272.50        2982.50           2605          60.00       242.37
 1272.53        2982.75           2609          60.00       242.37
 1272.56        2983.00           2612          56.00       224.94
 1272.59        2983.25           2616          51.00       203.14
 1272.62        2983.50           2619          65.00       264.17
 1272.65        2983.75           2623          57.00       229.30
 1272.68        2984.00           2626          51.00       203.14
HS scan finished at 21:12:54
end
