************************************************************
  HS Scan of (1) Internal mercury lamp
************************************************************
Integration time is 0.2294 seconds per sample
dh260717Reading 51.44 .94 3.52pr1000
************************************************************
Dead Time -------------------------  3.4E-08 
Number of Cycles Used -------------  4 
Starting Wavelength (Angstroms) ---  2950 
Final Wavelength (Angstoms) -------  2984 
Wavelength Increment (Angstroms) --  .25 
Filter Wheel #1 Position ---------- (1) Ground quartz diffuser (ND=2.32)
Filter Wheel #2 Position ---------- (1) Neutral Density 0.494



************************************************************
HS scan start time = 01:36:44
Dark Count =  2.9 


Time (GMT)  Wavelength (Ang)  Step Number  Raw Counts  Counts/Second

   97.64        2950.00           2144         387.00      1674.46
   97.83        2950.25           2147         365.00      1578.55
   97.86        2950.50           2151         356.00      1539.31
   97.89        2950.75           2155         376.00      1626.51
   97.92        2951.00           2158         388.00      1678.82
   97.96        2951.25           2162         409.00      1770.38
   97.99        2951.50           2165         375.00      1622.15
   98.02        2951.75           2169         388.00      1678.82
   98.05        2952.00           2172         369.00      1595.99
   98.08        2952.25           2176         374.00      1617.79
   98.11        2952.50           2179         380.00      1643.95
   98.14        2952.75           2183         379.00      1639.59
   98.17        2953.00           2186         413.00      1787.82
   98.20        2953.25           2190         396.00      1713.70
   98.23        2953.50           2193         392.00      1696.26
   98.26        2953.75           2197         412.00      1783.46
   98.29        2954.00           2200         404.00      1748.58
   98.32        2954.25           2204         403.00      1744.22
   98.35        2954.50           2208         425.00      1840.13
   98.38        2954.75           2211         407.00      1761.66
   98.41        2955.00           2215         414.00      1792.18
   98.44        2955.25           2218         394.00      1704.98
   98.47        2955.50           2222         420.00      1818.33
   98.51        2955.75           2225         433.00      1875.01
   98.54        2956.00           2229         418.00      1809.61
   98.57        2956.25           2232         443.00      1918.61
   98.60        2956.50           2236         434.00      1879.37
   98.63        2956.75           2239         444.00      1922.97
   98.66        2957.00           2243         456.00      1975.29
   98.69        2957.25           2246         427.00      1848.85
   98.72        2957.50           2250         452.00      1957.85
   98.75        2957.75           2254         458.00      1984.00
   98.78        2958.00           2257         462.00      2001.44
   98.81        2958.25           2261         482.00      2088.64
   98.84        2958.50           2264         470.00      2036.32
   98.87        2958.75           2268         468.00      2027.60
   98.90        2959.00           2271         520.00      2254.31
   98.93        2959.25           2275         516.00      2236.87
   98.96        2959.50           2278         535.00      2319.71
   98.99        2959.75           2282         498.00      2158.40
   99.03        2960.00           2285         543.00      2354.59
   99.06        2960.25           2289         557.00      2415.63
   99.09        2960.50           2293         552.00      2393.83
   99.12        2960.75           2296         581.00      2520.27
   99.15        2961.00           2300         661.00      2869.07
   99.18        2961.25           2303        1026.00      4460.57
   99.21        2961.50           2307        3699.00     16120.87
   99.24        2961.75           2310        8237.00     35937.95
   99.27        2962.00           2314       16740.00     73142.00
   99.30        2962.25           2317       23896.00    104525.60
   99.33        2962.50           2321       32770.00    143537.10
   99.36        2962.75           2324       39120.00    171516.50
   99.39        2963.00           2328       48005.00    210755.50
   99.42        2963.25           2331       54607.00    239980.20
   99.45        2963.50           2335       63375.00    278883.40
   99.48        2963.75           2339       72423.00    319137.70
   99.51        2964.00           2342       79937.00    352651.70
   99.55        2964.25           2346       89957.00    397462.90
   99.58        2964.50           2349       97241.00    430124.60
   99.61        2964.75           2353      106317.00    470924.40
   99.64        2965.00           2356      112802.00    500146.70
   99.67        2965.25           2360      121760.00    540609.30
   99.70        2965.50           2363      128403.00    570688.00
   99.73        2965.75           2367      138105.00    614729.40
   99.76        2966.00           2370      144436.00    643540.50
   99.79        2966.25           2374      151099.00    673924.20
   99.82        2966.50           2378      156412.00    698197.30
   99.85        2966.75           2381      157925.00    705117.10
   99.88        2967.00           2385      158503.00    707761.50
   99.91        2967.25           2388      158423.00    707395.50
   99.94        2967.50           2392      158244.00    706576.50
   99.97        2967.75           2395      157232.00    701947.20
  100.00        2968.00           2399      152594.00    680750.20
  100.03        2968.25           2402      146757.00    654117.10
  100.07        2968.50           2406      139458.00    620881.80
  100.10        2968.75           2409      133522.00    593908.60
  100.13        2969.00           2413      125271.00    556499.00
  100.16        2969.25           2417      116436.00    516547.70
  100.19        2969.50           2420      108493.00    480723.20
  100.22        2969.75           2424       98872.00    437448.20
  100.25        2970.00           2427       91752.00    405504.90
  100.28        2970.25           2431       82048.00    362081.00
  100.31        2970.50           2434       75439.00    332580.50
  100.34        2970.75           2438       65793.00    289630.20
  100.37        2971.00           2441       58374.00    256681.50
  100.40        2971.25           2445       49573.00    217691.20
  100.43        2971.50           2449       40295.00    176699.60
  100.46        2971.75           2452       33323.00    145971.60
  100.49        2972.00           2456       24493.00    107146.80
  100.52        2972.25           2459       18219.00     79622.85
  100.55        2972.50           2463       10097.00     44068.16
  100.59        2972.75           2466        4891.00     21323.65
  100.62        2973.00           2470        1361.00      5921.42
  100.65        2973.25           2473         766.00      3326.88
  100.68        2973.50           2477         678.00      2943.19
  100.71        2973.75           2481         591.00      2563.87
  100.74        2974.00           2484         597.00      2590.03
  100.77        2974.25           2488         590.00      2559.51
  100.80        2974.50           2491         557.00      2415.63
  100.83        2974.75           2495         539.00      2337.15
  100.87        2975.00           2498         545.00      2363.31
  100.90        2975.25           2502         542.00      2350.23
  100.93        2975.50           2505         511.00      2215.08
  100.96        2975.75           2509         565.00      2450.51
  100.99        2976.00           2512         505.00      2188.92
  101.02        2976.25           2516         486.00      2106.08
  101.05        2976.50           2520         513.00      2223.79
  101.08        2976.75           2523         505.00      2188.92
  101.11        2977.00           2527         465.00      2014.52
  101.14        2977.25           2530         460.00      1992.72
  101.17        2977.50           2534         476.00      2062.48
  101.20        2977.75           2537         472.00      2045.04
  101.23        2978.00           2541         457.00      1979.65
  101.26        2978.25           2544         455.00      1970.93
  101.30        2978.50           2548         449.00      1944.77
  101.33        2978.75           2552         441.00      1909.89
  101.36        2979.00           2555         443.00      1918.61
  101.39        2979.25           2559         412.00      1783.46
  101.42        2979.50           2562         430.00      1861.93
  101.45        2979.75           2566         415.00      1796.54
  101.48        2980.00           2569         442.00      1914.25
  101.51        2980.25           2573         425.00      1840.13
  101.54        2980.50           2577         441.00      1909.89
  101.57        2980.75           2580         416.00      1800.90
  101.60        2981.00           2584         403.00      1744.22
  101.63        2981.25           2587         408.00      1766.02
  101.66        2981.50           2591         403.00      1744.22
  101.69        2981.75           2594         401.00      1735.50
  101.72        2982.00           2598         395.00      1709.34
  101.75        2982.25           2601         415.00      1796.54
  101.78        2982.50           2605         376.00      1626.51
  101.82        2982.75           2609         419.00      1813.97
  101.85        2983.00           2612         413.00      1787.82
  101.88        2983.25           2616         389.00      1683.18
  101.91        2983.50           2619         416.00      1800.90
  101.94        2983.75           2623         369.00      1595.99
  101.97        2984.00           2626         401.00      1735.50
HS scan finished at 01:42:11
end
************************************************************
  HS Scan of (1) Internal mercury lamp
************************************************************
Integration time is 0.2294 seconds per sample
dh260717Reading 51.44 .94 3.49pr1000
************************************************************
Dead Time -------------------------  3.4E-08 
Number of Cycles Used -------------  4 
Starting Wavelength (Angstroms) ---  2950 
Final Wavelength (Angstoms) -------  2984 
Wavelength Increment (Angstroms) --  .25 
Filter Wheel #1 Position ---------- (1) Ground quartz diffuser (ND=2.32)
Filter Wheel #2 Position ---------- (1) Neutral Density 0.494



************************************************************
HS scan start time = 21:07:27
Dark Count =  2.7 


Time (GMT)  Wavelength (Ang)  Step Number  Raw Counts  Counts/Second

 1268.36        2950.00           2144         337.00      1457.35
 1268.55        2950.25           2147         349.00      1509.67
 1268.58        2950.50           2151         344.00      1487.87
 1268.61        2950.75           2155         338.00      1461.71
 1268.64        2951.00           2158         364.00      1575.06
 1268.67        2951.25           2162         350.00      1514.03
 1268.70        2951.50           2165         356.00      1540.19
 1268.73        2951.75           2169         342.00      1479.15
 1268.76        2952.00           2172         361.00      1561.98
 1268.79        2952.25           2176         365.00      1579.42
 1268.82        2952.50           2179         361.00      1561.98
 1268.85        2952.75           2183         364.00      1575.06
 1268.89        2953.00           2186         360.00      1557.62
 1268.92        2953.25           2190         356.00      1540.19
 1268.95        2953.50           2193         378.00      1636.10
 1268.98        2953.75           2197         358.00      1548.90
 1269.01        2954.00           2200         392.00      1697.13
 1269.04        2954.25           2204         383.00      1657.90
 1269.07        2954.50           2208         387.00      1675.34
 1269.10        2954.75           2211         367.00      1588.14
 1269.13        2955.00           2215         378.00      1636.10
 1269.16        2955.25           2218         395.00      1710.21
 1269.19        2955.50           2222         397.00      1718.93
 1269.22        2955.75           2225         412.00      1784.33
 1269.25        2956.00           2229         374.00      1618.66
 1269.28        2956.25           2232         388.00      1679.70
 1269.31        2956.50           2236         416.00      1801.77
 1269.34        2956.75           2239         424.00      1836.64
 1269.37        2957.00           2243         407.00      1762.53
 1269.41        2957.25           2246         418.00      1810.49
 1269.44        2957.50           2250         442.00      1915.12
 1269.47        2957.75           2254         429.00      1858.44
 1269.50        2958.00           2257         433.00      1875.88
 1269.53        2958.25           2261         436.00      1888.96
 1269.56        2958.50           2264         434.00      1880.24
 1269.59        2958.75           2268         451.00      1954.36
 1269.62        2959.00           2271         473.00      2050.27
 1269.65        2959.25           2275         467.00      2024.11
 1269.68        2959.50           2278         473.00      2050.27
 1269.71        2959.75           2282         459.00      1989.24
 1269.74        2960.00           2285         493.00      2137.47
 1269.77        2960.25           2289         521.00      2259.55
 1269.80        2960.50           2293         527.00      2285.71
 1269.83        2960.75           2296         528.00      2290.07
 1269.86        2961.00           2300         636.00      2760.94
 1269.90        2961.25           2303        1108.00      4819.01
 1269.93        2961.50           2307        4126.00     17985.28
 1269.96        2961.75           2310        8481.00     37005.12
 1269.99        2962.00           2314       15615.00     68215.13
 1270.02        2962.25           2317       21187.00     92637.88
 1270.05        2962.50           2321       28925.00    126622.00
 1270.08        2962.75           2324       34732.00    152177.20
 1270.11        2963.00           2328       43011.00    188688.30
 1270.14        2963.25           2331       49961.00    219408.80
 1270.17        2963.50           2335       58661.00    257955.70
 1270.20        2963.75           2339       66913.00    294611.50
 1270.23        2964.00           2342       72991.00    321669.30
 1270.26        2964.25           2346       81665.00    360370.70
 1270.29        2964.50           2349       88231.00    389735.00
 1270.32        2964.75           2353       96750.00    427921.60
 1270.35        2965.00           2356      102896.00    455533.30
 1270.38        2965.25           2360      110566.00    490065.30
 1270.42        2965.50           2363      115886.00    514065.20
 1270.45        2965.75           2367      123776.00    549731.90
 1270.48        2966.00           2370      129831.00    577162.80
 1270.51        2966.25           2374      136312.00    606581.10
 1270.54        2966.50           2378      141515.00    630241.50
 1270.57        2966.75           2381      143344.00    638567.80
 1270.60        2967.00           2385      144109.00    642051.90
 1270.63        2967.25           2388      143948.00    641318.60
 1270.66        2967.50           2392      143578.00    639633.50
 1270.69        2967.75           2395      143385.00    638754.60
 1270.72        2968.00           2399      141617.00    630705.60
 1270.75        2968.25           2402      136841.00    608985.00
 1270.78        2968.50           2406      129259.00    574569.30
 1270.81        2968.75           2409      123054.00    546464.50
 1270.84        2969.00           2413      115139.00    510692.80
 1270.87        2969.25           2417      107232.00    475044.80
 1270.90        2969.50           2420      101263.00    448191.70
 1270.94        2969.75           2424       92257.00    407769.10
 1270.97        2970.00           2427       85889.00    379254.40
 1271.00        2970.25           2431       76860.00    338919.20
 1271.03        2970.50           2434       70951.00    312582.20
 1271.06        2970.75           2438       61692.00    271408.90
 1271.09        2971.00           2441       54583.00    239874.70
 1271.12        2971.25           2445       46465.00    203947.70
 1271.15        2971.50           2449       38359.00    168161.40
 1271.18        2971.75           2452       31834.00    139418.30
 1271.21        2972.00           2456       22867.00    100009.50
 1271.24        2972.25           2459       16801.00     73410.12
 1271.27        2972.50           2463        9561.00     41725.68
 1271.30        2972.75           2466        5120.00     22324.26
 1271.33        2973.00           2470        1625.00      7073.63
 1271.36        2973.25           2473         796.00      3458.56
 1271.39        2973.50           2477         590.00      2560.38
 1271.42        2973.75           2481         567.00      2460.10
 1271.46        2974.00           2484         574.00      2490.62
 1271.49        2974.25           2488         542.00      2351.10
 1271.52        2974.50           2491         569.00      2468.82
 1271.55        2974.75           2495         512.00      2220.31
 1271.58        2975.00           2498         521.00      2259.55
 1271.61        2975.25           2502         501.00      2172.35
 1271.64        2975.50           2505         529.00      2294.42
 1271.67        2975.75           2509         493.00      2137.47
 1271.70        2976.00           2512         463.00      2006.68
 1271.73        2976.25           2516         468.00      2028.47
 1271.76        2976.50           2520         463.00      2006.68
 1271.79        2976.75           2523         478.00      2072.07
 1271.82        2977.00           2527         432.00      1871.52
 1271.85        2977.25           2530         410.00      1775.61
 1271.88        2977.50           2534         413.00      1788.69
 1271.91        2977.75           2537         436.00      1888.96
 1271.94        2978.00           2541         436.00      1888.96
 1271.97        2978.25           2544         426.00      1845.36
 1272.01        2978.50           2548         422.00      1827.93
 1272.04        2978.75           2552         409.00      1771.25
 1272.07        2979.00           2555         409.00      1771.25
 1272.10        2979.25           2559         409.00      1771.25
 1272.13        2979.50           2562         393.00      1701.49
 1272.16        2979.75           2566         410.00      1775.61
 1272.19        2980.00           2569         399.00      1727.65
 1272.22        2980.25           2573         377.00      1631.74
 1272.25        2980.50           2577         425.00      1841.00
 1272.28        2980.75           2580         420.00      1819.21
 1272.31        2981.00           2584         389.00      1684.05
 1272.34        2981.25           2587         364.00      1575.06
 1272.37        2981.50           2591         393.00      1701.49
 1272.40        2981.75           2594         418.00      1810.49
 1272.43        2982.00           2598         408.00      1766.89
 1272.46        2982.25           2601         395.00      1710.21
 1272.49        2982.50           2605         363.00      1570.70
 1272.53        2982.75           2609         365.00      1579.42
 1272.56        2983.00           2612         366.00      1583.78
 1272.59        2983.25           2616         370.00      1601.22
 1272.62        2983.50           2619         356.00      1540.19
 1272.65        2983.75           2623         355.00      1535.83
 1272.68        2984.00           2626         385.00      1666.62
HS scan finished at 21:12:54
end
