************************************************************
  HS Scan of (1) Internal mercury lamp
************************************************************
Integration time is 0.2294 seconds per sample
dh210717Reading 51.44 .94 3.23pr1000
************************************************************
Dead Time -------------------------  3.4E-08 
Number of Cycles Used -------------  4 
Starting Wavelength (Angstroms) ---  2950 
Final Wavelength (Angstoms) -------  2984 
Wavelength Increment (Angstroms) --  .25 
Filter Wheel #1 Position ---------- (1) Ground quartz diffuser (ND=2.32)
Filter Wheel #2 Position ---------- (1) Neutral Density 0.494



************************************************************
HS scan start time = 01:14:25
Dark Count =  1.4 


Time (GMT)  Wavelength (Ang)  Step Number  Raw Counts  Counts/Second

   75.32        2950.00           2144         408.00      1772.56
   75.51        2950.25           2147         390.00      1694.08
   75.54        2950.50           2151         404.00      1755.12
   75.57        2950.75           2155         431.00      1872.83
   75.60        2951.00           2158         406.00      1763.84
   75.63        2951.25           2162         408.00      1772.56
   75.66        2951.50           2165         399.00      1733.32
   75.69        2951.75           2169         430.00      1868.47
   75.72        2952.00           2172         417.00      1811.79
   75.76        2952.25           2176         404.00      1755.12
   75.79        2952.50           2179         435.00      1890.27
   75.82        2952.75           2183         408.00      1772.56
   75.85        2953.00           2186         400.00      1737.68
   75.88        2953.25           2190         445.00      1933.87
   75.91        2953.50           2193         453.00      1968.75
   75.94        2953.75           2197         433.00      1881.55
   75.97        2954.00           2200         427.00      1855.39
   76.00        2954.25           2204         447.00      1942.59
   76.03        2954.50           2208         460.00      1999.26
   76.06        2954.75           2211         435.00      1890.27
   76.09        2955.00           2215         436.00      1894.63
   76.12        2955.25           2218         449.00      1951.31
   76.15        2955.50           2222         455.00      1977.47
   76.18        2955.75           2225         457.00      1986.18
   76.21        2956.00           2229         467.00      2029.78
   76.24        2956.25           2232         462.00      2007.98
   76.28        2956.50           2236         469.00      2038.50
   76.31        2956.75           2239         458.00      1990.54
   76.34        2957.00           2243         466.00      2025.42
   76.37        2957.25           2246         494.00      2147.50
   76.40        2957.50           2250         488.00      2121.34
   76.43        2957.75           2254         485.00      2108.26
   76.46        2958.00           2257         549.00      2387.29
   76.49        2958.25           2261         512.00      2225.97
   76.52        2958.50           2264         493.00      2143.14
   76.55        2958.75           2268         547.00      2378.57
   76.58        2959.00           2271         516.00      2243.41
   76.61        2959.25           2275         527.00      2291.37
   76.64        2959.50           2278         562.00      2443.97
   76.67        2959.75           2282         544.00      2365.49
   76.70        2960.00           2285         556.00      2417.81
   76.73        2960.25           2289         575.00      2500.65
   76.76        2960.50           2293         602.00      2618.37
   76.80        2960.75           2296         639.00      2779.69
   76.83        2961.00           2300         712.00      3097.97
   76.86        2961.25           2303        1155.00      5029.63
   76.89        2961.50           2307        4311.00     18798.41
   76.92        2961.75           2310        9428.00     41149.95
   76.95        2962.00           2314       18016.00     78739.72
   76.98        2962.25           2317       24616.00    107693.50
   77.01        2962.50           2321       33515.00    146823.60
   77.05        2962.75           2324       40173.00    176168.00
   77.09        2963.00           2328       50032.00    219728.70
   77.12        2963.25           2331       57621.00    253348.20
   77.15        2963.50           2335       67713.00    298175.90
   77.18        2963.75           2339       77051.00    339777.20
   77.21        2964.00           2342       83981.00    370727.30
   77.24        2964.25           2346       93758.00    414504.30
   77.27        2964.50           2349      100362.00    444148.50
   77.30        2964.75           2353      110464.00    489611.30
   77.33        2965.00           2356      117629.00    521942.70
   77.36        2965.25           2360      126300.00    561166.00
   77.39        2965.50           2363      132796.00    590620.00
   77.42        2965.75           2367      141297.00    629255.20
   77.45        2966.00           2370      148538.00    662245.10
   77.48        2966.25           2374      156916.00    700508.90
   77.51        2966.50           2378      162562.00    726352.10
   77.54        2966.75           2381      164308.00    734353.40
   77.57        2967.00           2385      165016.00    737599.10
   77.61        2967.25           2388      164686.00    736086.10
   77.64        2967.50           2392      165158.00    738250.10
   77.67        2967.75           2395      164393.00    734742.90
   77.70        2968.00           2399      162290.00    725106.10
   77.73        2968.25           2402      157770.00    704415.00
   77.76        2968.50           2406      149238.00    665438.30
   77.79        2968.75           2409      141661.00    630911.80
   77.82        2969.00           2413      132574.00    589612.40
   77.85        2969.25           2417      123047.00    546438.60
   77.88        2969.50           2420      115896.00    514116.20
   77.91        2969.75           2424      104901.00    464558.20
   77.94        2970.00           2427       96693.00    427671.60
   77.97        2970.25           2431       86405.00    381568.60
   78.00        2970.50           2434       79244.00    349564.20
   78.03        2970.75           2438       68987.00    303844.70
   78.06        2971.00           2441       61803.00    271907.60
   78.10        2971.25           2445       52582.00    231016.70
   78.13        2971.50           2449       43549.00    191069.90
   78.16        2971.75           2452       36551.00    160197.10
   78.19        2972.00           2456       27139.00    118776.90
   78.22        2972.25           2459       19560.00     85508.04
   78.25        2972.50           2463       10484.00     45766.89
   78.28        2972.75           2466        5302.00     23124.54
   78.31        2973.00           2470        1701.00      7410.76
   78.34        2973.25           2473         947.00      4122.64
   78.37        2973.50           2477         676.00      2941.01
   78.40        2973.75           2481         634.00      2757.89
   78.43        2974.00           2484         610.00      2653.25
   78.46        2974.25           2488         598.00      2600.93
   78.49        2974.50           2491         618.00      2688.13
   78.52        2974.75           2495         594.00      2583.49
   78.55        2975.00           2498         556.00      2417.81
   78.58        2975.25           2502         562.00      2443.97
   78.62        2975.50           2505         554.00      2409.09
   78.65        2975.75           2509         556.00      2417.81
   78.68        2976.00           2512         518.00      2252.13
   78.71        2976.25           2516         524.00      2278.29
   78.74        2976.50           2520         541.00      2352.41
   78.77        2976.75           2523         519.00      2256.49
   78.80        2977.00           2527         490.00      2130.06
   78.83        2977.25           2530         489.00      2125.70
   78.86        2977.50           2534         524.00      2278.29
   78.89        2977.75           2537         480.00      2086.46
   78.92        2978.00           2541         479.00      2082.10
   78.95        2978.25           2544         541.00      2352.41
   78.98        2978.50           2548         481.00      2090.82
   79.01        2978.75           2552         454.00      1973.11
   79.04        2979.00           2555         443.00      1925.15
   79.07        2979.25           2559         443.00      1925.15
   79.10        2979.50           2562         437.00      1898.99
   79.13        2979.75           2566         460.00      1999.26
   79.17        2980.00           2569         448.00      1946.95
   79.20        2980.25           2573         440.00      1912.07
   79.23        2980.50           2577         428.00      1859.75
   79.26        2980.75           2580         430.00      1868.47
   79.29        2981.00           2584         436.00      1894.63
   79.32        2981.25           2587         441.00      1916.43
   79.35        2981.50           2591         423.00      1837.95
   79.38        2981.75           2594         418.00      1816.15
   79.41        2982.00           2598         416.00      1807.43
   79.44        2982.25           2601         411.00      1785.64
   79.47        2982.50           2605         406.00      1763.84
   79.50        2982.75           2609         416.00      1807.43
   79.53        2983.00           2612         412.00      1790.00
   79.56        2983.25           2616         408.00      1772.56
   79.59        2983.50           2619         416.00      1807.43
   79.62        2983.75           2623         405.00      1759.48
   79.65        2984.00           2626         406.00      1763.84
HS scan finished at 01:19:53
end
************************************************************
  HS Scan of (1) Internal mercury lamp
************************************************************
Integration time is 0.2294 seconds per sample
dh210717Reading 51.44 .94 3.39pr1000
************************************************************
Dead Time -------------------------  3.4E-08 
Number of Cycles Used -------------  4 
Starting Wavelength (Angstroms) ---  2950 
Final Wavelength (Angstoms) -------  2984 
Wavelength Increment (Angstroms) --  .25 
Filter Wheel #1 Position ---------- (1) Ground quartz diffuser (ND=2.32)
Filter Wheel #2 Position ---------- (1) Neutral Density 0.494



************************************************************
HS scan start time = 21:07:24
Dark Count =  2.3 


Time (GMT)  Wavelength (Ang)  Step Number  Raw Counts  Counts/Second

 1268.30        2950.00           2144         346.00      1498.33
 1268.49        2950.25           2147         351.00      1520.13
 1268.52        2950.50           2151         375.00      1624.76
 1268.55        2950.75           2155         368.00      1594.25
 1268.58        2951.00           2158         371.00      1607.32
 1268.61        2951.25           2162         358.00      1550.65
 1268.64        2951.50           2165         353.00      1528.85
 1268.67        2951.75           2169         363.00      1572.45
 1268.71        2952.00           2172         360.00      1559.37
 1268.74        2952.25           2176         373.00      1616.04
 1268.77        2952.50           2179         390.00      1690.16
 1268.80        2952.75           2183         371.00      1607.32
 1268.83        2953.00           2186         378.00      1637.84
 1268.86        2953.25           2190         372.00      1611.68
 1268.89        2953.50           2193         421.00      1825.31
 1268.92        2953.75           2197         395.00      1711.96
 1268.95        2954.00           2200         390.00      1690.16
 1268.98        2954.25           2204         409.00      1772.99
 1269.01        2954.50           2208         402.00      1742.47
 1269.04        2954.75           2211         388.00      1681.44
 1269.07        2955.00           2215         403.00      1746.83
 1269.10        2955.25           2218         393.00      1703.24
 1269.13        2955.50           2222         417.00      1807.87
 1269.16        2955.75           2225         411.00      1781.71
 1269.19        2956.00           2229         426.00      1847.11
 1269.22        2956.25           2232         427.00      1851.47
 1269.26        2956.50           2236         424.00      1838.39
 1269.29        2956.75           2239         419.00      1816.59
 1269.32        2957.00           2243         426.00      1847.11
 1269.35        2957.25           2246         421.00      1825.31
 1269.38        2957.50           2250         438.00      1899.43
 1269.41        2957.75           2254         431.00      1868.91
 1269.44        2958.00           2257         462.00      2004.06
 1269.47        2958.25           2261         454.00      1969.18
 1269.50        2958.50           2264         465.00      2017.14
 1269.53        2958.75           2268         469.00      2034.58
 1269.56        2959.00           2271         456.00      1977.90
 1269.59        2959.25           2275         489.00      2121.78
 1269.62        2959.50           2278         494.00      2143.57
 1269.65        2959.75           2282         486.00      2108.70
 1269.68        2960.00           2285         513.00      2226.41
 1269.71        2960.25           2289         514.00      2230.77
 1269.74        2960.50           2293         528.00      2291.81
 1269.78        2960.75           2296         547.00      2374.65
 1269.81        2961.00           2300         605.00      2627.52
 1269.84        2961.25           2303         979.00      4258.25
 1269.87        2961.50           2307        3369.00     14683.44
 1269.90        2961.75           2310        7488.00     32667.91
 1269.93        2962.00           2314       14514.00     63395.88
 1269.96        2962.25           2317       20394.00     89161.34
 1269.99        2962.50           2321       28222.00    123533.00
 1270.02        2962.75           2324       34072.00    149272.30
 1270.05        2963.00           2328       42763.00    187595.10
 1270.08        2963.25           2331       49488.00    217317.80
 1270.11        2963.50           2335       57844.00    254333.30
 1270.14        2963.75           2339       65459.00    288147.90
 1270.17        2964.00           2342       72205.00    318169.20
 1270.20        2964.25           2346       80622.00    355713.50
 1270.23        2964.50           2349       87003.00    384240.40
 1270.27        2964.75           2353       95781.00    423574.80
 1270.30        2965.00           2356      101374.00    448692.40
 1270.33        2965.25           2360      109057.00    483266.70
 1270.36        2965.50           2363      115043.00    510261.40
 1270.39        2965.75           2367      123244.00    547326.10
 1270.42        2966.00           2370      128890.00    572898.30
 1270.45        2966.25           2374      135857.00    604515.70
 1270.48        2966.50           2378      140672.00    626407.10
 1270.51        2966.75           2381      142218.00    633443.10
 1270.54        2967.00           2385      142493.00    634695.00
 1270.57        2967.25           2388      142672.00    635509.90
 1270.60        2967.50           2392      142600.00    635182.10
 1270.63        2967.75           2395      142335.00    633975.70
 1270.66        2968.00           2399      140585.00    626011.30
 1270.69        2968.25           2402      135427.00    602562.30
 1270.72        2968.50           2406      127816.00    568030.40
 1270.75        2968.75           2409      122658.00    544674.50
 1270.78        2969.00           2413      115681.00    513141.50
 1270.82        2969.25           2417      108423.00    480410.60
 1270.85        2969.50           2420      102156.00    452207.80
 1270.88        2969.75           2424       93581.00    413706.60
 1270.91        2970.00           2427       87036.00    384388.10
 1270.94        2970.25           2431       78739.00    347305.90
 1270.97        2970.50           2434       72719.00    320459.20
 1271.00        2970.75           2438       63827.00    280894.40
 1271.03        2971.00           2441       56334.00    247637.30
 1271.06        2971.25           2445       47581.00    208883.20
 1271.09        2971.50           2449       38347.00    168110.30
 1271.12        2971.75           2452       31708.00    138865.50
 1271.15        2972.00           2456       23467.00    102644.90
 1271.18        2972.25           2459       17437.00     76198.46
 1271.21        2972.50           2463       10357.00     45207.62
 1271.24        2972.75           2466        5960.00     25993.76
 1271.27        2973.00           2470        2000.00      8710.95
 1271.30        2973.25           2473         938.00      4079.47
 1271.34        2973.50           2477         642.00      2788.84
 1271.37        2973.75           2481         564.00      2448.77
 1271.40        2974.00           2484         561.00      2435.69
 1271.43        2974.25           2488         547.00      2374.65
 1271.46        2974.50           2491         549.00      2383.37
 1271.49        2974.75           2495         496.00      2152.29
 1271.53        2975.00           2498         493.00      2139.21
 1271.56        2975.25           2502         507.00      2200.25
 1271.59        2975.50           2505         509.00      2208.97
 1271.62        2975.75           2509         497.00      2156.65
 1271.65        2976.00           2512         485.00      2104.34
 1271.68        2976.25           2516         481.00      2086.90
 1271.71        2976.50           2520         479.00      2078.18
 1271.74        2976.75           2523         456.00      1977.90
 1271.77        2977.00           2527         448.00      1943.02
 1271.80        2977.25           2530         442.00      1916.86
 1271.83        2977.50           2534         443.00      1921.22
 1271.86        2977.75           2537         427.00      1851.47
 1271.89        2978.00           2541         428.00      1855.83
 1271.92        2978.25           2544         406.00      1759.91
 1271.95        2978.50           2548         432.00      1873.27
 1271.98        2978.75           2552         431.00      1868.91
 1272.01        2979.00           2555         399.00      1729.40
 1272.05        2979.25           2559         408.00      1768.63
 1272.08        2979.50           2562         409.00      1772.99
 1272.11        2979.75           2566         390.00      1690.16
 1272.14        2980.00           2569         405.00      1755.55
 1272.17        2980.25           2573         386.00      1672.72
 1272.20        2980.50           2577         420.00      1820.95
 1272.23        2980.75           2580         415.00      1799.15
 1272.26        2981.00           2584         401.00      1738.12
 1272.29        2981.25           2587         402.00      1742.47
 1272.32        2981.50           2591         375.00      1624.76
 1272.35        2981.75           2594         390.00      1690.16
 1272.38        2982.00           2598         386.00      1672.72
 1272.41        2982.25           2601         377.00      1633.48
 1272.44        2982.50           2605         398.00      1725.04
 1272.47        2982.75           2609         403.00      1746.83
 1272.50        2983.00           2612         373.00      1616.04
 1272.53        2983.25           2616         350.00      1515.77
 1272.57        2983.50           2619         383.00      1659.64
 1272.60        2983.75           2623         367.00      1589.89
 1272.63        2984.00           2626         367.00      1589.89
HS scan finished at 21:12:51
end
