************************************************************
  HS Scan of (1) Internal mercury lamp
************************************************************
Integration time is 0.2294 seconds per sample
dh280718Reading 51.44 .94 3.62pr1000
************************************************************
Dead Time -------------------------  3.4E-08 
Number of Cycles Used -------------  4 
Starting Wavelength (Angstroms) ---  2950 
Final Wavelength (Angstoms) -------  2984 
Wavelength Increment (Angstroms) --  .25 
Filter Wheel #1 Position ---------- (1) Ground quartz diffuser (ND=2.32)
Filter Wheel #2 Position ---------- (1) Neutral Density 0.494



************************************************************
HS scan start time = 01:14:29
Dark Count =  3.5 


Time (GMT)  Wavelength (Ang)  Step Number  Raw Counts  Counts/Second

   75.38        2950.00           2144          61.00       250.66
   75.57        2950.25           2147          73.00       302.97
   75.60        2950.50           2151          72.00       298.61
   75.63        2950.75           2155          63.00       259.37
   75.66        2951.00           2158          75.00       311.69
   75.69        2951.25           2162          72.00       298.61
   75.72        2951.50           2165          69.00       285.53
   75.76        2951.75           2169          71.00       294.25
   75.79        2952.00           2172          67.00       276.81
   75.82        2952.25           2176          68.00       281.17
   75.85        2952.50           2179          74.00       307.33
   75.88        2952.75           2183          73.00       302.97
   75.91        2953.00           2186          70.00       289.89
   75.94        2953.25           2190          70.00       289.89
   75.97        2953.50           2193          77.00       320.40
   76.00        2953.75           2197          80.00       333.48
   76.03        2954.00           2200          70.00       289.89
   76.06        2954.25           2204          75.00       311.69
   76.09        2954.50           2208          74.00       307.33
   76.12        2954.75           2211          71.00       294.25
   76.15        2955.00           2215          71.00       294.25
   76.18        2955.25           2218          74.00       307.33
   76.21        2955.50           2222          67.00       276.81
   76.24        2955.75           2225          71.00       294.25
   76.28        2956.00           2229          70.00       289.89
   76.31        2956.25           2232          82.00       342.20
   76.34        2956.50           2236          79.00       329.12
   76.37        2956.75           2239          76.00       316.05
   76.40        2957.00           2243          71.00       294.25
   76.43        2957.25           2246          77.00       320.40
   76.46        2957.50           2250          81.00       337.84
   76.49        2957.75           2254          77.00       320.40
   76.52        2958.00           2257          84.00       350.92
   76.55        2958.25           2261          86.00       359.64
   76.58        2958.50           2264          89.00       372.72
   76.61        2958.75           2268          86.00       359.64
   76.64        2959.00           2271          81.00       337.84
   76.67        2959.25           2275          83.00       346.56
   76.70        2959.50           2278          90.00       377.08
   76.73        2959.75           2282          83.00       346.56
   76.76        2960.00           2285          91.00       381.43
   76.79        2960.25           2289          88.00       368.36
   76.83        2960.50           2293          93.00       390.15
   76.86        2960.75           2296         104.00       438.11
   76.89        2961.00           2300         158.00       673.51
   76.92        2961.25           2303         242.00      1039.71
   76.95        2961.50           2307         692.00      3001.61
   76.98        2961.75           2310        1474.00      6411.60
   77.01        2962.00           2314        3035.00     13220.85
   77.04        2962.25           2317        4250.00     18523.00
   77.07        2962.50           2321        5743.00     25040.93
   77.10        2962.75           2324        6867.00     29949.84
   77.13        2963.00           2328        8276.00     36105.76
   77.16        2963.25           2331        9332.00     40721.12
   77.19        2963.50           2335       10949.00     47791.20
   77.22        2963.75           2339       12521.00     54667.78
   77.25        2964.00           2342       13591.00     59350.25
   77.28        2964.25           2346       15275.00     66722.69
   77.31        2964.50           2349       16317.00     71286.35
   77.35        2964.75           2353       17988.00     78607.81
   77.38        2965.00           2356       19156.00     83727.55
   77.41        2965.25           2360       20499.00     89616.59
   77.44        2965.50           2363       21585.00     94380.41
   77.47        2965.75           2367       22949.00    100365.90
   77.50        2966.00           2370       24000.00    104979.50
   77.53        2966.25           2374       25573.00    111887.30
   77.56        2966.50           2378       26321.00    115173.30
   77.59        2966.75           2381       26402.00    115529.20
   77.62        2967.00           2385       26490.00    115915.90
   77.65        2967.25           2388       26685.00    116772.60
   77.68        2967.50           2392       26607.00    116429.90
   77.71        2967.75           2395       26202.00    114650.50
   77.74        2968.00           2399       25249.00    110464.20
   77.77        2968.25           2402       24182.00    105778.60
   77.80        2968.50           2406       22842.00     99896.27
   77.83        2968.75           2409       21762.00     95156.98
   77.87        2969.00           2413       20548.00     89831.49
   77.90        2969.25           2417       19249.00     84135.28
   77.93        2969.50           2420       17951.00     78445.66
   77.96        2969.75           2424       16520.00     72175.60
   77.99        2970.00           2427       15432.00     67410.21
   78.02        2970.25           2431       13921.00     60794.67
   78.05        2970.50           2434       12669.00     55315.35
   78.08        2970.75           2438       11085.00     48385.99
   78.11        2971.00           2441        9687.00     42273.01
   78.14        2971.25           2445        8172.00     35651.30
   78.17        2971.50           2449        6506.00     28373.04
   78.20        2971.75           2452        5346.00     23307.48
   78.23        2972.00           2456        3807.00     16589.57
   78.26        2972.25           2459        2779.00     12103.94
   78.29        2972.50           2463        1444.00      6280.77
   78.32        2972.75           2466         665.00      2883.89
   78.35        2973.00           2470         210.00       900.20
   78.39        2973.25           2473         147.00       625.56
   78.42        2973.50           2477         111.00       468.62
   78.45        2973.75           2481         116.00       490.42
   78.48        2974.00           2484         101.00       425.03
   78.51        2974.25           2488         104.00       438.11
   78.54        2974.50           2491         103.00       433.75
   78.57        2974.75           2495          93.00       390.15
   78.60        2975.00           2498          95.00       398.87
   78.63        2975.25           2502          90.00       377.08
   78.66        2975.50           2505          87.00       364.00
   78.69        2975.75           2509         100.00       420.67
   78.72        2976.00           2512          85.00       355.28
   78.75        2976.25           2516          88.00       368.36
   78.78        2976.50           2520          88.00       368.36
   78.81        2976.75           2523          81.00       337.84
   78.84        2977.00           2527          76.00       316.05
   78.87        2977.25           2530          78.00       324.76
   78.91        2977.50           2534          85.00       355.28
   78.94        2977.75           2537          81.00       337.84
   78.97        2978.00           2541          81.00       337.84
   79.00        2978.25           2544          84.00       350.92
   79.03        2978.50           2548          76.00       316.05
   79.06        2978.75           2552          72.00       298.61
   79.09        2979.00           2555          75.00       311.69
   79.12        2979.25           2559          72.00       298.61
   79.15        2979.50           2562          72.00       298.61
   79.18        2979.75           2566          73.00       302.97
   79.21        2980.00           2569          75.00       311.69
   79.24        2980.25           2573          74.00       307.33
   79.27        2980.50           2577          68.00       281.17
   79.30        2980.75           2580          72.00       298.61
   79.33        2981.00           2584          70.00       289.89
   79.36        2981.25           2587          64.00       263.73
   79.39        2981.50           2591          77.00       320.40
   79.43        2981.75           2594          74.00       307.33
   79.46        2982.00           2598          72.00       298.61
   79.49        2982.25           2601          73.00       302.97
   79.52        2982.50           2605          84.00       350.92
   79.55        2982.75           2609          67.00       276.81
   79.58        2983.00           2612          78.00       324.76
   79.61        2983.25           2616          71.00       294.25
   79.64        2983.50           2619          77.00       320.40
   79.67        2983.75           2623          74.00       307.33
   79.70        2984.00           2626          70.00       289.89
HS scan finished at 01:19:55
end
************************************************************
  HS Scan of (1) Internal mercury lamp
************************************************************
Integration time is 0.2294 seconds per sample
dh280718Reading 51.44 .94 3.41pr1000
************************************************************
Dead Time -------------------------  3.4E-08 
Number of Cycles Used -------------  4 
Starting Wavelength (Angstroms) ---  2950 
Final Wavelength (Angstoms) -------  2984 
Wavelength Increment (Angstroms) --  .25 
Filter Wheel #1 Position ---------- (1) Ground quartz diffuser (ND=2.32)
Filter Wheel #2 Position ---------- (1) Neutral Density 0.494



************************************************************
HS scan start time = 21:07:28
Dark Count =  2 


Time (GMT)  Wavelength (Ang)  Step Number  Raw Counts  Counts/Second

 1268.37        2950.00           2144          57.00       239.76
 1268.56        2950.25           2147          64.00       270.27
 1268.59        2950.50           2151          66.00       278.99
 1268.62        2950.75           2155          60.00       252.84
 1268.66        2951.00           2158          57.00       239.76
 1268.69        2951.25           2162          62.00       261.55
 1268.72        2951.50           2165          67.00       283.35
 1268.75        2951.75           2169          64.00       270.27
 1268.78        2952.00           2172          69.00       292.07
 1268.81        2952.25           2176          67.00       283.35
 1268.84        2952.50           2179          62.00       261.55
 1268.87        2952.75           2183          70.00       296.43
 1268.90        2953.00           2186          68.00       287.71
 1268.93        2953.25           2190          61.00       257.19
 1268.96        2953.50           2193          68.00       287.71
 1268.99        2953.75           2197          68.00       287.71
 1269.02        2954.00           2200          68.00       287.71
 1269.05        2954.25           2204          70.00       296.43
 1269.08        2954.50           2208          66.00       278.99
 1269.11        2954.75           2211          69.00       292.07
 1269.15        2955.00           2215          78.00       331.30
 1269.18        2955.25           2218          66.00       278.99
 1269.21        2955.50           2222          78.00       331.30
 1269.25        2955.75           2225          76.00       322.58
 1269.28        2956.00           2229          75.00       318.22
 1269.31        2956.25           2232          80.00       340.02
 1269.34        2956.50           2236          69.00       292.07
 1269.37        2956.75           2239          79.00       335.66
 1269.40        2957.00           2243          78.00       331.30
 1269.44        2957.25           2246          69.00       292.07
 1269.47        2957.50           2250          75.00       318.22
 1269.50        2957.75           2254          75.00       318.22
 1269.53        2958.00           2257          83.00       353.10
 1269.56        2958.25           2261          78.00       331.30
 1269.59        2958.50           2264          85.00       361.82
 1269.62        2958.75           2268          89.00       379.26
 1269.65        2959.00           2271          91.00       387.97
 1269.68        2959.25           2275          88.00       374.90
 1269.71        2959.50           2278         104.00       444.64
 1269.74        2959.75           2282          91.00       387.97
 1269.77        2960.00           2285          87.00       370.54
 1269.80        2960.25           2289          94.00       401.05
 1269.83        2960.50           2293         137.00       588.50
 1269.86        2960.75           2296         107.00       457.72
 1269.89        2961.00           2300         148.00       636.46
 1269.92        2961.25           2303         291.00      1259.86
 1269.96        2961.50           2307        1061.00      4617.12
 1269.99        2961.75           2310        2054.00      8947.80
 1270.02        2962.00           2314        3592.00     15657.85
 1270.05        2962.25           2317        4762.00     20764.44
 1270.08        2962.50           2321        6542.00     28536.83
 1270.11        2962.75           2324        7817.00     34106.66
 1270.14        2963.00           2328        9618.00     41977.92
 1270.17        2963.25           2331       10800.00     47146.14
 1270.20        2963.50           2335       12694.00     55431.32
 1270.23        2963.75           2339       14629.00     63900.67
 1270.26        2964.00           2342       16080.00     70254.81
 1270.29        2964.25           2346       18097.00     79092.09
 1270.32        2964.50           2349       19589.00     85632.56
 1270.35        2964.75           2353       21101.00     92263.69
 1270.38        2965.00           2356       22794.00     99692.19
 1270.41        2965.25           2360       25141.00    109996.50
 1270.44        2965.50           2363       26843.00    117473.50
 1270.48        2965.75           2367       28885.00    126449.20
 1270.51        2966.00           2370       30210.00    132276.20
 1270.54        2966.25           2374       32215.00    141098.10
 1270.57        2966.50           2378       33547.00    146961.80
 1270.60        2966.75           2381       34309.00    150317.30
 1270.63        2967.00           2385       34610.00    151643.00
 1270.66        2967.25           2388       35007.00    153391.60
 1270.69        2967.50           2392       35545.00    155761.70
 1270.72        2967.75           2395       35712.00    156497.50
 1270.75        2968.00           2399       35388.00    155070.00
 1270.78        2968.25           2402       34899.00    152915.90
 1270.81        2968.50           2406       33584.00    147124.70
 1270.84        2968.75           2409       32263.00    141309.40
 1270.87        2969.00           2413       30344.00    132865.60
 1270.90        2969.25           2417       28089.00    122949.70
 1270.93        2969.50           2420       26467.00    115821.40
 1270.96        2969.75           2424       24326.00    106417.50
 1271.00        2970.00           2427       22674.00     99165.52
 1271.03        2970.25           2431       20262.00     88583.75
 1271.06        2970.50           2434       18792.00     82138.40
 1271.09        2970.75           2438       16585.00     72466.91
 1271.12        2971.00           2441       14590.00     63729.92
 1271.15        2971.25           2445       12313.00     53764.28
 1271.18        2971.50           2449        9988.00     43595.53
 1271.21        2971.75           2452        8302.00     36225.93
 1271.24        2972.00           2456        6024.00     26274.55
 1271.27        2972.25           2459        4533.00     19764.80
 1271.30        2972.50           2463        2536.00     11050.36
 1271.33        2972.75           2466        1237.00      5384.60
 1271.36        2973.00           2470         307.00      1329.62
 1271.39        2973.25           2473         171.00       736.72
 1271.42        2973.50           2477         155.00       666.97
 1271.45        2973.75           2481         145.00       623.38
 1271.48        2974.00           2484         149.00       640.82
 1271.52        2974.25           2488         145.00       623.38
 1271.55        2974.50           2491         196.00       845.71
 1271.58        2974.75           2495         125.00       536.19
 1271.61        2975.00           2498         124.00       531.83
 1271.64        2975.25           2502         119.00       510.03
 1271.67        2975.50           2505         126.00       540.55
 1271.70        2975.75           2509         130.00       557.99
 1271.73        2976.00           2512         111.00       475.16
 1271.76        2976.25           2516         133.00       571.07
 1271.79        2976.50           2520         109.00       466.44
 1271.82        2976.75           2523         101.00       431.57
 1271.85        2977.00           2527         110.00       470.80
 1271.88        2977.25           2530         120.00       514.39
 1271.91        2977.50           2534          92.00       392.33
 1271.94        2977.75           2537          94.00       401.05
 1271.97        2978.00           2541         100.00       427.21
 1272.00        2978.25           2544         108.00       462.08
 1272.03        2978.50           2548         122.00       523.11
 1272.07        2978.75           2552         103.00       440.29
 1272.10        2979.00           2555          98.00       418.49
 1272.13        2979.25           2559         104.00       444.64
 1272.16        2979.50           2562          97.00       414.13
 1272.19        2979.75           2566          93.00       396.69
 1272.22        2980.00           2569         112.00       479.52
 1272.25        2980.25           2573         120.00       514.39
 1272.28        2980.50           2577          90.00       383.61
 1272.31        2980.75           2580          94.00       401.05
 1272.34        2981.00           2584          89.00       379.26
 1272.37        2981.25           2587          87.00       370.54
 1272.40        2981.50           2591          79.00       335.66
 1272.43        2981.75           2594          92.00       392.33
 1272.46        2982.00           2598          85.00       361.82
 1272.49        2982.25           2601          86.00       366.18
 1272.52        2982.50           2605          79.00       335.66
 1272.55        2982.75           2609          84.00       357.46
 1272.59        2983.00           2612          89.00       379.26
 1272.62        2983.25           2616          83.00       353.10
 1272.65        2983.50           2619          82.00       348.74
 1272.68        2983.75           2623          79.00       335.66
 1272.71        2984.00           2626          83.00       353.10
HS scan finished at 21:12:56
end
