************************************************************
  HS Scan of (1) Internal mercury lamp
************************************************************
Integration time is 0.2294 seconds per sample
dh250718Reading 51.44 .94 3.78pr1000
************************************************************
Dead Time -------------------------  3.4E-08 
Number of Cycles Used -------------  4 
Starting Wavelength (Angstroms) ---  2950 
Final Wavelength (Angstoms) -------  2984 
Wavelength Increment (Angstroms) --  .25 
Filter Wheel #1 Position ---------- (1) Ground quartz diffuser (ND=2.32)
Filter Wheel #2 Position ---------- (1) Neutral Density 0.494



************************************************************
HS scan start time = 02:39:11
Dark Count =  4.6 


Time (GMT)  Wavelength (Ang)  Step Number  Raw Counts  Counts/Second

  160.08        2950.00           2144          63.00       254.58
  160.27        2950.25           2147          59.00       237.14
  160.31        2950.50           2151          52.00       206.63
  160.34        2950.75           2155          56.00       224.06
  160.37        2951.00           2158          64.00       258.94
  160.40        2951.25           2162          61.00       245.86
  160.43        2951.50           2165          67.00       272.02
  160.46        2951.75           2169          60.00       241.50
  160.49        2952.00           2172          64.00       258.94
  160.52        2952.25           2176          55.00       219.71
  160.55        2952.50           2179          59.00       237.14
  160.58        2952.75           2183          60.00       241.50
  160.61        2953.00           2186          72.00       293.81
  160.64        2953.25           2190          63.00       254.58
  160.67        2953.50           2193          61.00       245.86
  160.70        2953.75           2197          66.00       267.66
  160.73        2954.00           2200          66.00       267.66
  160.76        2954.25           2204          75.00       306.89
  160.79        2954.50           2208          66.00       267.66
  160.83        2954.75           2211          70.00       285.09
  160.86        2955.00           2215          68.00       276.38
  160.89        2955.25           2218          60.00       241.50
  160.92        2955.50           2222          63.00       254.58
  160.95        2955.75           2225          69.00       280.74
  160.98        2956.00           2229          64.00       258.94
  161.01        2956.25           2232          71.00       289.45
  161.04        2956.50           2236          65.00       263.30
  161.07        2956.75           2239          70.00       285.09
  161.10        2957.00           2243          77.00       315.61
  161.13        2957.25           2246          73.00       298.17
  161.16        2957.50           2250          72.00       293.81
  161.19        2957.75           2254          77.00       315.61
  161.22        2958.00           2257          74.00       302.53
  161.25        2958.25           2261          76.00       311.25
  161.28        2958.50           2264          85.00       350.48
  161.31        2958.75           2268          69.00       280.74
  161.34        2959.00           2271          77.00       315.61
  161.38        2959.25           2275          82.00       337.41
  161.41        2959.50           2278          83.00       341.77
  161.44        2959.75           2282          95.00       394.08
  161.47        2960.00           2285          86.00       354.84
  161.50        2960.25           2289          94.00       389.72
  161.53        2960.50           2293          90.00       372.28
  161.56        2960.75           2296         102.00       424.59
  161.59        2961.00           2300         136.00       572.81
  161.62        2961.25           2303         294.00      1261.61
  161.65        2961.50           2307        1003.00      4352.87
  161.68        2961.75           2310        1797.00      7815.50
  161.71        2962.00           2314        3078.00     13403.67
  161.74        2962.25           2317        4066.00     17715.11
  161.77        2962.50           2321        5667.00     24704.26
  161.80        2962.75           2324        6807.00     29682.95
  161.83        2963.00           2328        8266.00     36057.26
  161.86        2963.25           2331        9441.00     41192.79
  161.90        2963.50           2335       10692.00     46662.47
  161.93        2963.75           2339       12204.00     53276.02
  161.96        2964.00           2342       13371.00     58382.56
  161.99        2964.25           2346       14824.00     64743.06
  162.02        2964.50           2349       15923.00     69555.76
  162.05        2964.75           2353       17436.00     76184.02
  162.08        2965.00           2356       18467.00     80702.40
  162.11        2965.25           2360       20249.00     88515.34
  162.14        2965.50           2363       21063.00     92085.59
  162.17        2965.75           2367       23749.00    103872.70
  162.20        2966.00           2370       24749.00    108263.50
  162.23        2966.25           2374       25969.00    113622.10
  162.26        2966.50           2378       26535.00    116108.70
  162.29        2966.75           2381       26709.00    116873.30
  162.32        2967.00           2385       26846.00    117475.30
  162.35        2967.25           2388       26805.00    117295.10
  162.38        2967.50           2392       26428.00    115638.60
  162.42        2967.75           2395       25847.00    113086.10
  162.45        2968.00           2399       25114.00    109866.50
  162.48        2968.25           2402       24003.00    104987.90
  162.51        2968.50           2406       22712.00     99320.88
  162.54        2968.75           2409       21384.00     93493.77
  162.57        2969.00           2413       20242.00     88484.64
  162.60        2969.25           2417       19143.00     83665.74
  162.63        2969.50           2420       17966.00     78506.58
  162.66        2969.75           2424       16372.00     71522.46
  162.69        2970.00           2427       15244.00     66582.13
  162.72        2970.25           2431       13732.00     59962.58
  162.75        2970.50           2434       12174.00     53144.77
  162.78        2970.75           2438       10417.00     45459.93
  162.81        2971.00           2441        9286.00     40515.23
  162.84        2971.25           2445        7804.00     34038.50
  162.87        2971.50           2449        6076.00     26490.28
  162.90        2971.75           2452        4953.00     21586.89
  162.94        2972.00           2456        3474.00     15131.58
  162.97        2972.25           2459        2499.00     10877.61
  163.00        2972.50           2463        1334.00      5796.26
  163.03        2972.75           2466         665.00      2879.10
  163.06        2973.00           2470         211.00       899.77
  163.09        2973.25           2473         132.00       555.37
  163.12        2973.50           2477         120.00       503.06
  163.15        2973.75           2481         100.00       415.87
  163.18        2974.00           2484         100.00       415.87
  163.21        2974.25           2488         100.00       415.87
  163.24        2974.50           2491          84.00       346.12
  163.27        2974.75           2495         100.00       415.87
  163.30        2975.00           2498          97.00       402.80
  163.33        2975.25           2502          90.00       372.28
  163.36        2975.50           2505          91.00       376.64
  163.39        2975.75           2509          86.00       354.84
  163.42        2976.00           2512         109.00       455.11
  163.46        2976.25           2516          83.00       341.77
  163.49        2976.50           2520          82.00       337.41
  163.52        2976.75           2523          76.00       311.25
  163.55        2977.00           2527          75.00       306.89
  163.58        2977.25           2530          71.00       289.45
  163.61        2977.50           2534          73.00       298.17
  163.64        2977.75           2537          72.00       293.81
  163.67        2978.00           2541          85.00       350.48
  163.70        2978.25           2544          77.00       315.61
  163.73        2978.50           2548          79.00       324.33
  163.76        2978.75           2552          71.00       289.45
  163.79        2979.00           2555          77.00       315.61
  163.82        2979.25           2559          73.00       298.17
  163.85        2979.50           2562          72.00       293.81
  163.88        2979.75           2566          65.00       263.30
  163.91        2980.00           2569          70.00       285.09
  163.94        2980.25           2573          67.00       272.02
  163.97        2980.50           2577          66.00       267.66
  164.01        2980.75           2580          70.00       285.09
  164.04        2981.00           2584          70.00       285.09
  164.07        2981.25           2587          74.00       302.53
  164.10        2981.50           2591          66.00       267.66
  164.13        2981.75           2594          61.00       245.86
  164.16        2982.00           2598          66.00       267.66
  164.19        2982.25           2601          63.00       254.58
  164.22        2982.50           2605          59.00       237.14
  164.25        2982.75           2609          70.00       285.09
  164.28        2983.00           2612          60.00       241.50
  164.31        2983.25           2616          63.00       254.58
  164.34        2983.50           2619          68.00       276.38
  164.37        2983.75           2623          54.00       215.35
  164.40        2984.00           2626          61.00       245.86
HS scan finished at 02:44:38
end
************************************************************
  HS Scan of (1) Internal mercury lamp
************************************************************
Integration time is 0.2294 seconds per sample
dh250718Reading 51.44 .94 4.09pr1000
************************************************************
Dead Time -------------------------  3.4E-08 
Number of Cycles Used -------------  4 
Starting Wavelength (Angstroms) ---  2950 
Final Wavelength (Angstoms) -------  2984 
Wavelength Increment (Angstroms) --  .25 
Filter Wheel #1 Position ---------- (1) Ground quartz diffuser (ND=2.32)
Filter Wheel #2 Position ---------- (1) Neutral Density 0.494



************************************************************
HS scan start time = 21:07:29
Dark Count =  12.1 


Time (GMT)  Wavelength (Ang)  Step Number  Raw Counts  Counts/Second

 1268.37        2950.00           2144          53.00       178.29
 1268.57        2950.25           2147          47.00       152.14
 1268.60        2950.50           2151          45.00       143.42
 1268.63        2950.75           2155          48.00       156.50
 1268.66        2951.00           2158          46.00       147.78
 1268.69        2951.25           2162          46.00       147.78
 1268.72        2951.50           2165          42.00       130.34
 1268.75        2951.75           2169          47.00       152.14
 1268.78        2952.00           2172          47.00       152.14
 1268.81        2952.25           2176          47.00       152.14
 1268.84        2952.50           2179          46.00       147.78
 1268.87        2952.75           2183          45.00       143.42
 1268.90        2953.00           2186          47.00       152.14
 1268.93        2953.25           2190          47.00       152.14
 1268.96        2953.50           2193          48.00       156.50
 1268.99        2953.75           2197          49.00       160.86
 1269.03        2954.00           2200          47.00       152.14
 1269.06        2954.25           2204          52.00       173.93
 1269.09        2954.50           2208          48.00       156.50
 1269.12        2954.75           2211          47.00       152.14
 1269.15        2955.00           2215          51.00       169.57
 1269.18        2955.25           2218          47.00       152.14
 1269.21        2955.50           2222          54.00       182.65
 1269.24        2955.75           2225          46.00       147.78
 1269.27        2956.00           2229          55.00       187.01
 1269.30        2956.25           2232          44.00       139.06
 1269.33        2956.50           2236          48.00       156.50
 1269.36        2956.75           2239          51.00       169.57
 1269.39        2957.00           2243          54.00       182.65
 1269.42        2957.25           2246          59.00       204.45
 1269.45        2957.50           2250          51.00       169.57
 1269.48        2957.75           2254          53.00       178.29
 1269.52        2958.00           2257          53.00       178.29
 1269.55        2958.25           2261          56.00       191.37
 1269.58        2958.50           2264          58.00       200.09
 1269.61        2958.75           2268          53.00       178.29
 1269.64        2959.00           2271          58.00       200.09
 1269.67        2959.25           2275          58.00       200.09
 1269.70        2959.50           2278          55.00       187.01
 1269.73        2959.75           2282          68.00       243.68
 1269.76        2960.00           2285          66.00       234.96
 1269.79        2960.25           2289          73.00       265.48
 1269.82        2960.50           2293          58.00       200.09
 1269.85        2960.75           2296          71.00       256.76
 1269.88        2961.00           2300          84.00       313.43
 1269.91        2961.25           2303         166.00       670.90
 1269.94        2961.50           2307         625.00      2672.00
 1269.97        2961.75           2310        1176.00      5074.55
 1270.00        2962.00           2314        1915.00      8297.46
 1270.03        2962.25           2317        2561.00     11115.36
 1270.07        2962.50           2321        3401.00     14780.31
 1270.10        2962.75           2324        4122.00     17926.79
 1270.13        2963.00           2328        5122.00     22291.96
 1270.16        2963.25           2331        5965.00     25972.80
 1270.19        2963.50           2335        6954.00     30292.30
 1270.22        2963.75           2339        7959.00     34682.99
 1270.25        2964.00           2342        8825.00     38467.46
 1270.28        2964.25           2346        9788.00     42676.97
 1270.31        2964.50           2349       10475.00     45680.75
 1270.34        2964.75           2353       11309.00     49328.09
 1270.37        2965.00           2356       11980.00     52263.24
 1270.40        2965.25           2360       13061.00     56993.08
 1270.43        2965.50           2363       13789.00     60179.24
 1270.46        2965.75           2367       14545.00     63488.69
 1270.49        2966.00           2370       15099.00     65914.35
 1270.52        2966.25           2374       15828.00     69106.82
 1270.55        2966.50           2378       16114.00     70359.49
 1270.59        2966.75           2381       16207.00     70766.85
 1270.62        2967.00           2385       16307.00     71204.87
 1270.65        2967.25           2388       16234.00     70885.11
 1270.68        2967.50           2392       16244.00     70928.91
 1270.71        2967.75           2395       15958.00     69676.21
 1270.74        2968.00           2399       15447.00     67438.24
 1270.77        2968.25           2402       14874.00     64929.15
 1270.80        2968.50           2406       13873.00     60546.93
 1270.83        2968.75           2409       13069.00     57028.08
 1270.86        2969.00           2413       12020.00     52438.23
 1270.89        2969.25           2417       11268.00     49148.76
 1270.92        2969.50           2420       10667.00     46520.35
 1270.95        2969.75           2424        9885.00     43101.05
 1270.98        2970.00           2427        9144.00     39861.75
 1271.01        2970.25           2431        8163.00     35574.39
 1271.04        2970.50           2434        7436.00     32397.92
 1271.07        2970.75           2438        6284.00     27365.91
 1271.11        2971.00           2441        5537.00     24103.88
 1271.14        2971.25           2445        4574.00     19899.69
 1271.17        2971.50           2449        3688.00     16032.71
 1271.20        2971.75           2452        3091.00     13427.66
 1271.23        2972.00           2456        2237.00      9701.98
 1271.26        2972.25           2459        1460.00      6313.04
 1271.29        2972.50           2463         730.00      3129.80
 1271.32        2972.75           2466         317.00      1329.18
 1271.35        2973.00           2470         116.00       452.93
 1271.38        2973.25           2473          83.00       309.07
 1271.41        2973.50           2477          80.00       295.99
 1271.44        2973.75           2481          70.00       252.40
 1271.47        2974.00           2484          64.00       226.24
 1271.50        2974.25           2488          69.00       248.04
 1271.53        2974.50           2491          69.00       248.04
 1271.58        2974.75           2495          64.00       226.24
 1271.61        2975.00           2498          59.00       204.45
 1271.64        2975.25           2502          63.00       221.88
 1271.67        2975.50           2505          57.00       195.73
 1271.70        2975.75           2509          59.00       204.45
 1271.73        2976.00           2512          58.00       200.09
 1271.76        2976.25           2516          55.00       187.01
 1271.79        2976.50           2520          56.00       191.37
 1271.82        2976.75           2523          59.00       204.45
 1271.85        2977.00           2527          61.00       213.17
 1271.89        2977.25           2530          52.00       173.93
 1271.92        2977.50           2534          66.00       234.96
 1271.95        2977.75           2537          58.00       200.09
 1271.98        2978.00           2541          48.00       156.50
 1272.01        2978.25           2544          52.00       173.93
 1272.04        2978.50           2548          56.00       191.37
 1272.07        2978.75           2552          53.00       178.29
 1272.10        2979.00           2555          54.00       182.65
 1272.13        2979.25           2559          51.00       169.57
 1272.16        2979.50           2562          55.00       187.01
 1272.19        2979.75           2566          55.00       187.01
 1272.22        2980.00           2569          45.00       143.42
 1272.25        2980.25           2573          49.00       160.86
 1272.28        2980.50           2577          51.00       169.57
 1272.31        2980.75           2580          51.00       169.57
 1272.34        2981.00           2584          52.00       173.93
 1272.38        2981.25           2587          45.00       143.42
 1272.41        2981.50           2591          56.00       191.37
 1272.44        2981.75           2594          45.00       143.42
 1272.47        2982.00           2598          55.00       187.01
 1272.50        2982.25           2601          54.00       182.65
 1272.53        2982.50           2605          49.00       160.86
 1272.56        2982.75           2609          50.00       165.21
 1272.59        2983.00           2612          47.00       152.14
 1272.62        2983.25           2616          48.00       156.50
 1272.65        2983.50           2619          49.00       160.86
 1272.68        2983.75           2623          46.00       147.78
 1272.71        2984.00           2626          52.00       173.93
HS scan finished at 21:12:56
end
