************************************************************
  HS Scan of (1) Internal mercury lamp
************************************************************
Integration time is 0.2294 seconds per sample
dh260718Reading 51.44 .94 3.74pr1000
************************************************************
Dead Time -------------------------  3.4E-08 
Number of Cycles Used -------------  4 
Starting Wavelength (Angstroms) ---  2950 
Final Wavelength (Angstoms) -------  2984 
Wavelength Increment (Angstroms) --  .25 
Filter Wheel #1 Position ---------- (1) Ground quartz diffuser (ND=2.32)
Filter Wheel #2 Position ---------- (1) Neutral Density 0.494



************************************************************
HS scan start time = 01:36:35
Dark Count =  4.4 


Time (GMT)  Wavelength (Ang)  Step Number  Raw Counts  Counts/Second

   97.48        2950.00           2144          61.00       246.73
   97.68        2950.25           2147          59.00       238.01
   97.71        2950.50           2151          59.00       238.01
   97.74        2950.75           2155          74.00       303.40
   97.77        2951.00           2158          67.00       272.89
   97.80        2951.25           2162          69.00       281.61
   97.83        2951.50           2165          63.00       255.45
   97.86        2951.75           2169          62.00       251.09
   97.89        2952.00           2172          66.00       268.53
   97.92        2952.25           2176          63.00       255.45
   97.95        2952.50           2179          65.00       264.17
   97.98        2952.75           2183          70.00       285.97
   98.01        2953.00           2186          70.00       285.97
   98.04        2953.25           2190          72.00       294.68
   98.07        2953.50           2193          63.00       255.45
   98.10        2953.75           2197          70.00       285.97
   98.13        2954.00           2200          74.00       303.40
   98.17        2954.25           2204          64.00       259.81
   98.20        2954.50           2208          72.00       294.68
   98.23        2954.75           2211          68.00       277.25
   98.26        2955.00           2215          71.00       290.33
   98.29        2955.25           2218          74.00       303.40
   98.32        2955.50           2222          76.00       312.12
   98.35        2955.75           2225          69.00       281.61
   98.38        2956.00           2229          65.00       264.17
   98.41        2956.25           2232          70.00       285.97
   98.44        2956.50           2236          81.00       333.92
   98.47        2956.75           2239          86.00       355.71
   98.50        2957.00           2243          79.00       325.20
   98.53        2957.25           2246          77.00       316.48
   98.56        2957.50           2250          81.00       333.92
   98.59        2957.75           2254          79.00       325.20
   98.62        2958.00           2257          84.00       347.00
   98.65        2958.25           2261          84.00       347.00
   98.69        2958.50           2264          80.00       329.56
   98.72        2958.75           2268          87.00       360.07
   98.75        2959.00           2271          95.00       394.95
   98.78        2959.25           2275          88.00       364.43
   98.81        2959.50           2278          91.00       377.51
   98.84        2959.75           2282         102.00       425.46
   98.88        2960.00           2285         114.00       477.78
   98.91        2960.25           2289          92.00       381.87
   98.94        2960.50           2293          99.00       412.39
   98.97        2960.75           2296         107.00       447.26
   99.00        2961.00           2300         142.00       599.84
   99.03        2961.25           2303         314.00      1349.67
   99.07        2961.50           2307        1124.00      4881.37
   99.10        2961.75           2310        2096.00      9120.53
   99.13        2962.00           2314        3670.00     15987.77
   99.16        2962.25           2317        4905.00     21378.22
   99.19        2962.50           2321        6528.00     28465.20
   99.22        2962.75           2324        7680.00     33497.59
   99.25        2963.00           2328        9431.00     41149.95
   99.28        2963.25           2331       10794.00     47109.40
   99.31        2963.50           2335       12785.00     55819.00
   99.34        2963.75           2339       14374.00     62773.77
   99.37        2964.00           2342       15641.00     68321.56
   99.40        2964.25           2346       17311.00     75637.16
   99.43        2964.50           2349       18770.00     82031.43
   99.46        2964.75           2353       20487.00     89560.02
   99.49        2965.00           2356       21605.00     94464.21
   99.52        2965.25           2360       23062.00    100857.90
   99.56        2965.50           2363       24387.00    106674.80
   99.59        2965.75           2367       26106.00    114224.80
   99.62        2966.00           2370       27181.00    118948.30
   99.65        2966.25           2374       28267.00    123721.60
   99.68        2966.50           2378       28669.00    125488.90
   99.71        2966.75           2381       28853.00    126297.90
   99.74        2967.00           2385       28941.00    126684.90
   99.77        2967.25           2388       28997.00    126931.10
   99.80        2967.50           2392       28786.00    126003.40
   99.83        2967.75           2395       28274.00    123752.40
   99.86        2968.00           2399       27200.00    119031.80
   99.89        2968.25           2402       26155.00    114440.10
   99.92        2968.50           2406       24568.00    107469.60
   99.95        2968.75           2409       23276.00    101797.20
   99.98        2969.00           2413       21553.00     94236.06
  100.01        2969.25           2417       20077.00     87761.92
  100.04        2969.50           2420       18726.00     81838.56
  100.07        2969.75           2424       16975.00     74164.98
  100.11        2970.00           2427       15726.00     68693.81
  100.14        2970.25           2431       14154.00     61810.67
  100.17        2970.50           2434       13007.00     56790.46
  100.20        2970.75           2438       11204.00     48902.52
  100.23        2971.00           2441        9789.00     42715.00
  100.26        2971.25           2445        7993.00     34865.20
  100.29        2971.50           2449        6281.00     27386.43
  100.32        2971.75           2452        5066.00     22081.09
  100.35        2972.00           2456        3710.00     16162.32
  100.38        2972.25           2459        2611.00     11367.08
  100.41        2972.50           2463        1169.00      5077.60
  100.44        2972.75           2466         500.00      2160.58
  100.47        2973.00           2470         170.00       721.90
  100.50        2973.25           2473         148.00       625.99
  100.53        2973.50           2477         125.00       525.73
  100.56        2973.75           2481         106.00       442.90
  100.59        2974.00           2484          98.00       408.03
  100.63        2974.25           2488          94.00       390.59
  100.66        2974.50           2491         101.00       421.10
  100.69        2974.75           2495         100.00       416.75
  100.72        2975.00           2498         102.00       425.46
  100.75        2975.25           2502         110.00       460.34
  100.78        2975.50           2505          98.00       408.03
  100.81        2975.75           2509          90.00       373.15
  100.84        2976.00           2512          87.00       360.07
  100.87        2976.25           2516          87.00       360.07
  100.90        2976.50           2520          94.00       390.59
  100.93        2976.75           2523          79.00       325.20
  100.96        2977.00           2527          85.00       351.36
  100.99        2977.25           2530          79.00       325.20
  101.02        2977.50           2534          85.00       351.36
  101.05        2977.75           2537          81.00       333.92
  101.08        2978.00           2541          80.00       329.56
  101.12        2978.25           2544          79.00       325.20
  101.15        2978.50           2548          82.00       338.28
  101.18        2978.75           2552          76.00       312.12
  101.21        2979.00           2555          91.00       377.51
  101.24        2979.25           2559          77.00       316.48
  101.27        2979.50           2562          79.00       325.20
  101.30        2979.75           2566          76.00       312.12
  101.33        2980.00           2569          82.00       338.28
  101.36        2980.25           2573          71.00       290.33
  101.39        2980.50           2577          73.00       299.04
  101.42        2980.75           2580          78.00       320.84
  101.45        2981.00           2584          74.00       303.40
  101.48        2981.25           2587          80.00       329.56
  101.51        2981.50           2591          74.00       303.40
  101.54        2981.75           2594          73.00       299.04
  101.58        2982.00           2598          71.00       290.33
  101.61        2982.25           2601          72.00       294.68
  101.64        2982.50           2605          74.00       303.40
  101.67        2982.75           2609          75.00       307.76
  101.70        2983.00           2612          65.00       264.17
  101.73        2983.25           2616          67.00       272.89
  101.76        2983.50           2619          63.00       255.45
  101.79        2983.75           2623          71.00       290.33
  101.82        2984.00           2626          71.00       290.33
HS scan finished at 01:42:03
end
************************************************************
  HS Scan of (1) Internal mercury lamp
************************************************************
Integration time is 0.2294 seconds per sample
dh260718Reading 51.44 .94 4.15pr1000
************************************************************
Dead Time -------------------------  3.4E-08 
Number of Cycles Used -------------  4 
Starting Wavelength (Angstroms) ---  2950 
Final Wavelength (Angstoms) -------  2984 
Wavelength Increment (Angstroms) --  .25 
Filter Wheel #1 Position ---------- (1) Ground quartz diffuser (ND=2.32)
Filter Wheel #2 Position ---------- (1) Neutral Density 0.494



************************************************************
HS scan start time = 21:07:30
Dark Count =  12.1 


Time (GMT)  Wavelength (Ang)  Step Number  Raw Counts  Counts/Second

 1268.39        2950.00           2144          44.00       139.06
 1268.58        2950.25           2147          38.00       112.90
 1268.61        2950.50           2151          42.00       130.34
 1268.64        2950.75           2155          47.00       152.14
 1268.68        2951.00           2158          48.00       156.50
 1268.71        2951.25           2162          42.00       130.34
 1268.74        2951.50           2165          51.00       169.57
 1268.77        2951.75           2169          49.00       160.86
 1268.80        2952.00           2172          38.00       112.90
 1268.83        2952.25           2176          48.00       156.50
 1268.86        2952.50           2179          49.00       160.86
 1268.89        2952.75           2183          48.00       156.50
 1268.92        2953.00           2186          47.00       152.14
 1268.95        2953.25           2190          50.00       165.21
 1268.98        2953.50           2193          49.00       160.86
 1269.01        2953.75           2197          48.00       156.50
 1269.04        2954.00           2200          50.00       165.21
 1269.07        2954.25           2204          53.00       178.29
 1269.10        2954.50           2208          46.00       147.78
 1269.13        2954.75           2211          47.00       152.14
 1269.17        2955.00           2215          48.00       156.50
 1269.20        2955.25           2218          47.00       152.14
 1269.23        2955.50           2222          48.00       156.50
 1269.26        2955.75           2225          49.00       160.86
 1269.29        2956.00           2229          47.00       152.14
 1269.32        2956.25           2232          53.00       178.29
 1269.35        2956.50           2236          51.00       169.57
 1269.38        2956.75           2239          55.00       187.01
 1269.41        2957.00           2243          55.00       187.01
 1269.44        2957.25           2246          54.00       182.65
 1269.47        2957.50           2250          58.00       200.09
 1269.50        2957.75           2254          58.00       200.09
 1269.53        2958.00           2257          57.00       195.73
 1269.56        2958.25           2261          56.00       191.37
 1269.59        2958.50           2264          56.00       191.37
 1269.62        2958.75           2268          57.00       195.73
 1269.65        2959.00           2271          57.00       195.73
 1269.69        2959.25           2275          66.00       234.96
 1269.72        2959.50           2278          60.00       208.81
 1269.75        2959.75           2282          62.00       217.53
 1269.78        2960.00           2285          61.00       213.17
 1269.81        2960.25           2289          65.00       230.60
 1269.84        2960.50           2293          66.00       234.96
 1269.87        2960.75           2296          64.00       226.24
 1269.90        2961.00           2300          84.00       313.43
 1269.93        2961.25           2303         193.00       788.60
 1269.96        2961.50           2307         606.00      2589.16
 1269.99        2961.75           2310        1071.00      4616.68
 1270.02        2962.00           2314        1936.00      8389.05
 1270.05        2962.25           2317        2762.00     11992.25
 1270.08        2962.50           2321        3633.00     15792.70
 1270.11        2962.75           2324        4323.00     18804.09
 1270.14        2963.00           2328        5171.00     22505.88
 1270.17        2963.25           2331        5832.00     25392.01
 1270.21        2963.50           2335        6952.00     30283.57
 1270.24        2963.75           2339        7882.00     34346.54
 1270.27        2964.00           2342        8660.00     37746.33
 1270.30        2964.25           2346        9590.00     41811.36
 1270.33        2964.50           2349       10281.00     44832.46
 1270.36        2964.75           2353       11383.00     49651.76
 1270.39        2965.00           2356       12074.00     52674.47
 1270.42        2965.25           2360       13081.00     57080.60
 1270.45        2965.50           2363       13686.00     59728.42
 1270.48        2965.75           2367       14636.00     63887.10
 1270.51        2966.00           2370       15369.00     67096.68
 1270.54        2966.25           2374       16169.00     70600.40
 1270.57        2966.50           2378       16465.00     71897.00
 1270.60        2966.75           2381       16532.00     72190.49
 1270.63        2967.00           2385       16537.00     72212.40
 1270.66        2967.25           2388       16584.00     72418.28
 1270.69        2967.50           2392       16459.00     71870.71
 1270.73        2967.75           2395       16346.00     71375.71
 1270.76        2968.00           2399       15584.00     68038.21
 1270.79        2968.25           2402       15132.00     66058.85
 1270.82        2968.50           2406       14172.00     61855.76
 1270.85        2968.75           2409       13521.00     59006.23
 1270.88        2969.00           2413       12570.00     54844.55
 1270.91        2969.25           2417       11713.00     51095.24
 1270.94        2969.50           2420       11053.00     48208.43
 1270.97        2969.75           2424       10160.00     44303.39
 1271.00        2970.00           2427        9363.00     40819.04
 1271.03        2970.25           2431        8124.00     35403.97
 1271.06        2970.50           2434        7409.00     32279.96
 1271.09        2970.75           2438        6522.00     28405.36
 1271.12        2971.00           2441        5804.00     25269.74
 1271.15        2971.25           2445        4803.00     20899.33
 1271.18        2971.50           2449        3748.00     16294.55
 1271.21        2971.75           2452        3114.00     13528.02
 1271.25        2972.00           2456        2129.00      9230.88
 1271.28        2972.25           2459        1468.00      6347.93
 1271.31        2972.50           2463         724.00      3103.64
 1271.34        2972.75           2466         333.00      1398.93
 1271.37        2973.00           2470         132.00       522.68
 1271.40        2973.25           2473          94.00       357.02
 1271.43        2973.50           2477          73.00       265.48
 1271.46        2973.75           2481          74.00       269.84
 1271.49        2974.00           2484          77.00       282.91
 1271.52        2974.25           2488          66.00       234.96
 1271.55        2974.50           2491          66.00       234.96
 1271.58        2974.75           2495          65.00       230.60
 1271.61        2975.00           2498          62.00       217.53
 1271.64        2975.25           2502          63.00       221.88
 1271.67        2975.50           2505          63.00       221.88
 1271.70        2975.75           2509          60.00       208.81
 1271.73        2976.00           2512          59.00       204.45
 1271.76        2976.25           2516          60.00       208.81
 1271.80        2976.50           2520          58.00       200.09
 1271.83        2976.75           2523          60.00       208.81
 1271.86        2977.00           2527          44.00       139.06
 1271.89        2977.25           2530          53.00       178.29
 1271.92        2977.50           2534          55.00       187.01
 1271.95        2977.75           2537          65.00       230.60
 1271.98        2978.00           2541          59.00       204.45
 1272.01        2978.25           2544          57.00       195.73
 1272.04        2978.50           2548          51.00       169.57
 1272.07        2978.75           2552          61.00       213.17
 1272.10        2979.00           2555          54.00       182.65
 1272.14        2979.25           2559          51.00       169.57
 1272.18        2979.50           2562          52.00       173.93
 1272.21        2979.75           2566          52.00       173.93
 1272.24        2980.00           2569          54.00       182.65
 1272.27        2980.25           2573          49.00       160.86
 1272.30        2980.50           2577          61.00       213.17
 1272.33        2980.75           2580          54.00       182.65
 1272.36        2981.00           2584          49.00       160.86
 1272.39        2981.25           2587          49.00       160.86
 1272.42        2981.50           2591          48.00       156.50
 1272.45        2981.75           2594          47.00       152.14
 1272.48        2982.00           2598          51.00       169.57
 1272.51        2982.25           2601          51.00       169.57
 1272.54        2982.50           2605          48.00       156.50
 1272.58        2982.75           2609          51.00       169.57
 1272.61        2983.00           2612          51.00       169.57
 1272.64        2983.25           2616          48.00       156.50
 1272.67        2983.50           2619          46.00       147.78
 1272.70        2983.75           2623          51.00       169.57
 1272.73        2984.00           2626          50.00       165.21
HS scan finished at 21:12:57
end
