************************************************************
  HS Scan of (1) Internal mercury lamp
************************************************************
Integration time is 0.2294 seconds per sample
dh300718Reading 51.44 .94 3.64pr1000
************************************************************
Dead Time -------------------------  3.4E-08 
Number of Cycles Used -------------  4 
Starting Wavelength (Angstroms) ---  2950 
Final Wavelength (Angstoms) -------  2984 
Wavelength Increment (Angstroms) --  .25 
Filter Wheel #1 Position ---------- (1) Ground quartz diffuser (ND=2.32)
Filter Wheel #2 Position ---------- (1) Neutral Density 0.494



************************************************************
HS scan start time = 01:22:28
Dark Count =  3.3 


Time (GMT)  Wavelength (Ang)  Step Number  Raw Counts  Counts/Second

   83.37        2950.00           2144          98.00       412.82
   83.57        2950.25           2147          85.00       356.15
   83.60        2950.50           2151          87.00       364.87
   83.63        2950.75           2155          89.00       373.59
   83.66        2951.00           2158          88.00       369.23
   83.69        2951.25           2162          91.00       382.31
   83.72        2951.50           2165          91.00       382.31
   83.75        2951.75           2169          93.00       391.03
   83.78        2952.00           2172         119.00       504.37
   83.81        2952.25           2176          92.00       386.67
   83.84        2952.50           2179          96.00       404.10
   83.87        2952.75           2183          97.00       408.46
   83.90        2953.00           2186          91.00       382.31
   83.93        2953.25           2190          93.00       391.03
   83.97        2953.50           2193          96.00       404.10
   84.00        2953.75           2197          95.00       399.74
   84.03        2954.00           2200          95.00       399.74
   84.06        2954.25           2204          93.00       391.03
   84.09        2954.50           2208          95.00       399.74
   84.12        2954.75           2211         116.00       491.29
   84.15        2955.00           2215         109.00       460.77
   84.18        2955.25           2218          92.00       386.67
   84.21        2955.50           2222         105.00       443.34
   84.24        2955.75           2225         102.00       430.26
   84.27        2956.00           2229         106.00       447.70
   84.30        2956.25           2232         125.00       530.52
   84.33        2956.50           2236         108.00       456.42
   84.36        2956.75           2239         100.00       421.54
   84.39        2957.00           2243         136.00       578.48
   84.42        2957.25           2246         105.00       443.34
   84.45        2957.50           2250         103.00       434.62
   84.49        2957.75           2254         131.00       556.68
   84.52        2958.00           2257         119.00       504.37
   84.55        2958.25           2261         110.00       465.13
   84.58        2958.50           2264         133.00       565.40
   84.61        2958.75           2268         162.00       691.82
   84.64        2959.00           2271         141.00       600.27
   84.67        2959.25           2275         119.00       504.37
   84.70        2959.50           2278         157.00       670.02
   84.73        2959.75           2282         135.00       574.12
   84.76        2960.00           2285         140.00       595.91
   84.79        2960.25           2289         167.00       713.62
   84.82        2960.50           2293         154.00       656.95
   84.85        2960.75           2296         154.00       656.95
   84.88        2961.00           2300         201.00       861.84
   84.91        2961.25           2303         477.00      2065.10
   84.94        2961.50           2307        1635.00      7114.62
   84.97        2961.75           2310        3195.00     13919.84
   85.01        2962.00           2314        5375.00     23434.97
   85.04        2962.25           2317        7126.00     31082.09
   85.07        2962.50           2321        9427.00     41137.27
   85.10        2962.75           2324       11338.00     49493.42
   85.13        2963.00           2328       14062.00     61412.76
   85.16        2963.25           2331       15963.00     69736.65
   85.19        2963.50           2335       18330.00     80107.60
   85.22        2963.75           2339       20845.00     91135.05
   85.25        2964.00           2342       22725.00     99383.63
   85.28        2964.25           2346       25519.00    111651.00
   85.31        2964.50           2349       27643.00    120983.60
   85.34        2964.75           2353       30028.00    131470.00
   85.37        2965.00           2356       31371.00    137378.20
   85.40        2965.25           2360       34033.00    149096.10
   85.43        2965.50           2363       35822.00    156976.40
   85.46        2965.75           2367       38303.00    167911.90
   85.49        2966.00           2370       40063.00    175674.30
   85.52        2966.25           2374       41955.00    184023.60
   85.56        2966.50           2378       44655.00    195946.70
   85.59        2966.75           2381       43881.00    192527.70
   85.62        2967.00           2385       43938.00    192779.50
   85.65        2967.25           2388       43703.00    191741.60
   85.68        2967.50           2392       43608.00    191322.00
   85.71        2967.75           2395       43705.00    191750.40
   85.74        2968.00           2399       42565.00    186716.50
   85.77        2968.25           2402       41000.00    179808.60
   85.80        2968.50           2406       38385.00    168273.40
   85.83        2968.75           2409       36642.00    160589.80
   85.86        2969.00           2413       34324.00    150377.60
   85.89        2969.25           2417       31999.00    140141.80
   85.92        2969.50           2420       29794.00    130440.80
   85.95        2969.75           2424       27161.00    118865.20
   85.98        2970.00           2427       25453.00    111361.10
   86.01        2970.25           2431       22897.00    100138.50
   86.04        2970.50           2434       20691.00     90459.58
   86.08        2970.75           2438       18007.00     78691.95
   86.11        2971.00           2441       15807.00     69053.40
   86.14        2971.25           2445       13215.00     57705.53
   86.17        2971.50           2449       10689.00     46655.03
   86.20        2971.75           2452        8621.00     37614.34
   86.23        2972.00           2456        6155.00     26840.96
   86.26        2972.25           2459        4373.00     19060.74
   86.29        2972.50           2463        2378.00     10355.43
   86.32        2972.75           2466        1215.00      5282.99
   86.35        2973.00           2470         383.00      1655.28
   86.38        2973.25           2473         217.00       931.59
   86.41        2973.50           2477         163.00       696.18
   86.44        2973.75           2481         144.00       613.35
   86.47        2974.00           2484         158.00       674.38
   86.50        2974.25           2488         142.00       604.63
   86.53        2974.50           2491         130.00       552.32
   86.56        2974.75           2495         135.00       574.12
   86.60        2975.00           2498         145.00       617.71
   86.63        2975.25           2502         127.00       539.24
   86.66        2975.50           2505         144.00       613.35
   86.69        2975.75           2509         151.00       643.87
   86.72        2976.00           2512         125.00       530.52
   86.75        2976.25           2516         141.00       600.27
   86.78        2976.50           2520         156.00       665.66
   86.81        2976.75           2523         152.00       648.23
   86.84        2977.00           2527         114.00       482.57
   86.87        2977.25           2530         124.00       526.16
   86.90        2977.50           2534         102.00       430.26
   86.93        2977.75           2537         116.00       491.29
   86.96        2978.00           2541         109.00       460.77
   86.99        2978.25           2544         115.00       486.93
   87.02        2978.50           2548         105.00       443.34
   87.05        2978.75           2552         110.00       465.13
   87.08        2979.00           2555         105.00       443.34
   87.12        2979.25           2559          95.00       399.74
   87.15        2979.50           2562         122.00       517.45
   87.18        2979.75           2566         100.00       421.54
   87.21        2980.00           2569         101.00       425.90
   87.24        2980.25           2573          92.00       386.67
   87.27        2980.50           2577          95.00       399.74
   87.30        2980.75           2580          91.00       382.31
   87.33        2981.00           2584          97.00       408.46
   87.36        2981.25           2587         103.00       434.62
   87.39        2981.50           2591          93.00       391.03
   87.42        2981.75           2594          86.00       360.51
   87.45        2982.00           2598          90.00       377.95
   87.48        2982.25           2601          98.00       412.82
   87.51        2982.50           2605          82.00       343.07
   87.54        2982.75           2609          94.00       395.38
   87.57        2983.00           2612          89.00       373.59
   87.61        2983.25           2616          81.00       338.71
   87.64        2983.50           2619          90.00       377.95
   87.67        2983.75           2623          88.00       369.23
   87.70        2984.00           2626          88.00       369.23
HS scan finished at 01:27:55
end
************************************************************
  HS Scan of (1) Internal mercury lamp
************************************************************
Integration time is 0.2294 seconds per sample
dh300718Reading 51.44 .94 3.72pr1000
************************************************************
Dead Time -------------------------  3.4E-08 
Number of Cycles Used -------------  4 
Starting Wavelength (Angstroms) ---  2950 
Final Wavelength (Angstoms) -------  2984 
Wavelength Increment (Angstroms) --  .25 
Filter Wheel #1 Position ---------- (1) Ground quartz diffuser (ND=2.32)
Filter Wheel #2 Position ---------- (1) Neutral Density 0.494



************************************************************
HS scan start time = 20:37:27
Dark Count =  4.2 


Time (GMT)  Wavelength (Ang)  Step Number  Raw Counts  Counts/Second

 1238.35        2950.00           2144          60.00       243.25
 1238.54        2950.25           2147          54.00       217.09
 1238.57        2950.50           2151          60.00       243.25
 1238.60        2950.75           2155          54.00       217.09
 1238.63        2951.00           2158          58.00       234.53
 1238.66        2951.25           2162          51.00       204.01
 1238.69        2951.50           2165          54.00       217.09
 1238.72        2951.75           2169          58.00       234.53
 1238.75        2952.00           2172          54.00       217.09
 1238.79        2952.25           2176          55.00       221.45
 1238.82        2952.50           2179          56.00       225.81
 1238.85        2952.75           2183          68.00       278.12
 1238.88        2953.00           2186          59.00       238.89
 1238.91        2953.25           2190          56.00       225.81
 1238.94        2953.50           2193          58.00       234.53
 1238.97        2953.75           2197          63.00       256.32
 1239.00        2954.00           2200          56.00       225.81
 1239.03        2954.25           2204          55.00       221.45
 1239.06        2954.50           2208          60.00       243.25
 1239.09        2954.75           2211          58.00       234.53
 1239.12        2955.00           2215          57.00       230.17
 1239.15        2955.25           2218          64.00       260.68
 1239.18        2955.50           2222          62.00       251.96
 1239.21        2955.75           2225          65.00       265.04
 1239.24        2956.00           2229          68.00       278.12
 1239.27        2956.25           2232          61.00       247.60
 1239.30        2956.50           2236          71.00       291.20
 1239.34        2956.75           2239          68.00       278.12
 1239.37        2957.00           2243          68.00       278.12
 1239.40        2957.25           2246          66.00       269.40
 1239.43        2957.50           2250          56.00       225.81
 1239.46        2957.75           2254          63.00       256.32
 1239.49        2958.00           2257          62.00       251.96
 1239.52        2958.25           2261          74.00       304.28
 1239.55        2958.50           2264          66.00       269.40
 1239.58        2958.75           2268          66.00       269.40
 1239.61        2959.00           2271          70.00       286.84
 1239.64        2959.25           2275          66.00       269.40
 1239.67        2959.50           2278          63.00       256.32
 1239.70        2959.75           2282          73.00       299.92
 1239.73        2960.00           2285          76.00       312.99
 1239.76        2960.25           2289          80.00       330.43
 1239.79        2960.50           2293          78.00       321.71
 1239.82        2960.75           2296          83.00       343.51
 1239.86        2961.00           2300         132.00       557.12
 1239.89        2961.25           2303         289.00      1241.55
 1239.92        2961.50           2307        1056.00      4585.72
 1239.95        2961.75           2310        1764.00      7673.32
 1239.98        2962.00           2314        2713.00     11812.94
 1240.01        2962.25           2317        3533.00     15390.79
 1240.04        2962.50           2321        4809.00     20960.01
 1240.07        2962.75           2324        5701.00     24854.47
 1240.10        2963.00           2328        6880.00     30003.57
 1240.13        2963.25           2331        7973.00     34778.68
 1240.16        2963.50           2335        9041.00     39446.07
 1240.19        2963.75           2339       10638.00     46428.07
 1240.22        2964.00           2342       11588.00     50583.00
 1240.25        2964.25           2346       12675.00     55338.55
 1240.28        2964.50           2349       13671.00     59697.33
 1240.31        2964.75           2353       14921.00     65169.53
 1240.34        2965.00           2356       15833.00     69163.32
 1240.38        2965.25           2360       17160.00     74976.43
 1240.41        2965.50           2363       17871.00     78091.99
 1240.44        2965.75           2367       19129.00     83606.12
 1240.47        2966.00           2370       20017.00     87499.68
 1240.50        2966.25           2374       20680.00     90407.38
 1240.53        2966.50           2378       21190.00     92644.46
 1240.56        2966.75           2381       21310.00     93170.89
 1240.59        2967.00           2385       21152.00     92477.77
 1240.62        2967.25           2388       21265.00     92973.47
 1240.65        2967.50           2392       21207.00     92719.04
 1240.68        2967.75           2395       20984.00     91740.81
 1240.71        2968.00           2399       20302.00     88749.53
 1240.74        2968.25           2402       19474.00     85118.69
 1240.77        2968.50           2406       18197.00     79520.74
 1240.80        2968.75           2409       17256.00     75397.05
 1240.83        2969.00           2413       16017.00     69969.23
 1240.86        2969.25           2417       14923.00     65178.28
 1240.90        2969.50           2420       13952.00     60927.31
 1240.93        2969.75           2424       12854.00     56121.81
 1240.96        2970.00           2427       12138.00     52989.02
 1240.99        2970.25           2431       10952.00     47801.26
 1241.02        2970.50           2434       10004.00     43655.86
 1241.05        2970.75           2438        8638.00     37684.70
 1241.08        2971.00           2441        7659.00     33406.71
 1241.11        2971.25           2445        6385.00     27841.51
 1241.14        2971.50           2449        5139.00     22400.66
 1241.17        2971.75           2452        4175.00     18192.59
 1241.20        2972.00           2456        2938.00     12794.58
 1241.23        2972.25           2459        2132.00      9278.43
 1241.26        2972.50           2463        1079.00      4686.01
 1241.29        2972.75           2466         482.00      2082.97
 1241.32        2973.00           2470         147.00       622.51
 1241.35        2973.25           2473         101.00       421.98
 1241.38        2973.50           2477          88.00       365.31
 1241.42        2973.75           2481          86.00       356.59
 1241.45        2974.00           2484          83.00       343.51
 1241.48        2974.25           2488          89.00       369.66
 1241.51        2974.50           2491          76.00       312.99
 1241.54        2974.75           2495          80.00       330.43
 1241.57        2975.00           2498          77.00       317.35
 1241.60        2975.25           2502          69.00       282.48
 1241.63        2975.50           2505          70.00       286.84
 1241.66        2975.75           2509          72.00       295.56
 1241.69        2976.00           2512          68.00       278.12
 1241.72        2976.25           2516          73.00       299.92
 1241.75        2976.50           2520          66.00       269.40
 1241.78        2976.75           2523          66.00       269.40
 1241.81        2977.00           2527          70.00       286.84
 1241.84        2977.25           2530          69.00       282.48
 1241.87        2977.50           2534          69.00       282.48
 1241.90        2977.75           2537          63.00       256.32
 1241.94        2978.00           2541          60.00       243.25
 1241.97        2978.25           2544          62.00       251.96
 1242.00        2978.50           2548          51.00       204.01
 1242.03        2978.75           2552          64.00       260.68
 1242.06        2979.00           2555          68.00       278.12
 1242.09        2979.25           2559          64.00       260.68
 1242.12        2979.50           2562          62.00       251.96
 1242.15        2979.75           2566          61.00       247.60
 1242.18        2980.00           2569          69.00       282.48
 1242.21        2980.25           2573          56.00       225.81
 1242.24        2980.50           2577          59.00       238.89
 1242.27        2980.75           2580          56.00       225.81
 1242.30        2981.00           2584          55.00       221.45
 1242.33        2981.25           2587          53.00       212.73
 1242.36        2981.50           2591          55.00       221.45
 1242.39        2981.75           2594          55.00       221.45
 1242.42        2982.00           2598          52.00       208.37
 1242.46        2982.25           2601          54.00       217.09
 1242.49        2982.50           2605          58.00       234.53
 1242.52        2982.75           2609          51.00       204.01
 1242.55        2983.00           2612          52.00       208.37
 1242.58        2983.25           2616          54.00       217.09
 1242.61        2983.50           2619          66.00       269.40
 1242.64        2983.75           2623          53.00       212.73
 1242.67        2984.00           2626          53.00       212.73
HS scan finished at 20:42:53
end
