************************************************************
  HS Scan of (1) Internal mercury lamp
************************************************************
Integration time is 0.2294 seconds per sample
dh030817Reading 51.44 .94 3.43pr1000
************************************************************
Dead Time -------------------------  3.4E-08 
Number of Cycles Used -------------  4 
Starting Wavelength (Angstroms) ---  2950 
Final Wavelength (Angstoms) -------  2984 
Wavelength Increment (Angstroms) --  .25 
Filter Wheel #1 Position ---------- (1) Ground quartz diffuser (ND=2.32)
Filter Wheel #2 Position ---------- (1) Neutral Density 0.494



************************************************************
HS scan start time = 01:14:08
Dark Count =  2.7 


Time (GMT)  Wavelength (Ang)  Step Number  Raw Counts  Counts/Second

   75.04        2950.00           2144         281.00      1213.21
   75.23        2950.25           2147         307.00      1326.56
   75.26        2950.50           2151         300.00      1296.05
   75.29        2950.75           2155         286.00      1235.01
   75.32        2951.00           2158         310.00      1339.64
   75.35        2951.25           2162         300.00      1296.05
   75.38        2951.50           2165         304.00      1313.49
   75.41        2951.75           2169         300.00      1296.05
   75.44        2952.00           2172         285.00      1230.65
   75.47        2952.25           2176         297.00      1282.97
   75.51        2952.50           2179         311.00      1344.00
   75.54        2952.75           2183         297.00      1282.97
   75.57        2953.00           2186         304.00      1313.49
   75.60        2953.25           2190         324.00      1400.68
   75.63        2953.50           2193         305.00      1317.84
   75.66        2953.75           2197         302.00      1304.77
   75.69        2954.00           2200         302.00      1304.77
   75.72        2954.25           2204         311.00      1344.00
   75.75        2954.50           2208         320.00      1383.24
   75.78        2954.75           2211         335.00      1448.63
   75.81        2955.00           2215         322.00      1391.96
   75.84        2955.25           2218         336.00      1452.99
   75.87        2955.50           2222         310.00      1339.64
   75.90        2955.75           2225         332.00      1435.55
   75.93        2956.00           2229         323.00      1396.32
   75.96        2956.25           2232         359.00      1553.26
   75.99        2956.50           2236         334.00      1444.27
   76.03        2956.75           2239         343.00      1483.51
   76.06        2957.00           2243         328.00      1418.12
   76.09        2957.25           2246         351.00      1518.39
   76.12        2957.50           2250         373.00      1614.30
   76.15        2957.75           2254         369.00      1596.86
   76.18        2958.00           2257         347.00      1500.95
   76.21        2958.25           2261         354.00      1531.47
   76.24        2958.50           2264         378.00      1636.10
   76.27        2958.75           2268         376.00      1627.38
   76.30        2959.00           2271         387.00      1675.34
   76.33        2959.25           2275         397.00      1718.93
   76.36        2959.50           2278         407.00      1762.53
   76.39        2959.75           2282         418.00      1810.49
   76.42        2960.00           2285         415.00      1797.41
   76.45        2960.25           2289         444.00      1923.84
   76.48        2960.50           2293         472.00      2045.91
   76.51        2960.75           2296         474.00      2054.63
   76.55        2961.00           2300         543.00      2355.46
   76.58        2961.25           2303         996.00      4330.63
   76.61        2961.50           2307        4067.00     17727.77
   76.64        2961.75           2310        8319.00     36297.17
   76.67        2962.00           2314       14770.00     64514.95
   76.70        2962.25           2317       19530.00     85370.81
   76.73        2962.50           2321       26381.00    115440.50
   76.76        2962.75           2324       31767.00    139123.40
   76.79        2963.00           2328       39377.00    172650.90
   76.82        2963.25           2331       45182.00    198277.70
   76.85        2963.50           2335       52196.00    229301.70
   76.88        2963.75           2339       59526.00    261793.70
   76.91        2964.00           2342       65455.00    288128.40
   76.94        2964.25           2346       72680.00    320283.60
   76.97        2964.50           2349       78169.00    344760.00
   77.00        2964.75           2353       85885.00    379236.40
   77.03        2965.00           2356       91380.00    403838.70
   77.07        2965.25           2360       98638.00    436398.10
   77.10        2965.50           2363      103599.00    458694.90
   77.13        2965.75           2367      110599.00    490214.00
   77.16        2966.00           2370      115393.00    511839.40
   77.19        2966.25           2374      121175.00    537964.40
   77.22        2966.50           2378      124072.00    551071.60
   77.25        2966.75           2381      125130.00    555861.40
   77.28        2967.00           2385      125591.00    557949.00
   77.31        2967.25           2388      125591.00    557949.00
   77.34        2967.50           2392      125191.00    556137.60
   77.37        2967.75           2395      124524.00    553117.80
   77.40        2968.00           2399      121748.00    540556.00
   77.43        2968.25           2402      116996.00    519077.60
   77.46        2968.50           2406      110139.00    488140.70
   77.49        2968.75           2409      104847.00    464309.40
   77.52        2969.00           2413       97951.00    433313.10
   77.55        2969.25           2417       91066.00    402431.80
   77.58        2969.50           2420       85761.00    378681.80
   77.62        2969.75           2424       78944.00    348219.20
   77.65        2970.00           2427       73213.00    322658.50
   77.68        2970.25           2431       65473.00    288208.40
   77.71        2970.50           2434       59684.00    262494.90
   77.74        2970.75           2438       52317.00    229837.50
   77.77        2971.00           2441       47150.00    206975.80
   77.80        2971.25           2445       40522.00    177702.10
   77.83        2971.50           2449       33831.00    148209.20
   77.86        2971.75           2452       28323.00    123975.30
   77.89        2972.00           2456       20948.00     91589.48
   77.92        2972.25           2459       15620.00     68237.04
   77.95        2972.50           2463        8672.00     37839.85
   77.98        2972.75           2466        4159.00     18129.31
   78.01        2973.00           2470        1212.00      5272.52
   78.04        2973.25           2473         711.00      3087.94
   78.07        2973.50           2477         513.00      2224.67
   78.10        2973.75           2481         488.00      2115.67
   78.14        2974.00           2484         475.00      2058.99
   78.17        2974.25           2488         453.00      1963.08
   78.20        2974.50           2491         462.00      2002.32
   78.23        2974.75           2495         435.00      1884.60
   78.26        2975.00           2498         435.00      1884.60
   78.29        2975.25           2502         409.00      1771.25
   78.32        2975.50           2505         425.00      1841.00
   78.35        2975.75           2509         422.00      1827.93
   78.38        2976.00           2512         408.00      1766.89
   78.41        2976.25           2516         419.00      1814.85
   78.44        2976.50           2520         383.00      1657.90
   78.47        2976.75           2523         406.00      1758.17
   78.50        2977.00           2527         382.00      1653.54
   78.53        2977.25           2530         380.00      1644.82
   78.56        2977.50           2534         383.00      1657.90
   78.59        2977.75           2537         342.00      1479.15
   78.62        2978.00           2541         359.00      1553.26
   78.66        2978.25           2544         331.00      1431.19
   78.69        2978.50           2548         348.00      1505.31
   78.72        2978.75           2552         359.00      1553.26
   78.75        2979.00           2555         355.00      1535.83
   78.78        2979.25           2559         333.00      1439.91
   78.81        2979.50           2562         327.00      1413.76
   78.84        2979.75           2566         331.00      1431.19
   78.87        2980.00           2569         339.00      1466.07
   78.90        2980.25           2573         332.00      1435.55
   78.93        2980.50           2577         334.00      1444.27
   78.96        2980.75           2580         332.00      1435.55
   78.99        2981.00           2584         331.00      1431.19
   79.02        2981.25           2587         317.00      1370.16
   79.05        2981.50           2591         341.00      1474.79
   79.08        2981.75           2594         315.00      1361.44
   79.11        2982.00           2598         309.00      1335.28
   79.14        2982.25           2601         319.00      1378.88
   79.18        2982.50           2605         310.00      1339.64
   79.21        2982.75           2609         305.00      1317.84
   79.24        2983.00           2612         305.00      1317.84
   79.27        2983.25           2616         293.00      1265.53
   79.30        2983.50           2619         293.00      1265.53
   79.33        2983.75           2623         308.00      1330.92
   79.36        2984.00           2626         312.00      1348.36
HS scan finished at 01:19:35
end
************************************************************
  HS Scan of (1) Internal mercury lamp
************************************************************
Integration time is 0.2294 seconds per sample
dh030817Reading 51.44 .94 3.56pr1000
************************************************************
Dead Time -------------------------  3.4E-08 
Number of Cycles Used -------------  4 
Starting Wavelength (Angstroms) ---  2950 
Final Wavelength (Angstoms) -------  2984 
Wavelength Increment (Angstroms) --  .25 
Filter Wheel #1 Position ---------- (1) Ground quartz diffuser (ND=2.32)
Filter Wheel #2 Position ---------- (1) Neutral Density 0.494



************************************************************
HS scan start time = 20:37:27
Dark Count =  3.6 


Time (GMT)  Wavelength (Ang)  Step Number  Raw Counts  Counts/Second

 1238.35        2950.00           2144         262.00      1126.46
 1238.55        2950.25           2147         247.00      1061.07
 1238.58        2950.50           2151         263.00      1130.82
 1238.61        2950.75           2155         256.00      1100.30
 1238.64        2951.00           2158         246.00      1056.71
 1238.67        2951.25           2162         283.00      1218.01
 1238.70        2951.50           2165         272.00      1170.06
 1238.73        2951.75           2169         258.00      1109.02
 1238.76        2952.00           2172         257.00      1104.66
 1238.79        2952.25           2176         269.00      1156.98
 1238.82        2952.50           2179         255.00      1095.94
 1238.85        2952.75           2183         266.00      1143.90
 1238.88        2953.00           2186         296.00      1274.68
 1238.91        2953.25           2190         276.00      1187.49
 1238.94        2953.50           2193         260.00      1117.74
 1238.97        2953.75           2197         282.00      1213.65
 1239.00        2954.00           2200         263.00      1130.82
 1239.03        2954.25           2204         264.00      1135.18
 1239.06        2954.50           2208         281.00      1209.29
 1239.10        2954.75           2211         283.00      1218.01
 1239.13        2955.00           2215         325.00      1401.11
 1239.16        2955.25           2218         288.00      1239.81
 1239.19        2955.50           2222         311.00      1340.08
 1239.22        2955.75           2225         298.00      1283.40
 1239.25        2956.00           2229         294.00      1265.97
 1239.28        2956.25           2232         324.00      1396.75
 1239.31        2956.50           2236         301.00      1296.48
 1239.34        2956.75           2239         307.00      1322.64
 1239.37        2957.00           2243         330.00      1422.91
 1239.40        2957.25           2246         289.00      1244.17
 1239.43        2957.50           2250         321.00      1383.67
 1239.46        2957.75           2254         308.00      1327.00
 1239.49        2958.00           2257         317.00      1366.24
 1239.52        2958.25           2261         329.00      1418.55
 1239.55        2958.50           2264         327.00      1409.83
 1239.58        2958.75           2268         352.00      1518.82
 1239.62        2959.00           2271         330.00      1422.91
 1239.65        2959.25           2275         339.00      1462.15
 1239.68        2959.50           2278         336.00      1449.07
 1239.71        2959.75           2282         352.00      1518.82
 1239.74        2960.00           2285         374.00      1614.74
 1239.77        2960.25           2289         371.00      1601.66
 1239.80        2960.50           2293         390.00      1684.49
 1239.83        2960.75           2296         378.00      1632.17
 1239.86        2961.00           2300         417.00      1802.20
 1239.89        2961.25           2303         691.00      2996.82
 1239.92        2961.50           2307        2491.00     10847.07
 1239.95        2961.75           2310        5723.00     24953.16
 1239.98        2962.00           2314       11152.00     48678.59
 1240.01        2962.25           2317       15612.00     68198.06
 1240.04        2962.50           2321       21451.00     93792.09
 1240.07        2962.75           2324       25942.00    113507.80
 1240.11        2963.00           2328       32154.00    140822.60
 1240.14        2963.25           2331       36875.00    161615.40
 1240.17        2963.50           2335       43873.00    192491.10
 1240.20        2963.75           2339       50472.00    221666.10
 1240.23        2964.00           2342       55746.00    245025.00
 1240.26        2964.25           2346       62190.00    273616.50
 1240.29        2964.50           2349       66772.00    293980.50
 1240.32        2964.75           2353       73093.00    322119.80
 1240.35        2965.00           2356       77474.00    341654.60
 1240.38        2965.25           2360       83203.00    367239.60
 1240.41        2965.50           2363       87519.00    386543.90
 1240.44        2965.75           2367       93839.00    414857.70
 1240.47        2966.00           2370       98205.00    434449.60
 1240.50        2966.25           2374      103488.00    458191.70
 1240.53        2966.50           2378      107144.00    474644.60
 1240.56        2966.75           2381      107982.00    478418.40
 1240.59        2967.00           2385      108399.00    480296.60
 1240.62        2967.25           2388      107980.00    478409.30
 1240.66        2967.50           2392      108041.00    478684.10
 1240.69        2967.75           2395      107324.00    475455.10
 1240.72        2968.00           2399      104098.00    460935.50
 1240.75        2968.25           2402      100543.00    444951.90
 1240.78        2968.50           2406       95577.00    422653.60
 1240.81        2968.75           2409       91022.00    402230.60
 1240.84        2969.00           2413       84675.00    373820.60
 1240.87        2969.25           2417       78383.00    345711.10
 1240.90        2969.50           2420       73975.00    326050.50
 1240.93        2969.75           2424       67895.00    298975.80
 1240.96        2970.00           2427       63008.00    277249.90
 1240.99        2970.25           2431       56561.00    248638.00
 1241.02        2970.50           2434       51825.00    227655.10
 1241.05        2970.75           2438       45494.00    199652.40
 1241.08        2971.00           2441       40447.00    177367.20
 1241.11        2971.25           2445       34306.00    150297.00
 1241.14        2971.50           2449       27922.00    122208.60
 1241.18        2971.75           2452       23070.00    100896.50
 1241.21        2972.00           2456       17100.00     74716.16
 1241.24        2972.25           2459       12638.00     55179.28
 1241.27        2972.50           2463        7643.00     33339.43
 1241.30        2972.75           2466        4255.00     18544.38
 1241.33        2973.00           2470        1275.00      5543.33
 1241.36        2973.25           2473         573.00      2482.34
 1241.39        2973.50           2477         432.00      1867.60
 1241.42        2973.75           2481         402.00      1736.81
 1241.45        2974.00           2484         402.00      1736.81
 1241.48        2974.25           2488         398.00      1719.37
 1241.51        2974.50           2491         374.00      1614.74
 1241.54        2974.75           2495         379.00      1636.53
 1241.57        2975.00           2498         360.00      1553.70
 1241.60        2975.25           2502         352.00      1518.82
 1241.63        2975.50           2505         347.00      1497.02
 1241.66        2975.75           2509         377.00      1627.81
 1241.70        2976.00           2512         339.00      1462.15
 1241.73        2976.25           2516         339.00      1462.15
 1241.76        2976.50           2520         332.00      1431.63
 1241.79        2976.75           2523         326.00      1405.47
 1241.82        2977.00           2527         334.00      1440.35
 1241.85        2977.25           2530         334.00      1440.35
 1241.88        2977.50           2534         309.00      1331.36
 1241.91        2977.75           2537         318.00      1370.60
 1241.94        2978.00           2541         311.00      1340.08
 1241.97        2978.25           2544         319.00      1374.96
 1242.00        2978.50           2548         290.00      1248.53
 1242.03        2978.75           2552         294.00      1265.97
 1242.06        2979.00           2555         285.00      1226.73
 1242.09        2979.25           2559         285.00      1226.73
 1242.12        2979.50           2562         304.00      1309.56
 1242.15        2979.75           2566         282.00      1213.65
 1242.18        2980.00           2569         299.00      1287.76
 1242.22        2980.25           2573         290.00      1248.53
 1242.25        2980.50           2577         279.00      1200.57
 1242.28        2980.75           2580         287.00      1235.45
 1242.31        2981.00           2584         282.00      1213.65
 1242.34        2981.25           2587         279.00      1200.57
 1242.37        2981.50           2591         284.00      1222.37
 1242.40        2981.75           2594         274.00      1178.77
 1242.43        2982.00           2598         279.00      1200.57
 1242.46        2982.25           2601         261.00      1122.10
 1242.49        2982.50           2605         256.00      1100.30
 1242.52        2982.75           2609         282.00      1213.65
 1242.55        2983.00           2612         253.00      1087.22
 1242.58        2983.25           2616         257.00      1104.66
 1242.61        2983.50           2619         262.00      1126.46
 1242.64        2983.75           2623         260.00      1117.74
 1242.67        2984.00           2626         246.00      1056.71
HS scan finished at 20:42:54
end
