************************************************************
  HS Scan of (1) Internal mercury lamp
************************************************************
Integration time is 0.2294 seconds per sample
dh290717Reading 51.44 .94 3.47pr1000
************************************************************
Dead Time -------------------------  3.4E-08 
Number of Cycles Used -------------  4 
Starting Wavelength (Angstroms) ---  2950 
Final Wavelength (Angstoms) -------  2984 
Wavelength Increment (Angstroms) --  .25 
Filter Wheel #1 Position ---------- (1) Ground quartz diffuser (ND=2.32)
Filter Wheel #2 Position ---------- (1) Neutral Density 0.494



************************************************************
HS scan start time = 01:19:21
Dark Count =  2.5 


Time (GMT)  Wavelength (Ang)  Step Number  Raw Counts  Counts/Second

   80.24        2950.00           2144         360.00      1558.50
   80.44        2950.25           2147         365.00      1580.29
   80.47        2950.50           2151         365.00      1580.29
   80.50        2950.75           2155         389.00      1684.93
   80.53        2951.00           2158         396.00      1715.44
   80.56        2951.25           2162         407.00      1763.40
   80.59        2951.50           2165         401.00      1737.24
   80.62        2951.75           2169         385.00      1667.49
   80.65        2952.00           2172         404.00      1750.32
   80.68        2952.25           2176         402.00      1741.60
   80.71        2952.50           2179         415.00      1798.28
   80.74        2952.75           2183         391.00      1693.65
   80.77        2953.00           2186         406.00      1759.04
   80.80        2953.25           2190         405.00      1754.68
   80.83        2953.50           2193         418.00      1811.36
   80.86        2953.75           2197         417.00      1807.00
   80.89        2954.00           2200         421.00      1824.44
   80.93        2954.25           2204         424.00      1837.52
   80.96        2954.50           2208         422.00      1828.80
   80.99        2954.75           2211         424.00      1837.52
   81.02        2955.00           2215         437.00      1894.19
   81.05        2955.25           2218         435.00      1885.47
   81.08        2955.50           2222         437.00      1894.19
   81.11        2955.75           2225         428.00      1854.96
   81.14        2956.00           2229         443.00      1920.35
   81.17        2956.25           2232         441.00      1911.63
   81.20        2956.50           2236         453.00      1963.95
   81.23        2956.75           2239         439.00      1902.91
   81.26        2957.00           2243         458.00      1985.75
   81.29        2957.25           2246         466.00      2020.63
   81.32        2957.50           2250         458.00      1985.75
   81.35        2957.75           2254         484.00      2099.10
   81.38        2958.00           2257         497.00      2155.78
   81.41        2958.25           2261         489.00      2120.90
   81.45        2958.50           2264         532.00      2308.38
   81.48        2958.75           2268         481.00      2086.02
   81.51        2959.00           2271         514.00      2229.90
   81.54        2959.25           2275         527.00      2286.58
   81.57        2959.50           2278         521.00      2260.42
   81.60        2959.75           2282         537.00      2330.18
   81.63        2960.00           2285         542.00      2351.98
   81.66        2960.25           2289         572.00      2482.77
   81.69        2960.50           2293         577.00      2504.57
   81.72        2960.75           2296         589.00      2556.89
   81.75        2961.00           2300         670.00      2910.05
   81.78        2961.25           2303        1031.00      4484.12
   81.81        2961.50           2307        3762.00     16397.54
   81.84        2961.75           2310        8947.00     39042.64
   81.87        2962.00           2314       17590.00     76868.03
   81.90        2962.25           2317       24333.00    106446.00
   81.93        2962.50           2321       32961.00    144379.60
   81.97        2962.75           2324       39567.00    173489.80
   82.00        2963.00           2328       48782.00    214193.70
   82.03        2963.25           2331       55465.00    243784.30
   82.06        2963.50           2335       64598.00    284319.80
   82.09        2963.75           2339       73746.00    325034.80
   82.12        2964.00           2342       82059.00    362132.00
   82.15        2964.25           2346       92288.00    407909.00
   82.18        2964.50           2349       99285.00    439305.00
   82.21        2964.75           2353      107970.00    478369.30
   82.24        2965.00           2356      114846.00    509371.20
   82.27        2965.25           2360      123372.00    547904.40
   82.30        2965.50           2363      130417.00    579821.30
   82.33        2965.75           2367      140000.00    623349.00
   82.36        2966.00           2370      146183.00    651502.60
   82.39        2966.25           2374      154921.00    691383.30
   82.42        2966.50           2378      160178.00    715429.30
   82.45        2966.75           2381      161563.00    721771.10
   82.49        2967.00           2385      162034.00    723928.30
   82.52        2967.25           2388      162353.00    725389.70
   82.55        2967.50           2392      162532.00    726209.60
   82.58        2967.75           2395      161125.00    719765.30
   82.61        2968.00           2399      156820.00    700065.00
   82.64        2968.25           2402      151420.00    675391.40
   82.67        2968.50           2406      143829.00    640777.50
   82.70        2968.75           2409      137434.00    611681.00
   82.73        2969.00           2413      129166.00    574148.50
   82.76        2969.25           2417      119275.00    529375.30
   82.79        2969.50           2420      112235.00    497591.20
   82.82        2969.75           2424      101614.00    449770.30
   82.85        2970.00           2427       93947.00    415347.00
   82.88        2970.25           2431       84953.00    375068.70
   82.91        2970.50           2434       78249.00    345118.00
   82.94        2970.75           2438       68039.00    299621.40
   82.97        2971.00           2441       60497.00    266104.30
   83.00        2971.25           2445       50366.00    221201.90
   83.04        2971.50           2449       41030.00    179944.60
   83.07        2971.75           2452       34330.00    150407.60
   83.10        2972.00           2456       25667.00    112304.60
   83.13        2972.25           2459       19052.00     83276.00
   83.16        2972.50           2463       10200.00     44520.26
   83.19        2972.75           2466        4680.00     20404.30
   83.22        2973.00           2470        1346.00      5857.75
   83.25        2973.25           2473         823.00      3577.16
   83.28        2973.50           2477         662.00      2875.17
   83.31        2973.75           2481         629.00      2731.29
   83.34        2974.00           2484         598.00      2596.13
   83.37        2974.25           2488         573.00      2487.13
   83.40        2974.50           2491         602.00      2613.57
   83.43        2974.75           2495         578.00      2508.93
   83.46        2975.00           2498         551.00      2391.21
   83.49        2975.25           2502         557.00      2417.37
   83.53        2975.50           2505         544.00      2360.70
   83.56        2975.75           2509         525.00      2277.86
   83.59        2976.00           2512         523.00      2269.14
   83.62        2976.25           2516         500.00      2168.86
   83.65        2976.50           2520         496.00      2151.42
   83.68        2976.75           2523         508.00      2203.74
   83.71        2977.00           2527         478.00      2072.94
   83.74        2977.25           2530         476.00      2064.23
   83.77        2977.50           2534         501.00      2173.22
   83.80        2977.75           2537         510.00      2212.46
   83.83        2978.00           2541         502.00      2177.58
   83.86        2978.25           2544         450.00      1950.87
   83.89        2978.50           2548         481.00      2086.02
   83.92        2978.75           2552         492.00      2133.98
   83.95        2979.00           2555         455.00      1972.67
   83.98        2979.25           2559         451.00      1955.23
   84.01        2979.50           2562         440.00      1907.27
   84.05        2979.75           2566         436.00      1889.83
   84.08        2980.00           2569         443.00      1920.35
   84.11        2980.25           2573         433.00      1876.75
   84.14        2980.50           2577         441.00      1911.63
   84.17        2980.75           2580         434.00      1881.11
   84.20        2981.00           2584         438.00      1898.55
   84.23        2981.25           2587         430.00      1863.68
   84.26        2981.50           2591         437.00      1894.19
   84.29        2981.75           2594         419.00      1815.72
   84.32        2982.00           2598         404.00      1750.32
   84.35        2982.25           2601         432.00      1872.39
   84.38        2982.50           2605         405.00      1754.68
   84.41        2982.75           2609         424.00      1837.52
   84.44        2983.00           2612         418.00      1811.36
   84.47        2983.25           2616         409.00      1772.12
   84.50        2983.50           2619         425.00      1841.88
   84.53        2983.75           2623         394.00      1706.73
   84.56        2984.00           2626         408.00      1767.76
HS scan finished at 01:24:47
end
************************************************************
  HS Scan of (1) Internal mercury lamp
************************************************************
Integration time is 0.2294 seconds per sample
dh290717Reading 51.44 .94 3.45pr1000
************************************************************
Dead Time -------------------------  3.4E-08 
Number of Cycles Used -------------  4 
Starting Wavelength (Angstroms) ---  2950 
Final Wavelength (Angstoms) -------  2984 
Wavelength Increment (Angstroms) --  .25 
Filter Wheel #1 Position ---------- (1) Ground quartz diffuser (ND=2.32)
Filter Wheel #2 Position ---------- (1) Neutral Density 0.494



************************************************************
HS scan start time = 20:37:24
Dark Count =  2.4 


Time (GMT)  Wavelength (Ang)  Step Number  Raw Counts  Counts/Second

 1238.31        2950.00           2144         326.00      1410.70
 1238.50        2950.25           2147         331.00      1432.50
 1238.53        2950.50           2151         319.00      1380.19
 1238.56        2950.75           2155         331.00      1432.50
 1238.59        2951.00           2158         346.00      1497.90
 1238.62        2951.25           2162         342.00      1480.46
 1238.65        2951.50           2165         333.00      1441.22
 1238.68        2951.75           2169         349.00      1510.98
 1238.71        2952.00           2172         330.00      1428.14
 1238.74        2952.25           2176         329.00      1423.78
 1238.77        2952.50           2179         351.00      1519.69
 1238.80        2952.75           2183         382.00      1654.84
 1238.84        2953.00           2186         342.00      1480.46
 1238.87        2953.25           2190         355.00      1537.13
 1238.90        2953.50           2193         360.00      1558.93
 1238.93        2953.75           2197         359.00      1554.57
 1238.96        2954.00           2200         379.00      1641.77
 1238.99        2954.25           2204         382.00      1654.84
 1239.02        2954.50           2208         387.00      1676.64
 1239.05        2954.75           2211         356.00      1541.49
 1239.08        2955.00           2215         377.00      1633.05
 1239.11        2955.25           2218         378.00      1637.41
 1239.14        2955.50           2222         388.00      1681.00
 1239.18        2955.75           2225         371.00      1606.89
 1239.22        2956.00           2229         402.00      1742.04
 1239.25        2956.25           2232         373.00      1615.61
 1239.28        2956.50           2236         399.00      1728.96
 1239.31        2956.75           2239         380.00      1646.13
 1239.34        2957.00           2243         389.00      1685.36
 1239.37        2957.25           2246         417.00      1807.43
 1239.40        2957.50           2250         404.00      1750.76
 1239.43        2957.75           2254         418.00      1811.79
 1239.46        2958.00           2257         420.00      1820.51
 1239.49        2958.25           2261         417.00      1807.43
 1239.52        2958.50           2264         425.00      1842.31
 1239.55        2958.75           2268         447.00      1938.23
 1239.59        2959.00           2271         438.00      1898.99
 1239.62        2959.25           2275         443.00      1920.79
 1239.65        2959.50           2278         458.00      1986.18
 1239.68        2959.75           2282         462.00      2003.62
 1239.71        2960.00           2285         461.00      1999.26
 1239.74        2960.25           2289         486.00      2108.26
 1239.77        2960.50           2293         512.00      2221.62
 1239.80        2960.75           2296         529.00      2295.73
 1239.83        2961.00           2300         547.00      2374.21
 1239.86        2961.25           2303         744.00      3233.14
 1239.89        2961.50           2307        2735.00     11916.77
 1239.92        2961.75           2310        7219.00     31492.29
 1239.95        2962.00           2314       14378.00     62800.03
 1239.98        2962.25           2317       19918.00     87073.44
 1240.01        2962.50           2321       27009.00    118201.20
 1240.04        2962.75           2324       33022.00    144648.60
 1240.07        2963.00           2328       41490.00    181975.10
 1240.11        2963.25           2331       48428.00    212628.40
 1240.14        2963.50           2335       56740.00    249436.90
 1240.17        2963.75           2339       64842.00    285404.80
 1240.20        2964.00           2342       70669.00    311327.80
 1240.23        2964.25           2346       79345.00    350010.70
 1240.26        2964.50           2349       85256.00    376424.30
 1240.29        2964.75           2353       93065.00    411392.60
 1240.32        2965.00           2356       98487.00    435721.30
 1240.35        2965.25           2360      107167.00    474753.50
 1240.38        2965.50           2363      113560.00    503568.50
 1240.41        2965.75           2367      121393.00    538951.70
 1240.44        2966.00           2370      126478.00    561967.70
 1240.47        2966.25           2374      133231.00    592589.90
 1240.50        2966.50           2378      138320.00    615709.10
 1240.53        2966.75           2381      139156.00    619510.60
 1240.56        2967.00           2385      139677.00    621880.20
 1240.59        2967.25           2388      139839.00    622617.00
 1240.62        2967.50           2392      139711.00    622034.90
 1240.66        2967.75           2395      139238.00    619883.50
 1240.69        2968.00           2399      136475.00    607323.10
 1240.72        2968.25           2402      132397.00    588804.60
 1240.75        2968.50           2406      124759.00    554183.00
 1240.78        2968.75           2409      119244.00    529235.60
 1240.81        2969.00           2413      112012.00    496586.00
 1240.84        2969.25           2417      103953.00    460288.70
 1240.87        2969.50           2420       98443.00    435523.70
 1240.90        2969.75           2424       90516.00    399969.00
 1240.93        2970.00           2427       83850.00    370137.20
 1240.96        2970.25           2431       75745.00    333947.30
 1240.99        2970.50           2434       69278.00    305135.40
 1241.02        2970.75           2438       60731.00    267143.50
 1241.05        2971.00           2441       54645.00    240150.80
 1241.08        2971.25           2445       46933.00    206017.80
 1241.11        2971.50           2449       39649.00    173852.00
 1241.14        2971.75           2452       33617.00    147268.30
 1241.18        2972.00           2456       25201.00    110258.30
 1241.21        2972.25           2459       19077.00     83386.03
 1241.24        2972.50           2463       11431.00     49904.13
 1241.27        2972.75           2466        6623.00     28888.87
 1241.30        2973.00           2470        2115.00      9212.13
 1241.33        2973.25           2473         927.00      4031.07
 1241.36        2973.50           2477         604.00      2622.73
 1241.39        2973.75           2481         552.00      2396.01
 1241.42        2974.00           2484         552.00      2396.01
 1241.45        2974.25           2488         515.00      2234.69
 1241.48        2974.50           2491         530.00      2300.09
 1241.51        2974.75           2495         487.00      2112.62
 1241.54        2975.00           2498         486.00      2108.26
 1241.57        2975.25           2502         514.00      2230.33
 1241.60        2975.50           2505         464.00      2012.34
 1241.63        2975.75           2509         467.00      2025.42
 1241.67        2976.00           2512         473.00      2051.58
 1241.70        2976.25           2516         434.00      1881.55
 1241.73        2976.50           2520         438.00      1898.99
 1241.76        2976.75           2523         441.00      1912.07
 1241.79        2977.00           2527         433.00      1877.19
 1241.82        2977.25           2530         421.00      1824.87
 1241.85        2977.50           2534         421.00      1824.87
 1241.89        2977.75           2537         418.00      1811.79
 1241.92        2978.00           2541         420.00      1820.51
 1241.95        2978.25           2544         410.00      1776.92
 1241.98        2978.50           2548         431.00      1868.47
 1242.01        2978.75           2552         381.00      1650.49
 1242.04        2979.00           2555         412.00      1785.64
 1242.07        2979.25           2559         385.00      1667.92
 1242.10        2979.50           2562         391.00      1694.08
 1242.13        2979.75           2566         391.00      1694.08
 1242.16        2980.00           2569         381.00      1650.49
 1242.19        2980.25           2573         367.00      1589.45
 1242.22        2980.50           2577         356.00      1541.49
 1242.25        2980.75           2580         378.00      1637.41
 1242.28        2981.00           2584         366.00      1585.09
 1242.31        2981.25           2587         380.00      1646.13
 1242.34        2981.50           2591         361.00      1563.29
 1242.37        2981.75           2594         369.00      1598.17
 1242.41        2982.00           2598         361.00      1563.29
 1242.44        2982.25           2601         344.00      1489.18
 1242.47        2982.50           2605         365.00      1580.73
 1242.50        2982.75           2609         370.00      1602.53
 1242.53        2983.00           2612         348.00      1506.62
 1242.56        2983.25           2616         356.00      1541.49
 1242.59        2983.50           2619         358.00      1550.21
 1242.62        2983.75           2623         339.00      1467.38
 1242.65        2984.00           2626         360.00      1558.93
HS scan finished at 20:42:52
end
