************************************************************
  HS Scan of (1) Internal mercury lamp
************************************************************
Integration time is 0.2294 seconds per sample
dh020818Reading 51.44 .94 3.49pr1000
************************************************************
Dead Time -------------------------  3.4E-08 
Number of Cycles Used -------------  4 
Starting Wavelength (Angstroms) ---  2950 
Final Wavelength (Angstoms) -------  2984 
Wavelength Increment (Angstroms) --  .25 
Filter Wheel #1 Position ---------- (1) Ground quartz diffuser (ND=2.32)
Filter Wheel #2 Position ---------- (1) Neutral Density 0.494



************************************************************
HS scan start time = 01:37:35
Dark Count =  2 


Time (GMT)  Wavelength (Ang)  Step Number  Raw Counts  Counts/Second

   98.48        2950.00           2144          68.00       287.71
   98.67        2950.25           2147          62.00       261.55
   98.70        2950.50           2151          67.00       283.35
   98.73        2950.75           2155          66.00       278.99
   98.76        2951.00           2158          68.00       287.71
   98.79        2951.25           2162          65.00       274.63
   98.82        2951.50           2165          65.00       274.63
   98.85        2951.75           2169          70.00       296.43
   98.89        2952.00           2172          65.00       274.63
   98.92        2952.25           2176          69.00       292.07
   98.96        2952.50           2179          64.00       270.27
   98.99        2952.75           2183          67.00       283.35
   99.02        2953.00           2186          70.00       296.43
   99.05        2953.25           2190          70.00       296.43
   99.08        2953.50           2193          72.00       305.15
   99.11        2953.75           2197          65.00       274.63
   99.14        2954.00           2200          67.00       283.35
   99.18        2954.25           2204          77.00       326.94
   99.21        2954.50           2208          77.00       326.94
   99.24        2954.75           2211          80.00       340.02
   99.27        2955.00           2215          84.00       357.46
   99.30        2955.25           2218          76.00       322.58
   99.33        2955.50           2222          83.00       353.10
   99.36        2955.75           2225          81.00       344.38
   99.39        2956.00           2229          77.00       326.94
   99.42        2956.25           2232          84.00       357.46
   99.45        2956.50           2236          89.00       379.26
   99.48        2956.75           2239          69.00       292.07
   99.52        2957.00           2243          79.00       335.66
   99.56        2957.25           2246          67.00       283.35
   99.59        2957.50           2250          73.00       309.51
   99.62        2957.75           2254          92.00       392.33
   99.65        2958.00           2257          87.00       370.54
   99.68        2958.25           2261          84.00       357.46
   99.71        2958.50           2264          80.00       340.02
   99.74        2958.75           2268          99.00       422.85
   99.77        2959.00           2271          95.00       405.41
   99.80        2959.25           2275          92.00       392.33
   99.83        2959.50           2278          95.00       405.41
   99.86        2959.75           2282          97.00       414.13
   99.89        2960.00           2285         101.00       431.57
   99.93        2960.25           2289          92.00       392.33
   99.96        2960.50           2293          96.00       409.77
   99.99        2960.75           2296          96.00       409.77
  100.02        2961.00           2300         137.00       588.50
  100.05        2961.25           2303         216.00       932.90
  100.08        2961.50           2307         695.00      3021.23
  100.11        2961.75           2310        1508.00      6566.42
  100.14        2962.00           2314        3047.00     13279.75
  100.17        2962.25           2317        4093.00     17844.30
  100.20        2962.50           2321        5791.00     25257.08
  100.23        2962.75           2324        6895.00     30078.70
  100.26        2963.00           2328        8407.00     36684.79
  100.29        2963.25           2331        9702.00     42345.15
  100.32        2963.50           2335       11358.00     49586.58
  100.35        2963.75           2339       12820.00     55982.66
  100.38        2964.00           2342       13925.00     60818.75
  100.41        2964.25           2346       15867.00     69321.88
  100.44        2964.50           2349       17292.00     75564.43
  100.48        2964.75           2353       18661.00     81564.15
  100.51        2965.00           2356       20086.00     87811.91
  100.54        2965.25           2360       21609.00     94492.29
  100.57        2965.50           2363       22570.00     98709.10
  100.60        2965.75           2367       24163.00    105701.80
  100.63        2966.00           2370       25536.00    111731.40
  100.66        2966.25           2374       27520.00    120448.70
  100.69        2966.50           2378       28028.00    122681.50
  100.72        2966.75           2381       28023.00    122659.60
  100.75        2967.00           2385       27997.00    122545.30
  100.78        2967.25           2388       27997.00    122545.30
  100.81        2967.50           2392       28025.00    122668.40
  100.84        2967.75           2395       27880.00    122031.00
  100.87        2968.00           2399       26876.00    117618.50
  100.90        2968.25           2402       25784.00    112820.80
  100.93        2968.50           2406       24364.00    106584.30
  100.96        2968.75           2409       23410.00    102396.00
  100.99        2969.00           2413       21795.00     95308.34
  101.03        2969.25           2417       20159.00     88132.04
  101.06        2969.50           2420       19115.00     83554.38
  101.09        2969.75           2424       17254.00     75397.93
  101.12        2970.00           2427       15865.00     69313.11
  101.15        2970.25           2431       14288.00     62407.78
  101.18        2970.50           2434       13005.00     56792.21
  101.21        2970.75           2438       11421.00     49862.14
  101.24        2971.00           2441       10218.00     44601.15
  101.27        2971.25           2445        8385.00     36588.65
  101.30        2971.50           2449        6809.00     29703.04
  101.33        2971.75           2452        5543.00     24174.18
  101.36        2972.00           2456        4067.00     17730.83
  101.39        2972.25           2459        2985.00     13009.24
  101.42        2972.50           2463        1634.00      7115.93
  101.45        2972.75           2466         814.00      3540.10
  101.48        2973.00           2470         234.00      1011.37
  101.52        2973.25           2473         153.00       658.25
  101.55        2973.50           2477         110.00       470.80
  101.58        2973.75           2481         125.00       536.19
  101.61        2974.00           2484         106.00       453.36
  101.64        2974.25           2488         100.00       427.21
  101.67        2974.50           2491         108.00       462.08
  101.70        2974.75           2495         135.00       579.78
  101.73        2975.00           2498         110.00       470.80
  101.76        2975.25           2502         129.00       553.63
  101.79        2975.50           2505          93.00       396.69
  101.82        2975.75           2509          87.00       370.54
  101.85        2976.00           2512          88.00       374.90
  101.88        2976.25           2516          86.00       366.18
  101.91        2976.50           2520         108.00       462.08
  101.94        2976.75           2523          84.00       357.46
  101.97        2977.00           2527          89.00       379.26
  102.00        2977.25           2530          85.00       361.82
  102.04        2977.50           2534          78.00       331.30
  102.07        2977.75           2537          74.00       313.87
  102.10        2978.00           2541          81.00       344.38
  102.13        2978.25           2544          89.00       379.26
  102.16        2978.50           2548          75.00       318.22
  102.19        2978.75           2552          79.00       335.66
  102.22        2979.00           2555          76.00       322.58
  102.25        2979.25           2559          81.00       344.38
  102.28        2979.50           2562          72.00       305.15
  102.31        2979.75           2566          67.00       283.35
  102.34        2980.00           2569          76.00       322.58
  102.37        2980.25           2573          71.00       300.79
  102.40        2980.50           2577          74.00       313.87
  102.43        2980.75           2580          75.00       318.22
  102.46        2981.00           2584          81.00       344.38
  102.49        2981.25           2587          65.00       274.63
  102.52        2981.50           2591          81.00       344.38
  102.56        2981.75           2594          71.00       300.79
  102.59        2982.00           2598          73.00       309.51
  102.62        2982.25           2601          69.00       292.07
  102.65        2982.50           2605          69.00       292.07
  102.68        2982.75           2609          65.00       274.63
  102.71        2983.00           2612          62.00       261.55
  102.74        2983.25           2616          68.00       287.71
  102.77        2983.50           2619          68.00       287.71
  102.80        2983.75           2623          72.00       305.15
  102.83        2984.00           2626          66.00       278.99
HS scan finished at 01:43:03
end
************************************************************
  HS Scan of (1) Internal mercury lamp
************************************************************
Integration time is 0.2294 seconds per sample
dh020818Reading 51.44 .94 4.21pr1000
************************************************************
Dead Time -------------------------  3.4E-08 
Number of Cycles Used -------------  4 
Starting Wavelength (Angstroms) ---  2950 
Final Wavelength (Angstoms) -------  2984 
Wavelength Increment (Angstroms) --  .25 
Filter Wheel #1 Position ---------- (1) Ground quartz diffuser (ND=2.32)
Filter Wheel #2 Position ---------- (1) Neutral Density 0.494



************************************************************
HS scan start time = 20:37:30
Dark Count =  15.3 


Time (GMT)  Wavelength (Ang)  Step Number  Raw Counts  Counts/Second

 1238.40        2950.00           2144          82.00       290.76
 1238.59        2950.25           2147          83.00       295.12
 1238.62        2950.50           2151          80.00       282.04
 1238.65        2950.75           2155          86.00       308.20
 1238.69        2951.00           2158          90.00       325.64
 1238.72        2951.25           2162          90.00       325.64
 1238.75        2951.50           2165          86.00       308.20
 1238.78        2951.75           2169          88.00       316.92
 1238.81        2952.00           2172          90.00       325.64
 1238.84        2952.25           2176          89.00       321.28
 1238.87        2952.50           2179          87.00       312.56
 1238.90        2952.75           2183          79.00       277.68
 1238.93        2953.00           2186          82.00       290.76
 1238.96        2953.25           2190          86.00       308.20
 1238.99        2953.50           2193          93.00       338.71
 1239.02        2953.75           2197          92.00       334.35
 1239.05        2954.00           2200          84.00       299.48
 1239.08        2954.25           2204          92.00       334.35
 1239.11        2954.50           2208          88.00       316.92
 1239.14        2954.75           2211          94.00       343.07
 1239.17        2955.00           2215          92.00       334.35
 1239.21        2955.25           2218          89.00       321.28
 1239.24        2955.50           2222         111.00       417.18
 1239.27        2955.75           2225         112.00       421.54
 1239.30        2956.00           2229         102.00       377.95
 1239.33        2956.25           2232          94.00       343.07
 1239.36        2956.50           2236         102.00       377.95
 1239.39        2956.75           2239         120.00       456.42
 1239.42        2957.00           2243         102.00       377.95
 1239.45        2957.25           2246         107.00       399.74
 1239.48        2957.50           2250         106.00       395.38
 1239.51        2957.75           2254         118.00       447.70
 1239.54        2958.00           2257         113.00       425.90
 1239.57        2958.25           2261         106.00       395.38
 1239.60        2958.50           2264         124.00       473.85
 1239.63        2958.75           2268         152.00       595.91
 1239.66        2959.00           2271         107.00       399.74
 1239.69        2959.25           2275         111.00       417.18
 1239.73        2959.50           2278         121.00       460.77
 1239.76        2959.75           2282         121.00       460.77
 1239.79        2960.00           2285         134.00       517.45
 1239.82        2960.25           2289         126.00       482.57
 1239.85        2960.50           2293         143.00       556.68
 1239.88        2960.75           2296         161.00       635.15
 1239.91        2961.00           2300         206.00       831.32
 1239.94        2961.25           2303         515.00      2178.45
 1239.97        2961.50           2307        1655.00      7149.51
 1240.00        2961.75           2310        2962.00     12850.86
 1240.03        2962.00           2314        4956.00     21553.28
 1240.06        2962.25           2317        6727.00     29286.78
 1240.09        2962.50           2321        8900.00     38781.27
 1240.12        2962.75           2324       10433.00     45483.10
 1240.15        2963.00           2328       12428.00     54209.24
 1240.18        2963.25           2331       13995.00     61066.94
 1240.21        2963.50           2335       16475.00     71926.78
 1240.25        2963.75           2339       19227.00     83987.09
 1240.28        2964.00           2342       20945.00     91521.06
 1240.31        2964.25           2346       22979.00    100445.80
 1240.34        2964.50           2349       24505.00    107145.10
 1240.37        2964.75           2353       26770.00    117094.30
 1240.40        2965.00           2356       28835.00    126170.90
 1240.43        2965.25           2360       30599.00    133928.90
 1240.46        2965.50           2363       32272.00    141290.50
 1240.49        2965.75           2367       34383.00    150584.60
 1240.52        2966.00           2370       35544.00    155698.70
 1240.55        2966.25           2374       37400.00    163877.90
 1240.58        2966.50           2378       37722.00    165297.40
 1240.61        2966.75           2381       37890.00    166038.00
 1240.64        2967.00           2385       37894.00    166055.60
 1240.67        2967.25           2388       37465.00    164164.40
 1240.70        2967.50           2392       37206.00    163022.70
 1240.73        2967.75           2395       37075.00    162445.30
 1240.77        2968.00           2399       35934.00    157417.00
 1240.80        2968.25           2402       34435.00    150813.60
 1240.83        2968.50           2406       32558.00    142549.30
 1240.86        2968.75           2409       30795.00    134791.10
 1240.89        2969.00           2413       28697.00    125564.10
 1240.92        2969.25           2417       26243.00    114778.80
 1240.95        2969.50           2420       24856.00    108686.40
 1240.98        2969.75           2424       22789.00     99611.86
 1241.01        2970.00           2427       21056.00     92007.96
 1241.04        2970.25           2431       19053.00     83224.26
 1241.07        2970.50           2434       17528.00     76540.25
 1241.10        2970.75           2438       15205.00     66364.49
 1241.13        2971.00           2441       13353.00     58256.96
 1241.16        2971.25           2445       11187.00     48780.49
 1241.19        2971.50           2449        8941.00     38960.47
 1241.22        2971.75           2452        7448.00     32436.36
 1241.25        2972.00           2456        5701.00     24806.01
 1241.28        2972.25           2459        4165.00     18100.50
 1241.32        2972.50           2463        2169.00      9391.40
 1241.35        2972.75           2466        1057.00      4541.68
 1241.38        2973.00           2470         303.00      1254.19
 1241.41        2973.25           2473         187.00       748.49
 1241.44        2973.50           2477         128.00       491.29
 1241.47        2973.75           2481         148.00       578.48
 1241.50        2974.00           2484         148.00       578.48
 1241.53        2974.25           2488         130.00       500.01
 1241.56        2974.50           2491         129.00       495.65
 1241.59        2974.75           2495         139.00       539.24
 1241.62        2975.00           2498         113.00       425.90
 1241.65        2975.25           2502         131.00       504.37
 1241.68        2975.50           2505         134.00       517.45
 1241.71        2975.75           2509         117.00       443.34
 1241.74        2976.00           2512         130.00       500.01
 1241.77        2976.25           2516         134.00       517.45
 1241.80        2976.50           2520         107.00       399.74
 1241.84        2976.75           2523         103.00       382.31
 1241.87        2977.00           2527         108.00       404.10
 1241.90        2977.25           2530         100.00       369.23
 1241.93        2977.50           2534         118.00       447.70
 1241.96        2977.75           2537         118.00       447.70
 1241.99        2978.00           2541          96.00       351.79
 1242.02        2978.25           2544          95.00       347.43
 1242.05        2978.50           2548          99.00       364.87
 1242.08        2978.75           2552          94.00       343.07
 1242.11        2979.00           2555          91.00       329.99
 1242.14        2979.25           2559          86.00       308.20
 1242.17        2979.50           2562          83.00       295.12
 1242.20        2979.75           2566          99.00       364.87
 1242.23        2980.00           2569          86.00       308.20
 1242.26        2980.25           2573          94.00       343.07
 1242.29        2980.50           2577          77.00       268.97
 1242.33        2980.75           2580          84.00       299.48
 1242.36        2981.00           2584          84.00       299.48
 1242.39        2981.25           2587          81.00       286.40
 1242.42        2981.50           2591          91.00       329.99
 1242.45        2981.75           2594          87.00       312.56
 1242.48        2982.00           2598          91.00       329.99
 1242.51        2982.25           2601          91.00       329.99
 1242.55        2982.50           2605          89.00       321.28
 1242.58        2982.75           2609          92.00       334.35
 1242.61        2983.00           2612          81.00       286.40
 1242.64        2983.25           2616          79.00       277.68
 1242.67        2983.50           2619          80.00       282.04
 1242.70        2983.75           2623          83.00       295.12
 1242.73        2984.00           2626          87.00       312.56
HS scan finished at 20:42:57
end
