************************************************************
  HS Scan of (1) Internal mercury lamp
************************************************************
Integration time is 0.2294 seconds per sample
dh310717Reading 51.44 .94 3.29pr1000
************************************************************
Dead Time -------------------------  3.4E-08 
Number of Cycles Used -------------  4 
Starting Wavelength (Angstroms) ---  2950 
Final Wavelength (Angstoms) -------  2984 
Wavelength Increment (Angstroms) --  .25 
Filter Wheel #1 Position ---------- (1) Ground quartz diffuser (ND=2.32)
Filter Wheel #2 Position ---------- (1) Neutral Density 0.494



************************************************************
HS scan start time = 01:22:25
Dark Count =  1.4 


Time (GMT)  Wavelength (Ang)  Step Number  Raw Counts  Counts/Second

   83.32        2950.00           2144         309.00      1340.95
   83.51        2950.25           2147         305.00      1323.51
   83.54        2950.50           2151         324.00      1406.34
   83.57        2950.75           2155         316.00      1371.47
   83.61        2951.00           2158         323.00      1401.98
   83.64        2951.25           2162         324.00      1406.34
   83.67        2951.50           2165         326.00      1415.06
   83.70        2951.75           2169         320.00      1388.91
   83.73        2952.00           2172         326.00      1415.06
   83.76        2952.25           2176         323.00      1401.98
   83.79        2952.50           2179         320.00      1388.91
   83.82        2952.75           2183         326.00      1415.06
   83.85        2953.00           2186         329.00      1428.14
   83.88        2953.25           2190         340.00      1476.10
   83.91        2953.50           2193         331.00      1436.86
   83.94        2953.75           2197         316.00      1371.47
   83.97        2954.00           2200         340.00      1476.10
   84.00        2954.25           2204         350.00      1519.69
   84.03        2954.50           2208         338.00      1467.38
   84.06        2954.75           2211         366.00      1589.45
   84.09        2955.00           2215         356.00      1545.85
   84.13        2955.25           2218         346.00      1502.26
   84.16        2955.50           2222         361.00      1567.65
   84.19        2955.75           2225         362.00      1572.01
   84.22        2956.00           2229         375.00      1628.69
   84.25        2956.25           2232         369.00      1602.53
   84.28        2956.50           2236         355.00      1541.49
   84.31        2956.75           2239         391.00      1698.44
   84.34        2957.00           2243         383.00      1663.56
   84.37        2957.25           2246         386.00      1676.64
   84.40        2957.50           2250         412.00      1790.00
   84.43        2957.75           2254         392.00      1702.80
   84.46        2958.00           2257         420.00      1824.87
   84.49        2958.25           2261         412.00      1790.00
   84.52        2958.50           2264         431.00      1872.83
   84.55        2958.75           2268         426.00      1851.03
   84.58        2959.00           2271         420.00      1824.87
   84.61        2959.25           2275         429.00      1864.11
   84.65        2959.50           2278         429.00      1864.11
   84.68        2959.75           2282         451.00      1960.03
   84.71        2960.00           2285         473.00      2055.94
   84.74        2960.25           2289         458.00      1990.54
   84.77        2960.50           2293         489.00      2125.70
   84.80        2960.75           2296         491.00      2134.42
   84.83        2961.00           2300         552.00      2400.37
   84.86        2961.25           2303         766.00      3333.42
   84.89        2961.50           2307        2663.00     11607.02
   84.92        2961.75           2310        5977.00     26071.93
   84.95        2962.00           2314       12301.00     53714.40
   84.98        2962.25           2317       18374.00     80308.78
   85.01        2962.50           2321       26501.00    115973.40
   85.04        2962.75           2324       32008.00    140189.70
   85.07        2963.00           2328       39689.00    174032.90
   85.10        2963.25           2331       45280.00    198716.50
   85.13        2963.50           2335       53437.00    234803.40
   85.17        2963.75           2339       61292.00    269638.60
   85.20        2964.00           2342       67212.00    295947.30
   85.23        2964.25           2346       75161.00    331347.60
   85.26        2964.50           2349       81047.00    357615.70
   85.29        2964.75           2353       89769.00    396627.50
   85.32        2965.00           2356       96177.00    425355.80
   85.35        2965.25           2360      104508.00    462789.90
   85.38        2965.50           2363      109866.00    486916.20
   85.41        2965.75           2367      117272.00    520330.10
   85.44        2966.00           2370      122522.00    544063.30
   85.47        2966.25           2374      129576.00    576012.50
   85.50        2966.50           2378      133640.00    594451.10
   85.53        2966.75           2381      134667.00    599114.50
   85.56        2967.00           2385      134841.00    599904.60
   85.59        2967.25           2388      135357.00    602248.40
   85.62        2967.50           2392      134962.00    600454.20
   85.65        2967.75           2395      134547.00    598569.50
   85.69        2968.00           2399      130963.00    582302.80
   85.72        2968.25           2402      126260.00    560984.80
   85.75        2968.50           2406      118934.00    527839.10
   85.78        2968.75           2409      113452.00    503085.70
   85.81        2969.00           2413      106023.00    469607.70
   85.84        2969.25           2417       99253.00    439166.20
   85.87        2969.50           2420       93862.00    414970.70
   85.90        2969.75           2424       85880.00    379220.00
   85.93        2970.00           2427       79286.00    349751.80
   85.96        2970.25           2431       70581.00    310940.50
   85.99        2970.50           2434       64289.00    282951.50
   86.02        2970.75           2438       56293.00    247459.50
   86.05        2971.00           2441       50550.00    222021.00
   86.08        2971.25           2445       42909.00    188243.70
   86.11        2971.50           2449       34974.00    153248.90
   86.14        2971.75           2452       28531.00    124895.40
   86.17        2972.00           2456       20909.00     91424.11
   86.20        2972.25           2459       15357.00     67090.97
   86.24        2972.50           2463        8382.00     36578.15
   86.27        2972.75           2466        4172.00     18191.72
   86.30        2973.00           2470        1279.00      5570.37
   86.33        2973.25           2473         744.00      3237.50
   86.36        2973.50           2477         576.00      2505.01
   86.39        2973.75           2481         540.00      2348.05
   86.42        2974.00           2484         521.00      2265.21
   86.45        2974.25           2488         490.00      2130.06
   86.48        2974.50           2491         509.00      2212.90
   86.51        2974.75           2495         479.00      2082.10
   86.54        2975.00           2498         449.00      1951.31
   86.57        2975.25           2502         466.00      2025.42
   86.60        2975.50           2505         488.00      2121.34
   86.63        2975.75           2509         433.00      1881.55
   86.66        2976.00           2512         431.00      1872.83
   86.69        2976.25           2516         432.00      1877.19
   86.73        2976.50           2520         421.00      1829.23
   86.76        2976.75           2523         421.00      1829.23
   86.79        2977.00           2527         418.00      1816.15
   86.82        2977.25           2530         403.00      1750.76
   86.85        2977.50           2534         439.00      1907.71
   86.88        2977.75           2537         410.00      1781.28
   86.91        2978.00           2541         404.00      1755.12
   86.94        2978.25           2544         422.00      1833.59
   86.97        2978.50           2548         380.00      1650.49
   87.00        2978.75           2552         378.00      1641.77
   87.03        2979.00           2555         411.00      1785.64
   87.06        2979.25           2559         410.00      1781.28
   87.09        2979.50           2562         403.00      1750.76
   87.12        2979.75           2566         403.00      1750.76
   87.15        2980.00           2569         361.00      1567.65
   87.18        2980.25           2573         382.00      1659.20
   87.21        2980.50           2577         379.00      1646.13
   87.24        2980.75           2580         417.00      1811.79
   87.28        2981.00           2584         361.00      1567.65
   87.31        2981.25           2587         370.00      1606.89
   87.34        2981.50           2591         354.00      1537.13
   87.37        2981.75           2594         371.00      1611.25
   87.40        2982.00           2598         383.00      1663.56
   87.43        2982.25           2601         372.00      1615.61
   87.46        2982.50           2605         393.00      1707.16
   87.49        2982.75           2609         368.00      1598.17
   87.52        2983.00           2612         375.00      1628.69
   87.55        2983.25           2616         385.00      1672.28
   87.58        2983.50           2619         365.00      1585.09
   87.61        2983.75           2623         355.00      1541.49
   87.64        2984.00           2626         352.00      1528.41
HS scan finished at 01:27:52
end
************************************************************
  HS Scan of (1) Internal mercury lamp
************************************************************
Integration time is 0.2294 seconds per sample
dh310717Reading 51.44 .94 3.62pr1000
************************************************************
Dead Time -------------------------  3.4E-08 
Number of Cycles Used -------------  4 
Starting Wavelength (Angstroms) ---  2950 
Final Wavelength (Angstoms) -------  2984 
Wavelength Increment (Angstroms) --  .25 
Filter Wheel #1 Position ---------- (1) Ground quartz diffuser (ND=2.32)
Filter Wheel #2 Position ---------- (1) Neutral Density 0.494



************************************************************
HS scan start time = 20:37:29
Dark Count =  4.2 


Time (GMT)  Wavelength (Ang)  Step Number  Raw Counts  Counts/Second

 1238.38        2950.00           2144         293.00      1258.99
 1238.58        2950.25           2147         293.00      1258.99
 1238.61        2950.50           2151         282.00      1211.03
 1238.64        2950.75           2155         304.00      1306.95
 1238.67        2951.00           2158         302.00      1298.23
 1238.70        2951.25           2162         283.00      1215.39
 1238.73        2951.50           2165         311.00      1337.46
 1238.76        2951.75           2169         293.00      1258.99
 1238.79        2952.00           2172         308.00      1324.38
 1238.82        2952.25           2176         304.00      1306.95
 1238.85        2952.50           2179         315.00      1354.90
 1238.88        2952.75           2183         321.00      1381.06
 1238.91        2953.00           2186         310.00      1333.10
 1238.94        2953.25           2190         309.00      1328.74
 1238.98        2953.50           2193         323.00      1389.78
 1239.01        2953.75           2197         337.00      1450.81
 1239.04        2954.00           2200         307.00      1320.02
 1239.07        2954.25           2204         316.00      1359.26
 1239.10        2954.50           2208         315.00      1354.90
 1239.13        2954.75           2211         312.00      1341.82
 1239.16        2955.00           2215         344.00      1481.33
 1239.19        2955.25           2218         333.00      1433.37
 1239.22        2955.50           2222         348.00      1498.77
 1239.25        2955.75           2225         353.00      1520.57
 1239.28        2956.00           2229         350.00      1507.49
 1239.31        2956.25           2232         338.00      1455.17
 1239.34        2956.50           2236         348.00      1498.77
 1239.37        2956.75           2239         352.00      1516.21
 1239.40        2957.00           2243         342.00      1472.61
 1239.43        2957.25           2246         397.00      1712.39
 1239.46        2957.50           2250         370.00      1594.68
 1239.49        2957.75           2254         387.00      1668.80
 1239.53        2958.00           2257         415.00      1790.87
 1239.56        2958.25           2261         405.00      1747.27
 1239.59        2958.50           2264         397.00      1712.39
 1239.62        2958.75           2268         395.00      1703.67
 1239.65        2959.00           2271         421.00      1817.03
 1239.68        2959.25           2275         400.00      1725.47
 1239.71        2959.50           2278         391.00      1686.23
 1239.74        2959.75           2282         415.00      1790.87
 1239.77        2960.00           2285         421.00      1817.03
 1239.80        2960.25           2289         427.00      1843.18
 1239.83        2960.50           2293         447.00      1930.38
 1239.86        2960.75           2296         472.00      2039.37
 1239.89        2961.00           2300         571.00      2471.00
 1239.92        2961.25           2303        1014.00      4402.58
 1239.95        2961.50           2307        4356.00     18982.61
 1239.98        2961.75           2310        8792.00     38357.75
 1240.02        2962.00           2314       15300.00     66829.10
 1240.05        2962.25           2317       20396.00     89161.79
 1240.08        2962.50           2321       27048.00    118364.70
 1240.11        2962.75           2324       32052.00    140371.00
 1240.14        2963.00           2328       39293.00    172273.80
 1240.17        2963.25           2331       44455.00    195059.20
 1240.20        2963.50           2335       52286.00    229693.60
 1240.23        2963.75           2339       59839.00    263176.10
 1240.26        2964.00           2342       65372.00    287752.70
 1240.29        2964.25           2346       73523.00    324033.30
 1240.32        2964.50           2349       79068.00    348766.00
 1240.35        2964.75           2353       85750.00    378625.80
 1240.38        2965.00           2356       90929.00    401811.30
 1240.41        2965.25           2360       97988.00    433472.50
 1240.44        2965.50           2363      103689.00    459093.00
 1240.47        2965.75           2367      110903.00    491577.60
 1240.50        2966.00           2370      116059.00    514839.50
 1240.54        2966.25           2374      121614.00    539943.10
 1240.57        2966.50           2378      126068.00    560102.50
 1240.60        2966.75           2381      126869.00    563730.80
 1240.63        2967.00           2385      127227.00    565352.80
 1240.66        2967.25           2388      127488.00    566535.40
 1240.69        2967.50           2392      127199.00    565226.00
 1240.72        2967.75           2395      126817.00    563495.20
 1240.75        2968.00           2399      123382.00    547942.00
 1240.78        2968.25           2402      118717.00    526845.80
 1240.81        2968.50           2406      111776.00    495513.70
 1240.84        2968.75           2409      107069.00    474304.10
 1240.87        2969.00           2413      100330.00    443992.10
 1240.90        2969.25           2417       92816.00    410268.20
 1240.93        2969.50           2420       87160.00    384934.50
 1240.96        2969.75           2424       79231.00    349493.70
 1240.99        2970.00           2427       73678.00    324724.10
 1241.02        2970.25           2431       66563.00    293048.30
 1241.06        2970.50           2434       61370.00    269972.50
 1241.09        2970.75           2438       52653.00    231318.70
 1241.12        2971.00           2441       46407.00    203684.70
 1241.15        2971.25           2445       39296.00    172287.00
 1241.18        2971.50           2449       31843.00    139451.30
 1241.21        2971.75           2452       26821.00    117367.20
 1241.24        2972.00           2456       19681.00     86026.32
 1241.27        2972.25           2459       13976.00     61032.36
 1241.30        2972.50           2463        6915.00     30156.45
 1241.33        2972.75           2466        3213.00     13994.45
 1241.36        2973.00           2470         977.00      4241.24
 1241.39        2973.25           2473         605.00      2619.24
 1241.42        2973.50           2477         530.00      2292.24
 1241.45        2973.75           2481         484.00      2091.69
 1241.48        2974.00           2484         471.00      2035.01
 1241.51        2974.25           2488         460.00      1987.06
 1241.54        2974.50           2491         448.00      1934.74
 1241.58        2974.75           2495         436.00      1882.42
 1241.61        2975.00           2498         438.00      1891.14
 1241.64        2975.25           2502         423.00      1825.75
 1241.67        2975.50           2505         417.00      1799.59
 1241.70        2975.75           2509         418.00      1803.95
 1241.73        2976.00           2512         405.00      1747.27
 1241.76        2976.25           2516         410.00      1769.07
 1241.79        2976.50           2520         389.00      1677.51
 1241.82        2976.75           2523         405.00      1747.27
 1241.85        2977.00           2527         394.00      1699.31
 1241.88        2977.25           2530         390.00      1681.87
 1241.91        2977.50           2534         355.00      1529.29
 1241.94        2977.75           2537         388.00      1673.16
 1241.97        2978.00           2541         344.00      1481.33
 1242.00        2978.25           2544         377.00      1625.20
 1242.03        2978.50           2548         351.00      1511.85
 1242.06        2978.75           2552         369.00      1590.32
 1242.10        2979.00           2555         345.00      1485.69
 1242.13        2979.25           2559         358.00      1542.37
 1242.16        2979.50           2562         341.00      1468.25
 1242.19        2979.75           2566         347.00      1494.41
 1242.22        2980.00           2569         342.00      1472.61
 1242.25        2980.25           2573         333.00      1433.37
 1242.28        2980.50           2577         329.00      1415.94
 1242.31        2980.75           2580         328.00      1411.58
 1242.34        2981.00           2584         330.00      1420.30
 1242.37        2981.25           2587         321.00      1381.06
 1242.40        2981.50           2591         341.00      1468.25
 1242.43        2981.75           2594         320.00      1376.70
 1242.46        2982.00           2598         312.00      1341.82
 1242.49        2982.25           2601         324.00      1394.14
 1242.52        2982.50           2605         320.00      1376.70
 1242.55        2982.75           2609         309.00      1328.74
 1242.58        2983.00           2612         326.00      1402.86
 1242.61        2983.25           2616         321.00      1381.06
 1242.65        2983.50           2619         319.00      1372.34
 1242.68        2983.75           2623         314.00      1350.54
 1242.71        2984.00           2626         310.00      1333.10
HS scan finished at 20:42:56
end
