************************************************************
  HS Scan of (1) Internal mercury lamp
************************************************************
Integration time is 0.2294 seconds per sample
dh060817Reading 51.44 .94 3.41pr1000
************************************************************
Dead Time -------------------------  3.4E-08 
Number of Cycles Used -------------  4 
Starting Wavelength (Angstroms) ---  2950 
Final Wavelength (Angstoms) -------  2984 
Wavelength Increment (Angstroms) --  .25 
Filter Wheel #1 Position ---------- (1) Ground quartz diffuser (ND=2.32)
Filter Wheel #2 Position ---------- (1) Neutral Density 0.494



************************************************************
HS scan start time = 01:22:00
Dark Count =  2.5 


Time (GMT)  Wavelength (Ang)  Step Number  Raw Counts  Counts/Second

   82.89        2950.00           2144         248.00      1070.22
   83.08        2950.25           2147         242.00      1044.07
   83.11        2950.50           2151         251.00      1083.30
   83.14        2950.75           2155         239.00      1030.99
   83.17        2951.00           2158         269.00      1161.77
   83.20        2951.25           2162         248.00      1070.22
   83.23        2951.50           2165         272.00      1174.85
   83.27        2951.75           2169         254.00      1096.38
   83.30        2952.00           2172         276.00      1192.29
   83.33        2952.25           2176         264.00      1139.97
   83.36        2952.50           2179         254.00      1096.38
   83.39        2952.75           2183         258.00      1113.82
   83.42        2953.00           2186         254.00      1096.38
   83.45        2953.25           2190         270.00      1166.13
   83.48        2953.50           2193         254.00      1096.38
   83.51        2953.75           2197         281.00      1214.09
   83.54        2954.00           2200         276.00      1192.29
   83.57        2954.25           2204         270.00      1166.13
   83.60        2954.50           2208         273.00      1179.21
   83.63        2954.75           2211         267.00      1153.05
   83.66        2955.00           2215         288.00      1244.60
   83.69        2955.25           2218         271.00      1170.49
   83.72        2955.50           2222         290.00      1253.32
   83.75        2955.75           2225         287.00      1240.24
   83.79        2956.00           2229         276.00      1192.29
   83.82        2956.25           2232         290.00      1253.32
   83.85        2956.50           2236         302.00      1305.64
   83.88        2956.75           2239         287.00      1240.24
   83.91        2957.00           2243         305.00      1318.72
   83.94        2957.25           2246         298.00      1288.20
   83.97        2957.50           2250         324.00      1401.55
   84.00        2957.75           2254         298.00      1288.20
   84.03        2958.00           2257         301.00      1301.28
   84.06        2958.25           2261         322.00      1392.83
   84.09        2958.50           2264         325.00      1405.91
   84.12        2958.75           2268         333.00      1440.79
   84.15        2959.00           2271         331.00      1432.07
   84.18        2959.25           2275         326.00      1410.27
   84.21        2959.50           2278         350.00      1514.90
   84.24        2959.75           2282         356.00      1541.06
   84.27        2960.00           2285         365.00      1580.29
   84.31        2960.25           2289         382.00      1654.41
   84.34        2960.50           2293         367.00      1589.01
   84.37        2960.75           2296         410.00      1776.48
   84.40        2961.00           2300         477.00      2068.59
   84.43        2961.25           2303         924.00      4017.55
   84.46        2961.50           2307        3596.00     15673.13
   84.49        2961.75           2310        6907.00     30128.93
   84.52        2962.00           2314       12275.00     53595.83
   84.55        2962.25           2317       16680.00     72880.90
   84.58        2962.50           2321       22675.00     99167.72
   84.61        2962.75           2324       26933.00    117866.80
   84.64        2963.00           2328       32507.00    142381.10
   84.67        2963.25           2331       37491.00    164335.50
   84.70        2963.50           2335       44239.00    194112.50
   84.73        2963.75           2339       50594.00    222210.90
   84.76        2964.00           2342       55790.00    245224.90
   84.79        2964.25           2346       61127.00    268901.10
   84.83        2964.50           2349       65389.00    287835.80
   84.86        2964.75           2353       71558.00    315286.30
   84.89        2965.00           2356       77161.00    340263.00
   84.92        2965.25           2360       82898.00    365881.30
   84.95        2965.50           2363       86958.00    384038.20
   84.98        2965.75           2367       92194.00    407487.60
   85.01        2966.00           2370       96410.00    426396.50
   85.04        2966.25           2374      102354.00    453097.10
   85.07        2966.50           2378      105968.00    469355.20
   85.10        2966.75           2381      107099.00    474446.90
   85.13        2967.00           2385      107717.00    477229.80
   85.16        2967.25           2388      107879.00    477959.40
   85.19        2967.50           2392      107915.00    478121.60
   85.22        2967.75           2395      107760.00    477423.50
   85.25        2968.00           2399      105142.00    465637.70
   85.28        2968.25           2402      102415.00    453371.40
   85.31        2968.50           2406       96245.00    425656.00
   85.35        2968.75           2409       91617.00    404901.70
   85.38        2969.00           2413       84439.00    372770.20
   85.41        2969.25           2417       78533.00    346385.50
   85.44        2969.50           2420       73796.00    325257.60
   85.47        2969.75           2424       67578.00    297570.50
   85.50        2970.00           2427       62735.00    276042.00
   85.53        2970.25           2431       55647.00    244591.00
   85.56        2970.50           2434       50508.00    221830.30
   85.59        2970.75           2438       44121.00    193591.40
   85.62        2971.00           2441       39419.00    172837.00
   85.65        2971.25           2445       32963.00    144388.40
   85.68        2971.50           2449       26852.00    117510.90
   85.71        2971.75           2452       22790.00     99672.43
   85.74        2972.00           2456       16531.00     72228.16
   85.77        2972.25           2459       11639.00     50813.52
   85.80        2972.50           2463        5761.00     25123.90
   85.83        2972.75           2466        2678.00     11667.66
   85.86        2973.00           2470         897.00      3899.82
   85.90        2973.25           2473         540.00      2343.26
   85.93        2973.50           2477         422.00      1828.80
   85.96        2973.75           2481         430.00      1863.68
   85.99        2974.00           2484         408.00      1767.76
   86.02        2974.25           2488         409.00      1772.12
   86.05        2974.50           2491         388.00      1680.57
   86.08        2974.75           2495         395.00      1711.08
   86.11        2975.00           2498         384.00      1663.13
   86.14        2975.25           2502         356.00      1541.06
   86.17        2975.50           2505         343.00      1484.38
   86.20        2975.75           2509         369.00      1597.73
   86.23        2976.00           2512         337.00      1458.22
   86.26        2976.25           2516         340.00      1471.30
   86.29        2976.50           2520         331.00      1432.07
   86.32        2976.75           2523         329.00      1423.35
   86.35        2977.00           2527         315.00      1362.31
   86.38        2977.25           2530         319.00      1379.75
   86.42        2977.50           2534         314.00      1357.95
   86.45        2977.75           2537         325.00      1405.91
   86.48        2978.00           2541         336.00      1453.86
   86.51        2978.25           2544         302.00      1305.64
   86.54        2978.50           2548         312.00      1349.23
   86.57        2978.75           2552         306.00      1323.08
   86.60        2979.00           2555         289.00      1248.96
   86.63        2979.25           2559         298.00      1288.20
   86.66        2979.50           2562         292.00      1262.04
   86.69        2979.75           2566         293.00      1266.40
   86.72        2980.00           2569         261.00      1126.90
   86.75        2980.25           2573         294.00      1270.76
   86.78        2980.50           2577         286.00      1235.88
   86.81        2980.75           2580         285.00      1231.52
   86.84        2981.00           2584         289.00      1248.96
   86.87        2981.25           2587         281.00      1214.09
   86.91        2981.50           2591         284.00      1227.17
   86.94        2981.75           2594         285.00      1231.52
   86.97        2982.00           2598         268.00      1157.41
   87.00        2982.25           2601         285.00      1231.52
   87.03        2982.50           2605         267.00      1153.05
   87.06        2982.75           2609         285.00      1231.52
   87.09        2983.00           2612         265.00      1144.33
   87.12        2983.25           2616         270.00      1166.13
   87.15        2983.50           2619         256.00      1105.10
   87.18        2983.75           2623         267.00      1153.05
   87.21        2984.00           2626         272.00      1174.85
HS scan finished at 01:27:26
end
************************************************************
  HS Scan of (1) Internal mercury lamp
************************************************************
Integration time is 0.2294 seconds per sample
dh060817Reading 51.44 .94 3.6pr1000
************************************************************
Dead Time -------------------------  3.4E-08 
Number of Cycles Used -------------  4 
Starting Wavelength (Angstroms) ---  2950 
Final Wavelength (Angstoms) -------  2984 
Wavelength Increment (Angstroms) --  .25 
Filter Wheel #1 Position ---------- (1) Ground quartz diffuser (ND=2.32)
Filter Wheel #2 Position ---------- (1) Neutral Density 0.494



************************************************************
HS scan start time = 20:37:25
Dark Count =  3.8 


Time (GMT)  Wavelength (Ang)  Step Number  Raw Counts  Counts/Second

 1238.31        2950.00           2144         237.00      1016.60
 1238.51        2950.25           2147         217.00       929.41
 1238.54        2950.50           2151         222.00       951.21
 1238.57        2950.75           2155         225.00       964.29
 1238.60        2951.00           2158         237.00      1016.60
 1238.63        2951.25           2162         239.00      1025.32
 1238.66        2951.50           2165         227.00       973.01
 1238.69        2951.75           2169         228.00       977.36
 1238.72        2952.00           2172         244.00      1047.12
 1238.75        2952.25           2176         236.00      1012.24
 1238.78        2952.50           2179         246.00      1055.84
 1238.81        2952.75           2183         238.00      1020.96
 1238.84        2953.00           2186         251.00      1077.63
 1238.87        2953.25           2190         276.00      1186.62
 1238.90        2953.50           2193         231.00       990.44
 1238.93        2953.75           2197         239.00      1025.32
 1238.97        2954.00           2200         248.00      1064.55
 1239.00        2954.25           2204         246.00      1055.84
 1239.03        2954.50           2208         263.00      1129.95
 1239.06        2954.75           2211         252.00      1081.99
 1239.09        2955.00           2215         285.00      1225.86
 1239.12        2955.25           2218         254.00      1090.71
 1239.15        2955.50           2222         249.00      1068.91
 1239.18        2955.75           2225         266.00      1143.03
 1239.21        2956.00           2229         256.00      1099.43
 1239.24        2956.25           2232         251.00      1077.63
 1239.27        2956.50           2236         259.00      1112.51
 1239.30        2956.75           2239         284.00      1221.50
 1239.33        2957.00           2243         283.00      1217.14
 1239.36        2957.25           2246         269.00      1156.10
 1239.39        2957.50           2250         276.00      1186.62
 1239.42        2957.75           2254         287.00      1234.58
 1239.45        2958.00           2257         286.00      1230.22
 1239.48        2958.25           2261         297.00      1278.17
 1239.52        2958.50           2264         303.00      1304.33
 1239.55        2958.75           2268         277.00      1190.98
 1239.58        2959.00           2271         296.00      1273.81
 1239.61        2959.25           2275         308.00      1326.13
 1239.64        2959.50           2278         298.00      1282.53
 1239.67        2959.75           2282         323.00      1391.52
 1239.70        2960.00           2285         307.00      1321.77
 1239.73        2960.25           2289         329.00      1417.68
 1239.76        2960.50           2293         338.00      1456.92
 1239.79        2960.75           2296         364.00      1570.27
 1239.82        2961.00           2300         453.00      1958.28
 1239.85        2961.25           2303         841.00      3649.97
 1239.88        2961.50           2307        3033.00     13210.82
 1239.91        2961.75           2310        6064.00     26441.38
 1239.94        2962.00           2314       11016.00     48082.90
 1239.97        2962.25           2317       14828.00     64764.08
 1240.01        2962.50           2321       19874.00     86874.35
 1240.04        2962.75           2324       24144.00    105610.50
 1240.07        2963.00           2328       30056.00    131590.90
 1240.10        2963.25           2331       34531.00    151287.10
 1240.13        2963.50           2335       39790.00    174467.80
 1240.16        2963.75           2339       45305.00    198816.30
 1240.19        2964.00           2342       49369.00    216784.70
 1240.22        2964.25           2346       55464.00    243774.10
 1240.25        2964.50           2349       59891.00    263408.70
 1240.28        2964.75           2353       65028.00    286225.30
 1240.31        2965.00           2356       68542.00    301853.70
 1240.34        2965.25           2360       74307.00    327529.50
 1240.37        2965.50           2363       78413.00    345844.10
 1240.40        2965.75           2367       83909.00    370394.70
 1240.43        2966.00           2370       87650.00    387129.30
 1240.46        2966.25           2374       92130.00    407195.00
 1240.49        2966.50           2378       94693.00    418687.00
 1240.53        2966.75           2381       95230.00    421095.90
 1240.56        2967.00           2385       95662.00    423034.10
 1240.59        2967.25           2388       95424.00    421966.30
 1240.62        2967.50           2392       95740.00    423384.10
 1240.65        2967.75           2395       95127.00    420633.80
 1240.68        2968.00           2399       92928.00    410772.10
 1240.71        2968.25           2402       89398.00    394955.20
 1240.74        2968.50           2406       84695.00    373909.10
 1240.77        2968.75           2409       81138.00    358011.50
 1240.80        2969.00           2413       75720.00    333829.60
 1240.83        2969.25           2417       70570.00    310880.80
 1240.86        2969.50           2420       66311.00    291929.50
 1240.89        2969.75           2424       60549.00    266329.30
 1240.92        2970.00           2427       56499.00    248362.20
 1240.95        2970.25           2431       50928.00    223683.40
 1240.98        2970.50           2434       46854.00    205662.40
 1241.01        2970.75           2438       41118.00    180327.20
 1241.04        2971.00           2441       36856.00    161530.70
 1241.08        2971.25           2445       30809.00    134903.30
 1241.11        2971.50           2449       24646.00    107814.70
 1241.14        2971.75           2452       20524.00     89724.91
 1241.17        2972.00           2456       14939.00     65250.10
 1241.20        2972.25           2459       11101.00     48454.65
 1241.23        2972.50           2463        6790.00     29612.19
 1241.26        2972.75           2466        3633.00     15828.92
 1241.29        2973.00           2470        1099.00      4774.97
 1241.32        2973.25           2473         493.00      2132.67
 1241.35        2973.50           2477         435.00      1879.81
 1241.38        2973.75           2481         390.00      1683.62
 1241.41        2974.00           2484         391.00      1687.98
 1241.44        2974.25           2488         337.00      1452.56
 1241.47        2974.50           2491         345.00      1487.43
 1241.50        2974.75           2495         331.00      1426.40
 1241.53        2975.00           2498         321.00      1382.80
 1241.56        2975.25           2502         315.00      1356.65
 1241.60        2975.50           2505         317.00      1365.36
 1241.63        2975.75           2509         308.00      1326.13
 1241.66        2976.00           2512         297.00      1278.17
 1241.69        2976.25           2516         305.00      1313.05
 1241.72        2976.50           2520         284.00      1221.50
 1241.75        2976.75           2523         283.00      1217.14
 1241.78        2977.00           2527         263.00      1129.95
 1241.81        2977.25           2530         311.00      1339.21
 1241.84        2977.50           2534         290.00      1247.66
 1241.87        2977.75           2537         271.00      1164.82
 1241.90        2978.00           2541         283.00      1217.14
 1241.93        2978.25           2544         278.00      1195.34
 1241.96        2978.50           2548         267.00      1147.39
 1241.99        2978.75           2552         277.00      1190.98
 1242.02        2979.00           2555         268.00      1151.75
 1242.05        2979.25           2559         279.00      1199.70
 1242.08        2979.50           2562         255.00      1095.07
 1242.12        2979.75           2566         259.00      1112.51
 1242.15        2980.00           2569         248.00      1064.55
 1242.18        2980.25           2573         238.00      1020.96
 1242.21        2980.50           2577         227.00       973.01
 1242.24        2980.75           2580         226.00       968.65
 1242.27        2981.00           2584         256.00      1099.43
 1242.30        2981.25           2587         257.00      1103.79
 1242.33        2981.50           2591         255.00      1095.07
 1242.36        2981.75           2594         238.00      1020.96
 1242.39        2982.00           2598         238.00      1020.96
 1242.42        2982.25           2601         228.00       977.36
 1242.45        2982.50           2605         246.00      1055.84
 1242.48        2982.75           2609         221.00       946.85
 1242.51        2983.00           2612         223.00       955.57
 1242.54        2983.25           2616         248.00      1064.55
 1242.57        2983.50           2619         210.00       898.89
 1242.60        2983.75           2623         238.00      1020.96
 1242.64        2984.00           2626         232.00       994.80
HS scan finished at 20:42:52
end
