************************************************************
  HS Scan of (1) Internal mercury lamp
************************************************************
Integration time is 0.2294 seconds per sample
dh040818Reading 51.44 .94 3.78pr1000
************************************************************
Dead Time -------------------------  3.4E-08 
Number of Cycles Used -------------  4 
Starting Wavelength (Angstroms) ---  2950 
Final Wavelength (Angstoms) -------  2984 
Wavelength Increment (Angstroms) --  .25 
Filter Wheel #1 Position ---------- (1) Ground quartz diffuser (ND=2.32)
Filter Wheel #2 Position ---------- (1) Neutral Density 0.494



************************************************************
HS scan start time = 01:14:05
Dark Count =  5.2 


Time (GMT)  Wavelength (Ang)  Step Number  Raw Counts  Counts/Second

   74.99        2950.00           2144          85.00       347.87
   75.18        2950.25           2147         107.00       443.77
   75.21        2950.50           2151         109.00       452.49
   75.24        2950.75           2155          95.00       391.46
   75.27        2951.00           2158          89.00       365.31
   75.30        2951.25           2162         116.00       483.01
   75.33        2951.50           2165          87.00       356.59
   75.36        2951.75           2169          87.00       356.59
   75.39        2952.00           2172         112.00       465.57
   75.42        2952.25           2176         107.00       443.77
   75.45        2952.50           2179          96.00       395.82
   75.49        2952.75           2183         108.00       448.13
   75.52        2953.00           2186         102.00       421.98
   75.55        2953.25           2190         114.00       474.29
   75.58        2953.50           2193          94.00       387.10
   75.61        2953.75           2197         113.00       469.93
   75.64        2954.00           2200          99.00       408.90
   75.67        2954.25           2204         102.00       421.98
   75.70        2954.50           2208          97.00       400.18
   75.73        2954.75           2211         106.00       439.41
   75.76        2955.00           2215         100.00       413.26
   75.79        2955.25           2218         120.00       500.44
   75.82        2955.50           2222         118.00       491.73
   75.85        2955.75           2225         101.00       417.62
   75.88        2956.00           2229         100.00       413.26
   75.91        2956.25           2232         107.00       443.77
   75.94        2956.50           2236         133.00       557.12
   75.97        2956.75           2239         134.00       561.48
   76.01        2957.00           2243         163.00       687.90
   76.04        2957.25           2246         144.00       605.07
   76.07        2957.50           2250         117.00       487.37
   76.10        2957.75           2254         110.00       456.85
   76.13        2958.00           2257         118.00       491.73
   76.16        2958.25           2261         128.00       535.32
   76.19        2958.50           2264         134.00       561.48
   76.22        2958.75           2268         126.00       526.60
   76.25        2959.00           2271         116.00       483.01
   76.28        2959.25           2275         120.00       500.44
   76.31        2959.50           2278         144.00       605.07
   76.34        2959.75           2282         145.00       609.43
   76.37        2960.00           2285         149.00       626.87
   76.40        2960.25           2289         139.00       583.27
   76.43        2960.50           2293         139.00       583.27
   76.46        2960.75           2296         155.00       653.02
   76.49        2961.00           2300         177.00       748.93
   76.53        2961.25           2303         295.00      1263.35
   76.56        2961.50           2307        1058.00      4590.08
   76.59        2961.75           2310        2365.00     10290.44
   76.62        2962.00           2314        4706.00     20506.01
   76.65        2962.25           2317        6589.00     28728.14
   76.68        2962.50           2321        8950.00     39043.95
   76.71        2962.75           2324       11062.00     48277.96
   76.74        2963.00           2328       13709.00     59859.28
   76.77        2963.25           2331       16065.00     70175.08
   76.80        2963.50           2335       19191.00     83873.55
   76.83        2963.75           2339       22128.00     96755.44
   76.86        2964.00           2342       23903.00    104546.20
   76.89        2964.25           2346       26628.00    116514.70
   76.92        2964.50           2349       28809.00    126101.00
   76.95        2964.75           2353       31883.00    139622.90
   76.98        2965.00           2356       33520.00    146828.80
   77.01        2965.25           2360       35729.00    156558.30
   77.05        2965.50           2363       38376.00    168225.40
   77.08        2965.75           2367       40348.00    176923.30
   77.11        2966.00           2370       42301.00    185542.60
   77.14        2966.25           2374       44314.00    194431.90
   77.17        2966.50           2378       45960.00    201704.60
   77.20        2966.75           2381       46018.00    201961.00
   77.23        2967.00           2385       46257.00    203017.30
   77.26        2967.25           2388       46178.00    202668.10
   77.29        2967.50           2392       46119.00    202407.40
   77.32        2967.75           2395       45448.00    199442.00
   77.35        2968.00           2399       44592.00    195660.00
   77.38        2968.25           2402       43148.00    189282.30
   77.41        2968.50           2406       40437.00    177316.00
   77.44        2968.75           2409       37842.00    165870.90
   77.47        2969.00           2413       36039.00    157924.20
   77.50        2969.25           2417       33038.00    144706.70
   77.53        2969.50           2420       31204.00    136635.00
   77.57        2969.75           2424       28319.00    123946.70
   77.60        2970.00           2427       26416.00    115583.30
   77.63        2970.25           2431       23945.00    104730.60
   77.66        2970.50           2434       22339.00     97681.34
   77.69        2970.75           2438       19525.00     85337.93
   77.72        2971.00           2441       17440.00     76198.91
   77.75        2971.25           2445       14368.00     62743.99
   77.78        2971.50           2449       11412.00     49808.78
   77.81        2971.75           2452        9363.00     40849.20
   77.84        2972.00           2456        7104.00     30977.68
   77.87        2972.25           2459        5245.00     22859.08
   77.90        2972.50           2463        2708.00     11786.76
   77.93        2972.75           2466        1293.00      5614.85
   77.96        2973.00           2470         389.00      1673.16
   77.99        2973.25           2473         215.00       914.59
   78.02        2973.50           2477         163.00       687.90
   78.05        2973.75           2481         163.00       687.90
   78.09        2974.00           2484         161.00       679.18
   78.12        2974.25           2488         137.00       574.55
   78.15        2974.50           2491         148.00       622.51
   78.18        2974.75           2495         143.00       600.71
   78.21        2975.00           2498         141.00       591.99
   78.24        2975.25           2502         150.00       631.23
   78.27        2975.50           2505         150.00       631.23
   78.30        2975.75           2509         133.00       557.12
   78.33        2976.00           2512         189.00       801.24
   78.36        2976.25           2516         126.00       526.60
   78.39        2976.50           2520         149.00       626.87
   78.42        2976.75           2523         131.00       548.40
   78.45        2977.00           2527         136.00       570.19
   78.48        2977.25           2530         131.00       548.40
   78.51        2977.50           2534         148.00       622.51
   78.54        2977.75           2537         115.00       478.65
   78.57        2978.00           2541         112.00       465.57
   78.61        2978.25           2544         136.00       570.19
   78.64        2978.50           2548         128.00       535.32
   78.67        2978.75           2552         106.00       439.41
   78.70        2979.00           2555         101.00       417.62
   78.73        2979.25           2559         103.00       426.34
   78.76        2979.50           2562         107.00       443.77
   78.79        2979.75           2566         108.00       448.13
   78.82        2980.00           2569         100.00       413.26
   78.85        2980.25           2573          98.00       404.54
   78.88        2980.50           2577         103.00       426.34
   78.91        2980.75           2580          92.00       378.38
   78.94        2981.00           2584         101.00       417.62
   78.97        2981.25           2587          89.00       365.31
   79.00        2981.50           2591          93.00       382.74
   79.03        2981.75           2594         100.00       413.26
   79.06        2982.00           2598          93.00       382.74
   79.09        2982.25           2601          94.00       387.10
   79.13        2982.50           2605          95.00       391.46
   79.16        2982.75           2609          99.00       408.90
   79.19        2983.00           2612          94.00       387.10
   79.22        2983.25           2616          96.00       395.82
   79.25        2983.50           2619          94.00       387.10
   79.28        2983.75           2623          94.00       387.10
   79.31        2984.00           2626          86.00       352.23
HS scan finished at 01:19:32
end
************************************************************
  HS Scan of (1) Internal mercury lamp
************************************************************
Integration time is 0.2294 seconds per sample
dh040818Reading 51.44 .94 4.15pr1000
************************************************************
Dead Time -------------------------  3.4E-08 
Number of Cycles Used -------------  4 
Starting Wavelength (Angstroms) ---  2950 
Final Wavelength (Angstoms) -------  2984 
Wavelength Increment (Angstroms) --  .25 
Filter Wheel #1 Position ---------- (1) Ground quartz diffuser (ND=2.32)
Filter Wheel #2 Position ---------- (1) Neutral Density 0.494



************************************************************
HS scan start time = 20:37:28
Dark Count =  13.8 


Time (GMT)  Wavelength (Ang)  Step Number  Raw Counts  Counts/Second

 1238.36        2950.00           2144          77.00       275.50
 1238.55        2950.25           2147          85.00       310.38
 1238.58        2950.50           2151          82.00       297.30
 1238.61        2950.75           2155          84.00       306.02
 1238.64        2951.00           2158          73.00       258.07
 1238.67        2951.25           2162          79.00       284.22
 1238.71        2951.50           2165          76.00       271.14
 1238.74        2951.75           2169          79.00       284.22
 1238.77        2952.00           2172          75.00       266.79
 1238.80        2952.25           2176          75.00       266.79
 1238.83        2952.50           2179          84.00       306.02
 1238.86        2952.75           2183          81.00       292.94
 1238.89        2953.00           2186          76.00       271.14
 1238.92        2953.25           2190          76.00       271.14
 1238.95        2953.50           2193          78.00       279.86
 1238.98        2953.75           2197          86.00       314.74
 1239.01        2954.00           2200          87.00       319.10
 1239.04        2954.25           2204          85.00       310.38
 1239.07        2954.50           2208          86.00       314.74
 1239.10        2954.75           2211          79.00       284.22
 1239.13        2955.00           2215          82.00       297.30
 1239.16        2955.25           2218          94.00       349.61
 1239.19        2955.50           2222          86.00       314.74
 1239.23        2955.75           2225          95.00       353.97
 1239.26        2956.00           2229          90.00       332.17
 1239.29        2956.25           2232          94.00       349.61
 1239.32        2956.50           2236          83.00       301.66
 1239.35        2956.75           2239          85.00       310.38
 1239.38        2957.00           2243          89.00       327.82
 1239.41        2957.25           2246         111.00       423.72
 1239.44        2957.50           2250         100.00       375.77
 1239.47        2957.75           2254          92.00       340.89
 1239.50        2958.00           2257          96.00       358.33
 1239.53        2958.25           2261          99.00       371.41
 1239.56        2958.50           2264         101.00       380.13
 1239.59        2958.75           2268         103.00       388.85
 1239.62        2959.00           2271         120.00       462.95
 1239.65        2959.25           2275         127.00       493.47
 1239.68        2959.50           2278         103.00       388.85
 1239.71        2959.75           2282         140.00       550.14
 1239.75        2960.00           2285         132.00       515.27
 1239.78        2960.25           2289         112.00       428.08
 1239.81        2960.50           2293         135.00       528.34
 1239.84        2960.75           2296         126.00       489.11
 1239.87        2961.00           2300         154.00       611.17
 1239.90        2961.25           2303         283.00      1173.54
 1239.93        2961.50           2307        1193.00      5141.26
 1239.96        2961.75           2310        2456.00     10649.89
 1239.99        2962.00           2314        4217.00     18334.01
 1240.02        2962.25           2317        5451.00     23720.96
 1240.05        2962.50           2321        7474.00     32556.51
 1240.08        2962.75           2324        9029.00     39351.66
 1240.11        2963.00           2328       10859.00     47352.55
 1240.14        2963.25           2331       12298.00     53647.03
 1240.17        2963.50           2335       14488.00     63231.71
 1240.20        2963.75           2339       16767.00     73212.53
 1240.23        2964.00           2342       18165.00     79338.40
 1240.27        2964.25           2346       20304.00     88716.19
 1240.30        2964.50           2349       21686.00     94778.34
 1240.33        2964.75           2353       23512.00    102791.90
 1240.36        2965.00           2356       24742.00    108192.40
 1240.39        2965.25           2360       26588.00    116301.20
 1240.42        2965.50           2363       28165.00    123231.90
 1240.45        2965.75           2367       30357.00    132870.90
 1240.48        2966.00           2370       32182.00    140900.90
 1240.51        2966.25           2374       33957.00    148715.20
 1240.54        2966.50           2378       35128.00    153872.70
 1240.57        2966.75           2381       35126.00    153863.90
 1240.60        2967.00           2385       35462.00    155344.00
 1240.63        2967.25           2388       35359.00    154890.30
 1240.66        2967.50           2392       35190.00    154145.80
 1240.69        2967.75           2395       35119.00    153833.00
 1240.72        2968.00           2399       34564.00    151388.40
 1240.75        2968.25           2402       33073.00    144822.90
 1240.78        2968.50           2406       31226.00    136694.00
 1240.82        2968.75           2409       29727.00    130099.90
 1240.85        2969.00           2413       27570.00    120616.60
 1240.88        2969.25           2417       25474.00    111407.20
 1240.91        2969.50           2420       23760.00    103880.60
 1240.94        2969.75           2424       21713.00     94896.80
 1240.97        2970.00           2427       20203.00     88273.25
 1241.00        2970.25           2431       18165.00     79338.40
 1241.03        2970.50           2434       16616.00     72551.02
 1241.06        2970.75           2438       14188.00     61918.36
 1241.09        2971.00           2441       12440.00     54268.31
 1241.12        2971.25           2445       10520.00     45870.09
 1241.15        2971.50           2449        8546.00     37240.67
 1241.18        2971.75           2452        7097.00     30909.54
 1241.21        2972.00           2456        5379.00     23406.59
 1241.24        2972.25           2459        3880.00     16863.20
 1241.27        2972.50           2463        1879.00      8133.02
 1241.31        2972.75           2466         859.00      3684.86
 1241.34        2973.00           2470         279.00      1156.10
 1241.37        2973.25           2473         168.00       672.20
 1241.40        2973.50           2477         143.00       563.22
 1241.43        2973.75           2481         131.00       510.91
 1241.46        2974.00           2484         147.00       580.66
 1241.49        2974.25           2488         116.00       445.52
 1241.52        2974.50           2491         123.00       476.03
 1241.55        2974.75           2495         149.00       589.38
 1241.58        2975.00           2498         123.00       476.03
 1241.61        2975.25           2502         109.00       415.00
 1241.64        2975.50           2505         105.00       397.56
 1241.67        2975.75           2509         126.00       489.11
 1241.70        2976.00           2512         123.00       476.03
 1241.73        2976.25           2516         104.00       393.20
 1241.76        2976.50           2520         101.00       380.13
 1241.79        2976.75           2523          94.00       349.61
 1241.83        2977.00           2527          94.00       349.61
 1241.86        2977.25           2530         108.00       410.64
 1241.89        2977.50           2534         103.00       388.85
 1241.92        2977.75           2537          98.00       367.05
 1241.95        2978.00           2541          91.00       336.53
 1241.98        2978.25           2544          91.00       336.53
 1242.01        2978.50           2548          84.00       306.02
 1242.04        2978.75           2552          89.00       327.82
 1242.07        2979.00           2555          81.00       292.94
 1242.10        2979.25           2559          86.00       314.74
 1242.13        2979.50           2562          90.00       332.17
 1242.16        2979.75           2566          85.00       310.38
 1242.19        2980.00           2569          86.00       314.74
 1242.22        2980.25           2573          87.00       319.10
 1242.25        2980.50           2577         104.00       393.20
 1242.28        2980.75           2580          91.00       336.53
 1242.31        2981.00           2584          82.00       297.30
 1242.34        2981.25           2587          88.00       323.46
 1242.38        2981.50           2591          89.00       327.82
 1242.41        2981.75           2594          85.00       310.38
 1242.44        2982.00           2598          79.00       284.22
 1242.47        2982.25           2601          80.00       288.58
 1242.50        2982.50           2605          79.00       284.22
 1242.53        2982.75           2609          83.00       301.66
 1242.56        2983.00           2612          80.00       288.58
 1242.59        2983.25           2616          75.00       266.79
 1242.62        2983.50           2619          82.00       297.30
 1242.65        2983.75           2623          80.00       288.58
 1242.68        2984.00           2626          69.00       240.63
HS scan finished at 20:42:54
end
