************************************************************
  HS Scan of (1) Internal mercury lamp
************************************************************
Integration time is 0.2294 seconds per sample
dh030818Reading 51.44 .94 3.98pr1000
************************************************************
Dead Time -------------------------  3.4E-08 
Number of Cycles Used -------------  4 
Starting Wavelength (Angstroms) ---  2950 
Final Wavelength (Angstoms) -------  2984 
Wavelength Increment (Angstroms) --  .25 
Filter Wheel #1 Position ---------- (1) Ground quartz diffuser (ND=2.32)
Filter Wheel #2 Position ---------- (1) Neutral Density 0.494



************************************************************
HS scan start time = 01:14:11
Dark Count =  7.9 


Time (GMT)  Wavelength (Ang)  Step Number  Raw Counts  Counts/Second

   75.08        2950.00           2144          93.00       370.97
   75.28        2950.25           2147          87.00       344.82
   75.31        2950.50           2151          87.00       344.82
   75.34        2950.75           2155          94.00       375.33
   75.37        2951.00           2158         114.00       462.52
   75.41        2951.25           2162          99.00       397.13
   75.44        2951.50           2165          94.00       375.33
   75.47        2951.75           2169          85.00       336.10
   75.50        2952.00           2172         100.00       401.49
   75.53        2952.25           2176          96.00       384.05
   75.56        2952.50           2179          92.00       366.61
   75.59        2952.75           2183          96.00       384.05
   75.62        2953.00           2186          99.00       397.13
   75.65        2953.25           2190          94.00       375.33
   75.68        2953.50           2193          99.00       397.13
   75.71        2953.75           2197         107.00       432.00
   75.74        2954.00           2200         100.00       401.49
   75.77        2954.25           2204         110.00       445.08
   75.80        2954.50           2208          99.00       397.13
   75.83        2954.75           2211         106.00       427.64
   75.86        2955.00           2215         106.00       427.64
   75.89        2955.25           2218         128.00       523.55
   75.93        2955.50           2222         106.00       427.64
   75.96        2955.75           2225         109.00       440.72
   75.99        2956.00           2229         150.00       619.46
   76.02        2956.25           2232         121.00       493.03
   76.05        2956.50           2236         125.00       510.47
   76.08        2956.75           2239         142.00       584.58
   76.11        2957.00           2243         121.00       493.03
   76.14        2957.25           2246         133.00       545.35
   76.17        2957.50           2250         157.00       649.97
   76.20        2957.75           2254         154.00       636.89
   76.23        2958.00           2257         163.00       676.13
   76.26        2958.25           2261         133.00       545.35
   76.29        2958.50           2264         140.00       575.86
   76.32        2958.75           2268         147.00       606.38
   76.35        2959.00           2271         176.00       732.80
   76.38        2959.25           2275         153.00       632.53
   76.41        2959.50           2278         132.00       540.99
   76.44        2959.75           2282         143.00       588.94
   76.48        2960.00           2285         146.00       602.02
   76.51        2960.25           2289         165.00       684.85
   76.54        2960.50           2293         166.00       689.21
   76.57        2960.75           2296         152.00       628.17
   76.60        2961.00           2300         256.00      1081.56
   76.63        2961.25           2303         566.00      2433.07
   76.66        2961.50           2307        1818.00      7892.70
   76.69        2961.75           2310        3353.00     14589.19
   76.72        2962.00           2314        5814.00     25331.75
   76.75        2962.25           2317        8047.00     35085.86
   76.78        2962.50           2321       10839.00     47290.89
   76.81        2962.75           2324       13103.00     57195.25
   76.84        2963.00           2328       15748.00     68774.84
   76.87        2963.25           2331       17571.00     76761.11
   76.90        2963.50           2335       20629.00     90167.46
   76.93        2963.75           2339       23754.00    103880.20
   76.96        2964.00           2342       26001.00    113748.10
   77.00        2964.25           2346       28848.00    126260.60
   77.03        2964.50           2349       31062.00    135998.40
   77.06        2964.75           2353       34108.00    149406.10
   77.09        2965.00           2356       36012.00    157793.30
   77.13        2965.25           2360       38276.00    167772.50
   77.16        2965.50           2363       39797.00    174480.60
   77.19        2965.75           2367       43530.00    190957.30
   77.22        2966.00           2370       45248.00    198546.40
   77.26        2966.25           2374       46930.00    205980.20
   77.29        2966.50           2378       47909.00    210308.90
   77.32        2966.75           2381       47727.00    209504.10
   77.35        2967.00           2385       48559.00    213183.50
   77.38        2967.25           2388       47748.00    209596.90
   77.41        2967.50           2392       48123.00    211255.20
   77.44        2967.75           2395       47592.00    208907.10
   77.47        2968.00           2399       46221.00    202846.20
   77.50        2968.25           2402       44836.00    196726.00
   77.54        2968.50           2406       41643.00    182626.10
   77.57        2968.75           2409       39676.00    173946.80
   77.60        2969.00           2413       37194.00    163002.40
   77.63        2969.25           2417       34376.00    150586.40
   77.66        2969.50           2420       32600.00    142766.80
   77.69        2969.75           2424       29895.00    130864.80
   77.72        2970.00           2427       27709.00    121253.40
   77.75        2970.25           2431       24666.00    107884.60
   77.78        2970.50           2434       23054.00    100807.40
   77.81        2970.75           2438       19914.00     87031.78
   77.84        2971.00           2441       17393.00     75981.13
   77.87        2971.25           2445       14351.00     62657.76
   77.90        2971.50           2449       11704.00     51074.23
   77.93        2971.75           2452        9803.00     42760.90
   77.96        2972.00           2456        7145.00     31145.00
   77.99        2972.25           2459        5125.00     22323.39
   78.02        2972.50           2463        2737.00     11901.50
   78.06        2972.75           2466        1308.00      5668.49
   78.09        2973.00           2470         416.00      1779.10
   78.12        2973.25           2473         200.00       837.43
   78.15        2973.50           2477         168.00       697.92
   78.18        2973.75           2481         164.00       680.49
   78.21        2974.00           2484         158.00       654.33
   78.24        2974.25           2488         142.00       584.58
   78.27        2974.50           2491         147.00       606.38
   78.30        2974.75           2495         147.00       606.38
   78.33        2975.00           2498         171.00       711.00
   78.36        2975.25           2502         138.00       567.14
   78.39        2975.50           2505         139.00       571.50
   78.42        2975.75           2509         179.00       745.88
   78.45        2976.00           2512         150.00       619.46
   78.48        2976.25           2516         145.00       597.66
   78.51        2976.50           2520         138.00       567.14
   78.54        2976.75           2523         145.00       597.66
   78.58        2977.00           2527         159.00       658.69
   78.61        2977.25           2530         178.00       741.52
   78.64        2977.50           2534         112.00       453.80
   78.67        2977.75           2537         129.00       527.91
   78.70        2978.00           2541         123.00       501.75
   78.73        2978.25           2544         140.00       575.86
   78.76        2978.50           2548         117.00       475.60
   78.79        2978.75           2552         137.00       562.78
   78.82        2979.00           2555         131.00       536.63
   78.85        2979.25           2559         107.00       432.00
   78.88        2979.50           2562         126.00       514.83
   78.91        2979.75           2566         114.00       462.52
   78.94        2980.00           2569         134.00       549.71
   78.97        2980.25           2573         122.00       497.39
   79.00        2980.50           2577         138.00       567.14
   79.03        2980.75           2580         116.00       471.24
   79.06        2981.00           2584          96.00       384.05
   79.09        2981.25           2587         100.00       401.49
   79.13        2981.50           2591         111.00       449.44
   79.16        2981.75           2594         100.00       401.49
   79.19        2982.00           2598          95.00       379.69
   79.22        2982.25           2601          99.00       397.13
   79.25        2982.50           2605         114.00       462.52
   79.28        2982.75           2609          97.00       388.41
   79.31        2983.00           2612          99.00       397.13
   79.34        2983.25           2616          87.00       344.82
   79.37        2983.50           2619          87.00       344.82
   79.40        2983.75           2623          96.00       384.05
   79.43        2984.00           2626          90.00       357.89
HS scan finished at 01:19:39
end
************************************************************
  HS Scan of (1) Internal mercury lamp
************************************************************
Integration time is 0.2294 seconds per sample
dh030818Reading 51.44 .94 4.13pr1000
************************************************************
Dead Time -------------------------  3.4E-08 
Number of Cycles Used -------------  4 
Starting Wavelength (Angstroms) ---  2950 
Final Wavelength (Angstoms) -------  2984 
Wavelength Increment (Angstroms) --  .25 
Filter Wheel #1 Position ---------- (1) Ground quartz diffuser (ND=2.32)
Filter Wheel #2 Position ---------- (1) Neutral Density 0.494



************************************************************
HS scan start time = 20:37:29
Dark Count =  11.6 


Time (GMT)  Wavelength (Ang)  Step Number  Raw Counts  Counts/Second

 1238.38        2950.00           2144          54.00       184.83
 1238.58        2950.25           2147          50.00       167.39
 1238.61        2950.50           2151          47.00       154.32
 1238.64        2950.75           2155          49.00       163.03
 1238.67        2951.00           2158          52.00       176.11
 1238.70        2951.25           2162          47.00       154.32
 1238.73        2951.50           2165          47.00       154.32
 1238.76        2951.75           2169          55.00       189.19
 1238.79        2952.00           2172          55.00       189.19
 1238.82        2952.25           2176          50.00       167.39
 1238.85        2952.50           2179          53.00       180.47
 1238.88        2952.75           2183          51.00       171.75
 1238.91        2953.00           2186          57.00       197.91
 1238.95        2953.25           2190          54.00       184.83
 1238.98        2953.50           2193          50.00       167.39
 1239.01        2953.75           2197          55.00       189.19
 1239.04        2954.00           2200          55.00       189.19
 1239.07        2954.25           2204          54.00       184.83
 1239.10        2954.50           2208          55.00       189.19
 1239.13        2954.75           2211          54.00       184.83
 1239.16        2955.00           2215          59.00       206.63
 1239.19        2955.25           2218          64.00       228.42
 1239.22        2955.50           2222          60.00       210.99
 1239.25        2955.75           2225          52.00       176.11
 1239.28        2956.00           2229          60.00       210.99
 1239.31        2956.25           2232          56.00       193.55
 1239.34        2956.50           2236          56.00       193.55
 1239.37        2956.75           2239          52.00       176.11
 1239.40        2957.00           2243          61.00       215.35
 1239.43        2957.25           2246          66.00       237.14
 1239.47        2957.50           2250          66.00       237.14
 1239.50        2957.75           2254          72.00       263.30
 1239.53        2958.00           2257          63.00       224.06
 1239.56        2958.25           2261          72.00       263.30
 1239.59        2958.50           2264          64.00       228.42
 1239.62        2958.75           2268          70.00       254.58
 1239.65        2959.00           2271          72.00       263.30
 1239.68        2959.25           2275          72.00       263.30
 1239.71        2959.50           2278          74.00       272.02
 1239.74        2959.75           2282          69.00       250.22
 1239.77        2960.00           2285          76.00       280.74
 1239.80        2960.25           2289          74.00       272.02
 1239.83        2960.50           2293          80.00       298.17
 1239.86        2960.75           2296          82.00       306.89
 1239.89        2961.00           2300          94.00       359.20
 1239.92        2961.25           2303         179.00       729.75
 1239.95        2961.50           2307         737.00      3162.50
 1239.99        2961.75           2310        1555.00      6729.53
 1240.02        2962.00           2314        2658.00     11540.71
 1240.05        2962.25           2317        3498.00     15205.77
 1240.08        2962.50           2321        4853.00     21119.78
 1240.11        2962.75           2324        5826.00     25367.99
 1240.14        2963.00           2328        7113.00     30989.04
 1240.17        2963.25           2331        8163.00     35576.58
 1240.20        2963.50           2335        9488.00     41367.65
 1240.23        2963.75           2339       10878.00     47445.27
 1240.26        2964.00           2342       11962.00     52186.68
 1240.29        2964.25           2346       13414.00     58540.12
 1240.32        2964.50           2349       14644.00     63924.32
 1240.35        2964.75           2353       15755.00     68789.31
 1240.38        2965.00           2356       16915.00     73870.57
 1240.41        2965.25           2360       18123.00     79163.97
 1240.44        2965.50           2363       19161.00     83713.96
 1240.47        2965.75           2367       20412.00     89199.49
 1240.51        2966.00           2370       21086.00     92155.78
 1240.54        2966.25           2374       21856.00     95533.88
 1240.57        2966.50           2378       22561.00     98627.49
 1240.60        2966.75           2381       22365.00     97767.34
 1240.63        2967.00           2385       22811.00     99724.66
 1240.66        2967.25           2388       22754.00     99474.49
 1240.69        2967.50           2392       22621.00     98890.79
 1240.72        2967.75           2395       22342.00     97666.42
 1240.75        2968.00           2399       21544.00     94165.00
 1240.78        2968.25           2402       20658.00     90278.43
 1240.81        2968.50           2406       19303.00     84336.51
 1240.84        2968.75           2409       18296.00     79922.21
 1240.87        2969.00           2413       16999.00     74238.60
 1240.90        2969.25           2417       15664.00     68390.76
 1240.93        2969.50           2420       14528.00     63416.46
 1240.96        2969.75           2424       13408.00     58513.87
 1240.99        2970.00           2427       12412.00     54155.42
 1241.03        2970.25           2431       11138.00     48582.37
 1241.06        2970.50           2434       10098.00     44034.50
 1241.09        2970.75           2438        8534.00     37197.85
 1241.12        2971.00           2441        7513.00     32736.51
 1241.15        2971.25           2445        6211.00     27049.28
 1241.18        2971.50           2449        5004.00     21778.98
 1241.21        2971.75           2452        4125.00     17942.07
 1241.24        2972.00           2456        2772.00     12038.06
 1241.27        2972.25           2459        1870.00      8103.37
 1241.30        2972.50           2463         877.00      3772.93
 1241.33        2972.75           2466         415.00      1758.61
 1241.36        2973.00           2470         152.00       612.04
 1241.39        2973.25           2473         107.00       415.87
 1241.42        2973.50           2477          89.00       337.41
 1241.45        2973.75           2481          84.00       315.61
 1241.48        2974.00           2484          85.00       319.97
 1241.51        2974.25           2488          80.00       298.17
 1241.54        2974.50           2491          73.00       267.66
 1241.58        2974.75           2495          77.00       285.09
 1241.61        2975.00           2498          77.00       285.09
 1241.64        2975.25           2502          73.00       267.66
 1241.67        2975.50           2505          80.00       298.17
 1241.70        2975.75           2509          66.00       237.14
 1241.73        2976.00           2512          75.00       276.38
 1241.76        2976.25           2516          65.00       232.78
 1241.79        2976.50           2520          70.00       254.58
 1241.82        2976.75           2523          69.00       250.22
 1241.85        2977.00           2527          64.00       228.42
 1241.88        2977.25           2530          67.00       241.50
 1241.91        2977.50           2534          69.00       250.22
 1241.94        2977.75           2537          63.00       224.06
 1241.97        2978.00           2541          62.00       219.71
 1242.00        2978.25           2544          60.00       210.99
 1242.03        2978.50           2548          63.00       224.06
 1242.06        2978.75           2552          65.00       232.78
 1242.10        2979.00           2555          60.00       210.99
 1242.13        2979.25           2559          71.00       258.94
 1242.16        2979.50           2562          61.00       215.35
 1242.19        2979.75           2566          66.00       237.14
 1242.22        2980.00           2569          58.00       202.27
 1242.25        2980.25           2573          62.00       219.71
 1242.28        2980.50           2577          55.00       189.19
 1242.31        2980.75           2580          53.00       180.47
 1242.34        2981.00           2584          59.00       206.63
 1242.37        2981.25           2587          53.00       180.47
 1242.40        2981.50           2591          57.00       197.91
 1242.43        2981.75           2594          57.00       197.91
 1242.46        2982.00           2598          59.00       206.63
 1242.49        2982.25           2601          49.00       163.03
 1242.52        2982.50           2605          56.00       193.55
 1242.55        2982.75           2609          50.00       167.39
 1242.58        2983.00           2612          55.00       189.19
 1242.62        2983.25           2616          59.00       206.63
 1242.65        2983.50           2619          53.00       180.47
 1242.68        2983.75           2623          60.00       210.99
 1242.71        2984.00           2626          49.00       163.03
HS scan finished at 20:42:56
end
