************************************************************
  HS Scan of (1) Internal mercury lamp
************************************************************
Integration time is 0.2294 seconds per sample
dh050818Reading 51.44 .94 3.7pr1000
************************************************************
Dead Time -------------------------  3.4E-08 
Number of Cycles Used -------------  4 
Starting Wavelength (Angstroms) ---  2950 
Final Wavelength (Angstoms) -------  2984 
Wavelength Increment (Angstroms) --  .25 
Filter Wheel #1 Position ---------- (1) Ground quartz diffuser (ND=2.32)
Filter Wheel #2 Position ---------- (1) Neutral Density 0.494



************************************************************
HS scan start time = 01:18:49
Dark Count =  3.6 


Time (GMT)  Wavelength (Ang)  Step Number  Raw Counts  Counts/Second

   79.72        2950.00           2144         101.00       424.59
   79.91        2950.25           2147          93.00       389.72
   79.94        2950.50           2151          94.00       394.08
   79.97        2950.75           2155          89.00       372.28
   80.00        2951.00           2158          94.00       394.08
   80.03        2951.25           2162          91.00       381.00
   80.06        2951.50           2165          89.00       372.28
   80.09        2951.75           2169          96.00       402.80
   80.12        2952.00           2172          97.00       407.15
   80.16        2952.25           2176         107.00       450.75
   80.19        2952.50           2179          96.00       402.80
   80.22        2952.75           2183          90.00       376.64
   80.25        2953.00           2186          95.00       398.44
   80.28        2953.25           2190          95.00       398.44
   80.31        2953.50           2193          93.00       389.72
   80.34        2953.75           2197         103.00       433.31
   80.37        2954.00           2200          95.00       398.44
   80.40        2954.25           2204         103.00       433.31
   80.43        2954.50           2208         103.00       433.31
   80.46        2954.75           2211         104.00       437.67
   80.49        2955.00           2215         144.00       612.04
   80.52        2955.25           2218          93.00       389.72
   80.55        2955.50           2222          99.00       415.87
   80.58        2955.75           2225         101.00       424.59
   80.61        2956.00           2229         111.00       468.19
   80.64        2956.25           2232         108.00       455.11
   80.67        2956.50           2236         106.00       446.39
   80.71        2956.75           2239          98.00       411.51
   80.74        2957.00           2243         125.00       529.22
   80.77        2957.25           2246         131.00       555.37
   80.80        2957.50           2250         121.00       511.78
   80.83        2957.75           2254         113.00       476.90
   80.86        2958.00           2257         181.00       773.34
   80.89        2958.25           2261         128.00       542.29
   80.92        2958.50           2264         130.00       551.01
   80.95        2958.75           2268         134.00       568.45
   80.98        2959.00           2271         127.00       537.93
   81.01        2959.25           2275         136.00       577.17
   81.04        2959.50           2278         139.00       590.25
   81.07        2959.75           2282         145.00       616.40
   81.10        2960.00           2285         152.00       646.92
   81.13        2960.25           2289         159.00       677.43
   81.16        2960.50           2293         144.00       612.04
   81.19        2960.75           2296         145.00       616.40
   81.23        2961.00           2300         176.00       751.54
   81.26        2961.25           2303         315.00      1357.52
   81.29        2961.50           2307        1052.00      4570.89
   81.32        2961.75           2310        2252.00      9804.49
   81.35        2962.00           2314        4674.00     20373.31
   81.38        2962.25           2317        6753.00     29451.45
   81.41        2962.50           2321        9233.00     40287.94
   81.44        2962.75           2324       11251.00     49111.58
   81.47        2963.00           2328       13297.00     58063.08
   81.50        2963.25           2331       15209.00     66433.24
   81.53        2963.50           2335       17849.00     77998.21
   81.56        2963.75           2339       20621.00     90151.24
   81.59        2964.00           2342       22415.00     98021.88
   81.62        2964.25           2346       25049.00    109585.40
   81.65        2964.50           2349       27083.00    118521.10
   81.68        2964.75           2353       30106.00    131811.70
   81.71        2965.00           2356       33726.00    147742.90
   81.75        2965.25           2360       35759.00    156697.50
   81.78        2965.50           2363       37581.00    164727.40
   81.81        2965.75           2367       39920.00    175042.10
   81.84        2966.00           2370       42458.00    186242.70
   81.87        2966.25           2374       44393.00    194787.90
   81.90        2966.50           2378       45197.00    198340.00
   81.93        2966.75           2381       45498.00    199670.00
   81.96        2967.00           2385       45815.00    201070.90
   81.99        2967.25           2388       46820.00    205513.00
   82.02        2967.50           2392       46668.00    204841.00
   82.05        2967.75           2395       46135.00    202485.10
   82.08        2968.00           2399       44470.00    195128.10
   82.11        2968.25           2402       42822.00    187849.90
   82.14        2968.50           2406       40408.00    177195.10
   82.17        2968.75           2409       38699.00    169656.70
   82.20        2969.00           2413       36294.00    159054.90
   82.23        2969.25           2417       33638.00    147355.40
   82.27        2969.50           2420       31623.00    138485.80
   82.30        2969.75           2424       28698.00    125620.00
   82.33        2970.00           2427       26539.00    116130.70
   82.36        2970.25           2431       23310.00    101950.00
   82.39        2970.50           2434       21824.00     95428.57
   82.42        2970.75           2438       19116.00     83551.75
   82.45        2971.00           2441       17156.00     74961.52
   82.48        2971.25           2445       14258.00     62269.45
   82.51        2971.50           2449       11316.00     49395.88
   82.54        2971.75           2452        9446.00     41219.02
   82.57        2972.00           2456        6849.00     29870.78
   82.60        2972.25           2459        4914.00     21421.00
   82.63        2972.50           2463        2789.00     12147.13
   82.66        2972.75           2466        1508.00      6559.44
   82.69        2973.00           2470         448.00      1937.36
   82.72        2973.25           2473         207.00       886.69
   82.75        2973.50           2477         165.00       703.59
   82.79        2973.75           2481         165.00       703.59
   82.82        2974.00           2484         150.00       638.20
   82.85        2974.25           2488         153.00       651.28
   82.88        2974.50           2491         149.00       633.84
   82.91        2974.75           2495         156.00       664.36
   82.94        2975.00           2498         154.00       655.64
   82.97        2975.25           2502         149.00       633.84
   83.00        2975.50           2505         120.00       507.42
   83.04        2975.75           2509         143.00       607.68
   83.08        2976.00           2512         156.00       664.36
   83.11        2976.25           2516         140.00       594.61
   83.14        2976.50           2520         136.00       577.17
   83.17        2976.75           2523         152.00       646.92
   83.20        2977.00           2527         142.00       603.33
   83.23        2977.25           2530         135.00       572.81
   83.26        2977.50           2534         130.00       551.01
   83.29        2977.75           2537         120.00       507.42
   83.32        2978.00           2541         115.00       485.62
   83.35        2978.25           2544         115.00       485.62
   83.38        2978.50           2548         128.00       542.29
   83.41        2978.75           2552         123.00       520.50
   83.44        2979.00           2555         143.00       607.68
   83.47        2979.25           2559         115.00       485.62
   83.50        2979.50           2562          99.00       415.87
   83.53        2979.75           2566         156.00       664.36
   83.56        2980.00           2569         116.00       489.98
   83.60        2980.25           2573         107.00       450.75
   83.63        2980.50           2577          89.00       372.28
   83.66        2980.75           2580         125.00       529.22
   83.69        2981.00           2584         121.00       511.78
   83.72        2981.25           2587         100.00       420.23
   83.75        2981.50           2591          97.00       407.15
   83.78        2981.75           2594          98.00       411.51
   83.81        2982.00           2598          99.00       415.87
   83.84        2982.25           2601         102.00       428.95
   83.87        2982.50           2605          88.00       367.92
   83.90        2982.75           2609         101.00       424.59
   83.93        2983.00           2612         105.00       442.03
   83.96        2983.25           2616          86.00       359.20
   83.99        2983.50           2619          95.00       398.44
   84.02        2983.75           2623          94.00       394.08
   84.05        2984.00           2626          92.00       385.36
HS scan finished at 01:24:16
end
************************************************************
  HS Scan of (1) Internal mercury lamp
************************************************************
Integration time is 0.2294 seconds per sample
dh050818Reading 51.44 .94 4.25pr1000
************************************************************
Dead Time -------------------------  3.4E-08 
Number of Cycles Used -------------  4 
Starting Wavelength (Angstroms) ---  2950 
Final Wavelength (Angstoms) -------  2984 
Wavelength Increment (Angstroms) --  .25 
Filter Wheel #1 Position ---------- (1) Ground quartz diffuser (ND=2.32)
Filter Wheel #2 Position ---------- (1) Neutral Density 0.494



************************************************************
HS scan start time = 20:37:26
Dark Count =  16.4 


Time (GMT)  Wavelength (Ang)  Step Number  Raw Counts  Counts/Second

 1238.33        2950.00           2144          72.00       242.37
 1238.52        2950.25           2147          81.00       281.61
 1238.55        2950.50           2151          68.00       224.94
 1238.58        2950.75           2155          75.00       255.45
 1238.61        2951.00           2158          76.00       259.81
 1238.65        2951.25           2162          75.00       255.45
 1238.68        2951.50           2165          79.00       272.89
 1238.71        2951.75           2169          81.00       281.61
 1238.74        2952.00           2172          73.00       246.73
 1238.77        2952.25           2176          67.00       220.58
 1238.80        2952.50           2179          69.00       229.30
 1238.83        2952.75           2183          75.00       255.45
 1238.86        2953.00           2186          67.00       220.58
 1238.89        2953.25           2190          76.00       259.81
 1238.92        2953.50           2193          82.00       285.97
 1238.95        2953.75           2197          73.00       246.73
 1238.98        2954.00           2200          68.00       224.94
 1239.01        2954.25           2204          81.00       281.61
 1239.04        2954.50           2208          79.00       272.89
 1239.07        2954.75           2211          78.00       268.53
 1239.10        2955.00           2215          83.00       290.33
 1239.13        2955.25           2218          81.00       281.61
 1239.17        2955.50           2222          86.00       303.40
 1239.20        2955.75           2225          78.00       268.53
 1239.23        2956.00           2229          86.00       303.40
 1239.26        2956.25           2232          83.00       290.33
 1239.29        2956.50           2236          82.00       285.97
 1239.32        2956.75           2239          92.00       329.56
 1239.35        2957.00           2243          87.00       307.76
 1239.38        2957.25           2246          80.00       277.25
 1239.41        2957.50           2250          88.00       312.12
 1239.44        2957.75           2254          87.00       307.76
 1239.47        2958.00           2257          88.00       312.12
 1239.50        2958.25           2261          89.00       316.48
 1239.53        2958.50           2264          85.00       299.04
 1239.56        2958.75           2268         105.00       386.23
 1239.59        2959.00           2271          94.00       338.28
 1239.62        2959.25           2275          98.00       355.71
 1239.65        2959.50           2278         103.00       377.51
 1239.69        2959.75           2282         104.00       381.87
 1239.72        2960.00           2285         103.00       377.51
 1239.75        2960.25           2289         121.00       455.98
 1239.78        2960.50           2293         104.00       381.87
 1239.81        2960.75           2296         108.00       399.31
 1239.84        2961.00           2300         112.00       416.75
 1239.87        2961.25           2303         200.00       800.37
 1239.90        2961.50           2307         752.00      3206.98
 1239.93        2961.75           2310        1579.00      6813.26
 1239.96        2962.00           2314        3000.00     13011.86
 1239.99        2962.25           2317        3998.00     17366.84
 1240.02        2962.50           2321        5573.00     24242.29
 1240.05        2962.75           2324        6740.00     29338.76
 1240.08        2963.00           2328        8631.00     37600.79
 1240.11        2963.25           2331        9990.00     43541.31
 1240.14        2963.50           2335       12006.00     52358.17
 1240.17        2963.75           2339       13639.00     59503.87
 1240.21        2964.00           2342       14993.00     65431.37
 1240.24        2964.25           2346       16670.00     72776.19
 1240.27        2964.50           2349       18017.00     78678.37
 1240.30        2964.75           2353       19669.00     85920.19
 1240.33        2965.00           2356       20553.00     89796.84
 1240.36        2965.25           2360       22497.00     98325.55
 1240.39        2965.50           2363       23783.00    103970.20
 1240.42        2965.75           2367       25442.00    111255.30
 1240.45        2966.00           2370       26233.00    114730.00
 1240.48        2966.25           2374       27735.00    121330.40
 1240.51        2966.50           2378       28219.00    123457.90
 1240.54        2966.75           2381       28271.00    123686.50
 1240.57        2967.00           2385       28233.00    123519.40
 1240.60        2967.25           2388       28282.00    123734.80
 1240.63        2967.50           2392       28476.00    124587.70
 1240.66        2967.75           2395       28271.00    123686.50
 1240.69        2968.00           2399       27506.00    120323.90
 1240.72        2968.25           2402       26370.00    115331.90
 1240.76        2968.50           2406       25026.00    109428.20
 1240.79        2968.75           2409       24687.00    107939.40
 1240.82        2969.00           2413       22799.00     99650.92
 1240.85        2969.25           2417       21489.00     93902.63
 1240.88        2969.50           2420       20144.00     88003.12
 1240.91        2969.75           2424       18375.00     80247.43
 1240.94        2970.00           2427       17322.00     75632.78
 1240.97        2970.25           2431       15511.00     67699.68
 1241.00        2970.50           2434       14244.00     62152.12
 1241.03        2970.75           2438       12022.00     52428.16
 1241.06        2971.00           2441       10634.00     46357.23
 1241.09        2971.25           2445        8834.00     38487.99
 1241.12        2971.50           2449        7294.00     31758.78
 1241.15        2971.75           2452        6038.00     26272.81
 1241.18        2972.00           2456        4395.00     19099.58
 1241.21        2972.25           2459        3091.00     13408.90
 1241.24        2972.50           2463        1585.00      6839.43
 1241.28        2972.75           2466         808.00      3451.15
 1241.31        2973.00           2470         281.00      1153.49
 1241.34        2973.25           2473         160.00       625.99
 1241.37        2973.50           2477         132.00       503.93
 1241.40        2973.75           2481         152.00       591.12
 1241.43        2974.00           2484         149.00       578.04
 1241.46        2974.25           2488         116.00       434.18
 1241.49        2974.50           2491          97.00       351.36
 1241.52        2974.75           2495         105.00       386.23
 1241.55        2975.00           2498         102.00       373.15
 1241.58        2975.25           2502          97.00       351.36
 1241.61        2975.50           2505          99.00       360.07
 1241.64        2975.75           2509          95.00       342.64
 1241.67        2976.00           2512          95.00       342.64
 1241.70        2976.25           2516          89.00       316.48
 1241.73        2976.50           2520          97.00       351.36
 1241.77        2976.75           2523          90.00       320.84
 1241.80        2977.00           2527         108.00       399.31
 1241.83        2977.25           2530          85.00       299.04
 1241.86        2977.50           2534          82.00       285.97
 1241.89        2977.75           2537          97.00       351.36
 1241.92        2978.00           2541          94.00       338.28
 1241.95        2978.25           2544          94.00       338.28
 1241.98        2978.50           2548          86.00       303.40
 1242.01        2978.75           2552          81.00       281.61
 1242.04        2979.00           2555         109.00       403.67
 1242.07        2979.25           2559          85.00       299.04
 1242.10        2979.50           2562          84.00       294.68
 1242.13        2979.75           2566          78.00       268.53
 1242.16        2980.00           2569          87.00       307.76
 1242.19        2980.25           2573          78.00       268.53
 1242.22        2980.50           2577          91.00       325.20
 1242.25        2980.75           2580          87.00       307.76
 1242.28        2981.00           2584          76.00       259.81
 1242.32        2981.25           2587          80.00       277.25
 1242.35        2981.50           2591          71.00       238.01
 1242.38        2981.75           2594          85.00       299.04
 1242.41        2982.00           2598          73.00       246.73
 1242.44        2982.25           2601          80.00       277.25
 1242.47        2982.50           2605          74.00       251.09
 1242.50        2982.75           2609          72.00       242.37
 1242.53        2983.00           2612          77.00       264.17
 1242.56        2983.25           2616          68.00       224.94
 1242.59        2983.50           2619          69.00       229.30
 1242.62        2983.75           2623          77.00       264.17
 1242.65        2984.00           2626          71.00       238.01
HS scan finished at 20:42:53
end
