************************************************************
  HS Scan of (1) Internal mercury lamp
************************************************************
Integration time is 0.2294 seconds per sample
dh300717Reading 51.44 .94 3.45pr1000
************************************************************
Dead Time -------------------------  3.4E-08 
Number of Cycles Used -------------  4 
Starting Wavelength (Angstroms) ---  2950 
Final Wavelength (Angstoms) -------  2984 
Wavelength Increment (Angstroms) --  .25 
Filter Wheel #1 Position ---------- (1) Ground quartz diffuser (ND=2.32)
Filter Wheel #2 Position ---------- (1) Neutral Density 0.494



************************************************************
HS scan start time = 01:22:27
Dark Count =  3.2 


Time (GMT)  Wavelength (Ang)  Step Number  Raw Counts  Counts/Second

   83.35        2950.00           2144         321.00      1385.42
   83.54        2950.25           2147         316.00      1363.62
   83.57        2950.50           2151         305.00      1315.66
   83.60        2950.75           2155         308.00      1328.74
   83.63        2951.00           2158         319.00      1376.70
   83.66        2951.25           2162         322.00      1389.78
   83.70        2951.50           2165         316.00      1363.62
   83.73        2951.75           2169         307.00      1324.38
   83.76        2952.00           2172         320.00      1381.06
   83.79        2952.25           2176         335.00      1446.45
   83.82        2952.50           2179         347.00      1498.77
   83.85        2952.75           2183         325.00      1402.86
   83.88        2953.00           2186         338.00      1459.53
   83.91        2953.25           2190         323.00      1394.14
   83.94        2953.50           2193         345.00      1490.05
   83.97        2953.75           2197         337.00      1455.17
   84.00        2954.00           2200         346.00      1494.41
   84.03        2954.25           2204         377.00      1629.56
   84.06        2954.50           2208         344.00      1485.69
   84.09        2954.75           2211         354.00      1529.29
   84.12        2955.00           2215         341.00      1472.61
   84.15        2955.25           2218         361.00      1559.80
   84.19        2955.50           2222         331.00      1429.01
   84.22        2955.75           2225         382.00      1651.36
   84.25        2956.00           2229         362.00      1564.16
   84.28        2956.25           2232         367.00      1585.96
   84.31        2956.50           2236         374.00      1616.48
   84.34        2956.75           2239         375.00      1620.84
   84.37        2957.00           2243         406.00      1755.99
   84.40        2957.25           2246         381.00      1647.00
   84.43        2957.50           2250         386.00      1668.80
   84.46        2957.75           2254         395.00      1708.03
   84.49        2958.00           2257         397.00      1716.75
   84.52        2958.25           2261         424.00      1834.46
   84.55        2958.50           2264         425.00      1838.82
   84.58        2958.75           2268         422.00      1825.75
   84.61        2959.00           2271         430.00      1860.62
   84.64        2959.25           2275         430.00      1860.62
   84.67        2959.50           2278         437.00      1891.14
   84.71        2959.75           2282         422.00      1825.75
   84.74        2960.00           2285         451.00      1952.18
   84.77        2960.25           2289         448.00      1939.10
   84.80        2960.50           2293         498.00      2157.09
   84.83        2960.75           2296         520.00      2253.01
   84.86        2961.00           2300         578.00      2505.88
   84.90        2961.25           2303        1045.00      4542.11
   84.93        2961.50           2307        3597.00     15674.44
   84.96        2961.75           2310        7506.00     32742.62
   84.99        2962.00           2314       14402.00     62901.60
   85.02        2962.25           2317       20483.00     89547.74
   85.05        2962.50           2321       28986.00    126888.00
   85.08        2962.75           2324       34996.00    153337.90
   85.11        2963.00           2328       42461.00    186257.80
   85.14        2963.25           2331       48074.00    211059.30
   85.17        2963.50           2335       56046.00    246356.60
   85.20        2963.75           2339       64832.00    285356.80
   85.23        2964.00           2342       71002.00    312807.00
   85.26        2964.25           2346       79478.00    350600.90
   85.29        2964.50           2349       84831.00    374520.00
   85.32        2964.75           2353       92882.00    410568.50
   85.35        2965.00           2356       98019.00    433616.20
   85.38        2965.25           2360      105339.00    466521.10
   85.42        2965.50           2363      110661.00    490491.20
   85.45        2965.75           2367      118690.00    526728.40
   85.48        2966.00           2370      124616.00    553532.00
   85.51        2966.25           2374      130960.00    582281.00
   85.54        2966.50           2378      134525.00    598461.40
   85.57        2966.75           2381      135352.00    602217.40
   85.60        2967.00           2385      135935.00    604866.00
   85.63        2967.25           2388      135682.00    603716.60
   85.66        2967.50           2392      135209.00    601567.90
   85.69        2967.75           2395      135359.00    602249.30
   85.72        2968.00           2399      132091.00    587412.30
   85.75        2968.25           2402      127269.00    565547.60
   85.78        2968.50           2406      120710.00    535859.40
   85.81        2968.75           2409      115036.00    510225.70
   85.84        2969.00           2413      107583.00    476623.20
   85.87        2969.25           2417       99964.00    442352.10
   85.90        2969.50           2420       94483.00    417747.70
   85.94        2969.75           2424       86705.00    382902.90
   85.97        2970.00           2427       80844.00    356700.90
   86.00        2970.25           2431       72332.00    318731.00
   86.03        2970.50           2434       67004.00    295014.10
   86.06        2970.75           2438       58741.00    258308.40
   86.09        2971.00           2441       52150.00    229095.80
   86.12        2971.25           2445       44268.00    194237.60
   86.15        2971.50           2449       36436.00    159682.40
   86.18        2971.75           2452       30539.00    133718.20
   86.21        2972.00           2456       23237.00    101631.30
   86.24        2972.25           2459       17833.00     77929.85
   86.27        2972.50           2463        9974.00     43529.07
   86.30        2972.75           2466        4846.00     21125.89
   86.33        2973.00           2470        1322.00      5750.03
   86.36        2973.25           2473         703.00      3050.88
   86.39        2973.50           2477         563.00      2440.48
   86.42        2973.75           2481         514.00      2226.85
   86.45        2974.00           2484         496.00      2148.37
   86.49        2974.25           2488         491.00      2126.57
   86.52        2974.50           2491         480.00      2078.61
   86.55        2974.75           2495         469.00      2030.65
   86.58        2975.00           2498         463.00      2004.50
   86.61        2975.25           2502         450.00      1947.82
   86.64        2975.50           2505         449.00      1943.46
   86.67        2975.75           2509         435.00      1882.42
   86.70        2976.00           2512         437.00      1891.14
   86.73        2976.25           2516         428.00      1851.90
   86.76        2976.50           2520         429.00      1856.26
   86.79        2976.75           2523         404.00      1747.27
   86.82        2977.00           2527         401.00      1734.19
   86.85        2977.25           2530         413.00      1786.51
   86.88        2977.50           2534         386.00      1668.80
   86.91        2977.75           2537         384.00      1660.08
   86.94        2978.00           2541         406.00      1755.99
   86.97        2978.25           2544         360.00      1555.44
   87.01        2978.50           2548         395.00      1708.03
   87.04        2978.75           2552         388.00      1677.51
   87.07        2979.00           2555         368.00      1590.32
   87.10        2979.25           2559         366.00      1581.60
   87.13        2979.50           2562         377.00      1629.56
   87.16        2979.75           2566         369.00      1594.68
   87.19        2980.00           2569         347.00      1498.77
   87.22        2980.25           2573         350.00      1511.85
   87.25        2980.50           2577         371.00      1603.40
   87.28        2980.75           2580         348.00      1503.13
   87.31        2981.00           2584         345.00      1490.05
   87.35        2981.25           2587         359.00      1551.08
   87.38        2981.50           2591         338.00      1459.53
   87.41        2981.75           2594         390.00      1686.23
   87.44        2982.00           2598         342.00      1476.97
   87.47        2982.25           2601         339.00      1463.89
   87.50        2982.50           2605         334.00      1442.09
   87.53        2982.75           2609         353.00      1524.93
   87.56        2983.00           2612         347.00      1498.77
   87.59        2983.25           2616         328.00      1415.94
   87.62        2983.50           2619         325.00      1402.86
   87.65        2983.75           2623         313.00      1350.54
   87.68        2984.00           2626         323.00      1394.14
HS scan finished at 01:27:55
end
************************************************************
  HS Scan of (1) Internal mercury lamp
************************************************************
Integration time is 0.2294 seconds per sample
dh300717Reading 51.44 .94 3.54pr1000
************************************************************
Dead Time -------------------------  3.4E-08 
Number of Cycles Used -------------  4 
Starting Wavelength (Angstroms) ---  2950 
Final Wavelength (Angstoms) -------  2984 
Wavelength Increment (Angstroms) --  .25 
Filter Wheel #1 Position ---------- (1) Ground quartz diffuser (ND=2.32)
Filter Wheel #2 Position ---------- (1) Neutral Density 0.494



************************************************************
HS scan start time = 20:37:23
Dark Count =  3.1 


Time (GMT)  Wavelength (Ang)  Step Number  Raw Counts  Counts/Second

 1238.28        2950.00           2144         265.00      1141.72
 1238.47        2950.25           2147         264.00      1137.36
 1238.50        2950.50           2151         281.00      1211.47
 1238.53        2950.75           2155         290.00      1250.71
 1238.56        2951.00           2158         285.00      1228.91
 1238.59        2951.25           2162         278.00      1198.39
 1238.62        2951.50           2165         282.00      1215.83
 1238.65        2951.75           2169         278.00      1198.39
 1238.69        2952.00           2172         285.00      1228.91
 1238.72        2952.25           2176         295.00      1272.50
 1238.75        2952.50           2179         288.00      1241.99
 1238.78        2952.75           2183         300.00      1294.30
 1238.81        2953.00           2186         293.00      1263.79
 1238.84        2953.25           2190         296.00      1276.86
 1238.87        2953.50           2193         300.00      1294.30
 1238.90        2953.75           2197         303.00      1307.38
 1238.93        2954.00           2200         307.00      1324.82
 1238.96        2954.25           2204         301.00      1298.66
 1238.99        2954.50           2208         298.00      1285.58
 1239.02        2954.75           2211         315.00      1359.70
 1239.05        2955.00           2215         319.00      1377.14
 1239.08        2955.25           2218         319.00      1377.14
 1239.11        2955.50           2222         320.00      1381.49
 1239.15        2955.75           2225         299.00      1289.94
 1239.18        2956.00           2229         311.00      1342.26
 1239.22        2956.25           2232         321.00      1385.85
 1239.25        2956.50           2236         335.00      1446.89
 1239.28        2956.75           2239         321.00      1385.85
 1239.31        2957.00           2243         327.00      1412.01
 1239.34        2957.25           2246         338.00      1459.97
 1239.37        2957.50           2250         335.00      1446.89
 1239.40        2957.75           2254         338.00      1459.97
 1239.43        2958.00           2257         346.00      1494.84
 1239.46        2958.25           2261         358.00      1547.16
 1239.49        2958.50           2264         355.00      1534.08
 1239.52        2958.75           2268         369.00      1595.12
 1239.55        2959.00           2271         380.00      1643.07
 1239.58        2959.25           2275         378.00      1634.35
 1239.61        2959.50           2278         392.00      1695.39
 1239.64        2959.75           2282         408.00      1765.15
 1239.67        2960.00           2285         411.00      1778.22
 1239.70        2960.25           2289         413.00      1786.94
 1239.74        2960.50           2293         426.00      1843.62
 1239.77        2960.75           2296         452.00      1956.97
 1239.80        2961.00           2300         486.00      2105.21
 1239.83        2961.25           2303         908.00      3945.17
 1239.86        2961.50           2307        3471.00     15125.04
 1239.89        2961.75           2310        7185.00     31340.70
 1239.92        2962.00           2314       12765.00     55737.18
 1239.95        2962.25           2317       17554.00     76707.66
 1239.98        2962.50           2321       23793.00    104072.50
 1240.01        2962.75           2324       28762.00    125903.60
 1240.04        2963.00           2328       34866.00    152765.70
 1240.07        2963.25           2331       39999.00    175392.90
 1240.10        2963.50           2335       47079.00    206660.20
 1240.13        2963.75           2339       54263.00    238455.10
 1240.16        2964.00           2342       59714.00    262626.30
 1240.19        2964.25           2346       66357.00    292137.10
 1240.23        2964.50           2349       70866.00    312201.90
 1240.26        2964.75           2353       77626.00    342335.10
 1240.29        2965.00           2356       82691.00    364953.50
 1240.32        2965.25           2360       89573.00    395742.10
 1240.35        2965.50           2363       94650.00    418497.20
 1240.38        2965.75           2367      100906.00    446585.50
 1240.41        2966.00           2370      105334.00    466499.00
 1240.44        2966.25           2374      110487.00    489707.40
 1240.47        2966.50           2378      115425.00    511982.10
 1240.50        2966.75           2381      116582.00    517206.10
 1240.53        2967.00           2385      116923.00    518746.10
 1240.56        2967.25           2388      116763.00    518023.50
 1240.59        2967.50           2392      117270.00    520313.40
 1240.62        2967.75           2395      117133.00    519694.60
 1240.65        2968.00           2399      114429.00    507486.60
 1240.68        2968.25           2402      110581.00    490131.10
 1240.71        2968.50           2406      104386.00    462233.40
 1240.74        2968.75           2409       99682.00    441085.70
 1240.78        2969.00           2413       92760.00    410022.00
 1240.81        2969.25           2417       85753.00    378644.20
 1240.84        2969.50           2420       80901.00    356956.00
 1240.87        2969.75           2424       73848.00    325486.70
 1240.90        2970.00           2427       68662.00    302390.80
 1240.93        2970.25           2431       61937.00    272495.10
 1240.96        2970.50           2434       56784.00    249628.90
 1240.99        2970.75           2438       48535.00    213098.60
 1241.02        2971.00           2441       43638.00    191455.40
 1241.05        2971.25           2445       37126.00    162723.90
 1241.08        2971.50           2449       30477.00    133445.90
 1241.11        2971.75           2452       25868.00    113185.00
 1241.14        2972.00           2456       19368.00     84658.78
 1241.17        2972.25           2459       13918.00     60783.29
 1241.20        2972.50           2463        7241.00     31585.34
 1241.23        2972.75           2466        3709.00     16163.63
 1241.26        2973.00           2470        1195.00      5196.65
 1241.30        2973.25           2473         607.00      2632.76
 1241.33        2973.50           2477         481.00      2083.41
 1241.36        2973.75           2481         450.00      1948.25
 1241.39        2974.00           2484         436.00      1887.22
 1241.42        2974.25           2488         424.00      1834.90
 1241.45        2974.50           2491         422.00      1826.18
 1241.48        2974.75           2495         409.00      1769.50
 1241.51        2975.00           2498         436.00      1887.22
 1241.54        2975.25           2502         403.00      1743.35
 1241.57        2975.50           2505         408.00      1765.15
 1241.60        2975.75           2509         386.00      1669.23
 1241.63        2976.00           2512         383.00      1656.15
 1241.66        2976.25           2516         373.00      1612.56
 1241.69        2976.50           2520         377.00      1629.99
 1241.72        2976.75           2523         375.00      1621.27
 1241.75        2977.00           2527         365.00      1577.68
 1241.78        2977.25           2530         337.00      1455.61
 1241.82        2977.50           2534         368.00      1590.76
 1241.85        2977.75           2537         334.00      1442.53
 1241.88        2978.00           2541         333.00      1438.17
 1241.91        2978.25           2544         327.00      1412.01
 1241.94        2978.50           2548         332.00      1433.81
 1241.97        2978.75           2552         316.00      1364.06
 1242.00        2979.00           2555         322.00      1390.21
 1242.03        2979.25           2559         330.00      1425.09
 1242.06        2979.50           2562         315.00      1359.70
 1242.09        2979.75           2566         303.00      1307.38
 1242.12        2980.00           2569         307.00      1324.82
 1242.15        2980.25           2573         300.00      1294.30
 1242.18        2980.50           2577         318.00      1372.78
 1242.21        2980.75           2580         303.00      1307.38
 1242.24        2981.00           2584         303.00      1307.38
 1242.27        2981.25           2587         303.00      1307.38
 1242.30        2981.50           2591         299.00      1289.94
 1242.34        2981.75           2594         317.00      1368.42
 1242.37        2982.00           2598         295.00      1272.50
 1242.40        2982.25           2601         287.00      1237.63
 1242.43        2982.50           2605         285.00      1228.91
 1242.46        2982.75           2609         295.00      1272.50
 1242.49        2983.00           2612         298.00      1285.58
 1242.52        2983.25           2616         280.00      1207.11
 1242.55        2983.50           2619         299.00      1289.94
 1242.58        2983.75           2623         296.00      1276.86
 1242.61        2984.00           2626         283.00      1220.19
HS scan finished at 20:42:50
end
