************************************************************
  HS Scan of (1) Internal mercury lamp
************************************************************
Integration time is 0.2294 seconds per sample
dh070818Reading 51.44 .94 3.72pr1000
************************************************************
Dead Time -------------------------  3.4E-08 
Number of Cycles Used -------------  4 
Starting Wavelength (Angstroms) ---  2950 
Final Wavelength (Angstoms) -------  2984 
Wavelength Increment (Angstroms) --  .25 
Filter Wheel #1 Position ---------- (1) Ground quartz diffuser (ND=2.32)
Filter Wheel #2 Position ---------- (1) Neutral Density 0.494



************************************************************
HS scan start time = 01:21:47
Dark Count =  3.9 


Time (GMT)  Wavelength (Ang)  Step Number  Raw Counts  Counts/Second

   82.68        2950.00           2144          58.00       235.83
   82.88        2950.25           2147          76.00       314.30
   82.91        2950.50           2151          65.00       266.35
   82.94        2950.75           2155          71.00       292.51
   82.97        2951.00           2158          63.00       257.63
   83.00        2951.25           2162          80.00       331.74
   83.03        2951.50           2165          74.00       305.58
   83.06        2951.75           2169          72.00       296.86
   83.09        2952.00           2172          70.00       288.15
   83.12        2952.25           2176          70.00       288.15
   83.15        2952.50           2179          74.00       305.58
   83.18        2952.75           2183          73.00       301.22
   83.21        2953.00           2186          75.00       309.94
   83.25        2953.25           2190          68.00       279.43
   83.28        2953.50           2193          90.00       375.33
   83.31        2953.75           2197          73.00       301.22
   83.34        2954.00           2200          76.00       314.30
   83.37        2954.25           2204          75.00       309.94
   83.40        2954.50           2208          78.00       323.02
   83.43        2954.75           2211          74.00       305.58
   83.46        2955.00           2215          73.00       301.22
   83.49        2955.25           2218          79.00       327.38
   83.52        2955.50           2222          81.00       336.10
   83.55        2955.75           2225          84.00       349.18
   83.58        2956.00           2229          77.00       318.66
   83.61        2956.25           2232          82.00       340.46
   83.64        2956.50           2236          80.00       331.74
   83.67        2956.75           2239          85.00       353.54
   83.70        2957.00           2243          90.00       375.33
   83.73        2957.25           2246          83.00       344.82
   83.77        2957.50           2250          89.00       370.97
   83.80        2957.75           2254         114.00       479.96
   83.83        2958.00           2257          87.00       362.25
   83.86        2958.25           2261          97.00       405.85
   83.89        2958.50           2264          98.00       410.21
   83.92        2958.75           2268         100.00       418.92
   83.95        2959.00           2271          95.00       397.13
   83.98        2959.25           2275          93.00       388.41
   84.01        2959.50           2278         103.00       432.00
   84.04        2959.75           2282         138.00       584.58
   84.07        2960.00           2285         105.00       440.72
   84.10        2960.25           2289         102.00       427.64
   84.13        2960.50           2293         108.00       453.80
   84.16        2960.75           2296         147.00       623.81
   84.19        2961.00           2300         175.00       745.88
   84.22        2961.25           2303         439.00      1896.81
   84.25        2961.50           2307        1524.00      6627.91
   84.29        2961.75           2310        2586.00     11260.20
   84.32        2962.00           2314        4200.00     18303.02
   84.35        2962.25           2317        5483.00     23903.90
   84.38        2962.50           2321        7227.00     31520.69
   84.41        2962.75           2324        8419.00     36728.92
   84.44        2963.00           2328       10092.00     44041.93
   84.47        2963.25           2331       11837.00     51673.53
   84.50        2963.50           2335       13953.00     60932.99
   84.53        2963.75           2339       15645.00     68341.26
   84.56        2964.00           2342       17346.00     75792.71
   84.59        2964.25           2346       18941.00     82783.25
   84.62        2964.50           2349       20100.00     87864.98
   84.65        2964.75           2353       21813.00     95378.99
   84.68        2965.00           2356       23310.00    101948.70
   84.71        2965.25           2360       25416.00    111196.00
   84.74        2965.50           2363       26648.00    116608.30
   84.77        2965.75           2367       28467.00    124603.10
   84.81        2966.00           2370       29503.00    129158.40
   84.84        2966.25           2374       31056.00    135989.60
   84.87        2966.50           2378       31927.00    139822.20
   84.90        2966.75           2381       32603.00    142797.60
   84.93        2967.00           2385       32262.00    141296.60
   84.96        2967.25           2388       32299.00    141459.50
   84.99        2967.50           2392       32513.00    142401.40
   85.02        2967.75           2395       31932.00    139844.20
   85.05        2968.00           2399       31073.00    136064.40
   85.08        2968.25           2402       29661.00    129853.20
   85.11        2968.50           2406       28436.00    124466.80
   85.14        2968.75           2409       27097.00    118581.30
   85.17        2969.00           2413       25088.00    109755.40
   85.20        2969.25           2417       23270.00    101773.10
   85.23        2969.50           2420       21474.00     93891.68
   85.26        2969.75           2424       19757.00     86360.88
   85.29        2970.00           2427       18274.00     79859.53
   85.33        2970.25           2431       16416.00     71718.26
   85.36        2970.50           2434       14639.00     63936.13
   85.39        2970.75           2438       12735.00     55602.40
   85.42        2971.00           2441       11417.00     49836.33
   85.45        2971.25           2445        9497.00     41440.65
   85.48        2971.50           2449        7756.00     33831.83
   85.51        2971.75           2452        6279.00     27379.88
   85.54        2972.00           2456        4305.00     18761.31
   85.57        2972.25           2459        2964.00     12909.33
   85.60        2972.50           2463        1488.00      6470.91
   85.63        2972.75           2466         665.00      2882.15
   85.66        2973.00           2470         220.00       942.05
   85.69        2973.25           2473         149.00       632.53
   85.72        2973.50           2477         128.00       540.99
   85.75        2973.75           2481         124.00       523.55
   85.78        2974.00           2484         115.00       484.31
   85.81        2974.25           2488         150.00       636.89
   85.85        2974.50           2491         111.00       466.88
   85.88        2974.75           2495         122.00       514.83
   85.91        2975.00           2498         125.00       527.91
   85.94        2975.25           2502          98.00       410.21
   85.97        2975.50           2505         111.00       466.88
   86.00        2975.75           2509          85.00       353.54
   86.03        2976.00           2512         113.00       475.60
   86.06        2976.25           2516          95.00       397.13
   86.09        2976.50           2520          92.00       384.05
   86.12        2976.75           2523          94.00       392.77
   86.15        2977.00           2527          84.00       349.18
   86.18        2977.25           2530          91.00       379.69
   86.21        2977.50           2534          87.00       362.25
   86.24        2977.75           2537          88.00       366.61
   86.27        2978.00           2541          81.00       336.10
   86.30        2978.25           2544         101.00       423.28
   86.33        2978.50           2548          89.00       370.97
   86.37        2978.75           2552          76.00       314.30
   86.40        2979.00           2555          86.00       357.89
   86.43        2979.25           2559          88.00       366.61
   86.46        2979.50           2562          82.00       340.46
   86.49        2979.75           2566          75.00       309.94
   86.52        2980.00           2569          76.00       314.30
   86.55        2980.25           2573          76.00       314.30
   86.58        2980.50           2577          83.00       344.82
   86.61        2980.75           2580          79.00       327.38
   86.64        2981.00           2584          76.00       314.30
   86.67        2981.25           2587          77.00       318.66
   86.70        2981.50           2591          83.00       344.82
   86.73        2981.75           2594          77.00       318.66
   86.76        2982.00           2598          74.00       305.58
   86.79        2982.25           2601          81.00       336.10
   86.82        2982.50           2605          72.00       296.86
   86.85        2982.75           2609          77.00       318.66
   86.89        2983.00           2612          82.00       340.46
   86.92        2983.25           2616          77.00       318.66
   86.95        2983.50           2619          79.00       327.38
   86.98        2983.75           2623          72.00       296.86
   87.01        2984.00           2626          76.00       314.30
HS scan finished at 01:27:14
end
************************************************************
  HS Scan of (1) Internal mercury lamp
************************************************************
Integration time is 0.2294 seconds per sample
dh070818Reading 51.44 .94 3.94pr1000
************************************************************
Dead Time -------------------------  3.4E-08 
Number of Cycles Used -------------  4 
Starting Wavelength (Angstroms) ---  2950 
Final Wavelength (Angstoms) -------  2984 
Wavelength Increment (Angstroms) --  .25 
Filter Wheel #1 Position ---------- (1) Ground quartz diffuser (ND=2.32)
Filter Wheel #2 Position ---------- (1) Neutral Density 0.494



************************************************************
HS scan start time = 20:37:27
Dark Count =  7.7 


Time (GMT)  Wavelength (Ang)  Step Number  Raw Counts  Counts/Second

 1238.35        2950.00           2144          53.00       197.47
 1238.55        2950.25           2147          58.00       219.27
 1238.58        2950.50           2151          50.00       184.40
 1238.61        2950.75           2155          50.00       184.40
 1238.64        2951.00           2158          47.00       171.32
 1238.67        2951.25           2162          50.00       184.40
 1238.70        2951.50           2165          59.00       223.63
 1238.73        2951.75           2169          45.00       162.60
 1238.76        2952.00           2172          51.00       188.75
 1238.79        2952.25           2176          51.00       188.75
 1238.82        2952.50           2179          52.00       193.11
 1238.85        2952.75           2183          57.00       214.91
 1238.88        2953.00           2186          51.00       188.75
 1238.91        2953.25           2190          51.00       188.75
 1238.95        2953.50           2193          52.00       193.11
 1238.98        2953.75           2197          62.00       236.71
 1239.01        2954.00           2200          56.00       210.55
 1239.04        2954.25           2204          58.00       219.27
 1239.07        2954.50           2208          57.00       214.91
 1239.10        2954.75           2211          56.00       210.55
 1239.13        2955.00           2215          55.00       206.19
 1239.16        2955.25           2218          54.00       201.83
 1239.19        2955.50           2222          61.00       232.35
 1239.22        2955.75           2225          61.00       232.35
 1239.25        2956.00           2229          59.00       223.63
 1239.28        2956.25           2232          61.00       232.35
 1239.31        2956.50           2236          59.00       223.63
 1239.34        2956.75           2239          55.00       206.19
 1239.37        2957.00           2243          60.00       227.99
 1239.40        2957.25           2246          60.00       227.99
 1239.43        2957.50           2250          70.00       271.58
 1239.47        2957.75           2254          61.00       232.35
 1239.50        2958.00           2257          70.00       271.58
 1239.53        2958.25           2261          62.00       236.71
 1239.56        2958.50           2264          70.00       271.58
 1239.59        2958.75           2268          62.00       236.71
 1239.62        2959.00           2271          69.00       267.22
 1239.65        2959.25           2275          72.00       280.30
 1239.68        2959.50           2278          73.00       284.66
 1239.71        2959.75           2282          63.00       241.07
 1239.74        2960.00           2285          75.00       293.38
 1239.77        2960.25           2289          71.00       275.94
 1239.80        2960.50           2293          79.00       310.81
 1239.83        2960.75           2296          72.00       280.30
 1239.86        2961.00           2300          91.00       363.13
 1239.89        2961.25           2303         157.00       650.84
 1239.92        2961.50           2307         552.00      2372.90
 1239.95        2961.75           2310        1126.00      4875.70
 1239.99        2962.00           2314        2002.00      8696.12
 1240.02        2962.25           2317        2748.00     11950.37
 1240.05        2962.50           2321        3853.00     16771.99
 1240.08        2962.75           2324        4719.00     20551.84
 1240.11        2963.00           2328        5845.00     25467.99
 1240.14        2963.25           2331        6608.00     28800.20
 1240.17        2963.50           2335        7587.00     33076.85
 1240.20        2963.75           2339        8903.00     38827.60
 1240.23        2964.00           2342        9647.00     42079.78
 1240.26        2964.25           2346       10705.00     46705.76
 1240.29        2964.50           2349       12417.00     54194.36
 1240.32        2964.75           2353       13769.00     60110.96
 1240.35        2965.00           2356       14806.00     64650.67
 1240.38        2965.25           2360       15749.00     68780.10
 1240.41        2965.50           2363       17000.00     74260.06
 1240.44        2965.75           2367       18303.00     79969.97
 1240.47        2966.00           2370       18717.00     81784.65
 1240.51        2966.25           2374       20002.00     87418.56
 1240.54        2966.50           2378       20560.00     89865.71
 1240.57        2966.75           2381       20427.00     89282.38
 1240.60        2967.00           2385       20472.00     89479.75
 1240.63        2967.25           2388       20430.00     89295.55
 1240.66        2967.50           2392       20406.00     89190.30
 1240.69        2967.75           2395       20273.00     88607.00
 1240.72        2968.00           2399       19945.00     87168.59
 1240.75        2968.25           2402       18552.00     81061.40
 1240.78        2968.50           2406       17634.00     77038.06
 1240.81        2968.75           2409       16433.00     71776.09
 1240.84        2969.00           2413       15387.00     67194.76
 1240.87        2969.25           2417       14412.00     62925.68
 1240.90        2969.50           2420       13487.00     58876.68
 1240.93        2969.75           2424       12370.00     53988.72
 1240.96        2970.00           2427       11295.00     49286.10
 1240.99        2970.25           2431       10002.00     43631.82
 1241.03        2970.50           2434        9252.00     40353.06
 1241.06        2970.75           2438        7866.00     34295.85
 1241.09        2971.00           2441        6970.00     30381.41
 1241.12        2971.25           2445        6000.00     26144.85
 1241.15        2971.50           2449        4792.00     20870.52
 1241.18        2971.75           2452        3920.00     17064.39
 1241.21        2972.00           2456        2667.00     11596.99
 1241.24        2972.25           2459        1918.00      8329.73
 1241.27        2972.50           2463         989.00      4278.30
 1241.30        2972.75           2466         478.00      2050.27
 1241.33        2973.00           2470         189.00       790.34
 1241.36        2973.25           2473         116.00       472.11
 1241.39        2973.50           2477          96.00       384.92
 1241.42        2973.75           2481          81.00       319.53
 1241.45        2974.00           2484          75.00       293.38
 1241.48        2974.25           2488          81.00       319.53
 1241.51        2974.50           2491          71.00       275.94
 1241.54        2974.75           2495          74.00       289.02
 1241.58        2975.00           2498          62.00       236.71
 1241.61        2975.25           2502          70.00       271.58
 1241.64        2975.50           2505          72.00       280.30
 1241.67        2975.75           2509          71.00       275.94
 1241.70        2976.00           2512          63.00       241.07
 1241.73        2976.25           2516          66.00       254.14
 1241.76        2976.50           2520          67.00       258.50
 1241.79        2976.75           2523          68.00       262.86
 1241.82        2977.00           2527          70.00       271.58
 1241.85        2977.25           2530          62.00       236.71
 1241.88        2977.50           2534          60.00       227.99
 1241.91        2977.75           2537          55.00       206.19
 1241.94        2978.00           2541          62.00       236.71
 1241.97        2978.25           2544          61.00       232.35
 1242.00        2978.50           2548          64.00       245.42
 1242.03        2978.75           2552          55.00       206.19
 1242.06        2979.00           2555          57.00       214.91
 1242.10        2979.25           2559          56.00       210.55
 1242.13        2979.50           2562          56.00       210.55
 1242.16        2979.75           2566          52.00       193.11
 1242.19        2980.00           2569          60.00       227.99
 1242.22        2980.25           2573          50.00       184.40
 1242.25        2980.50           2577          54.00       201.83
 1242.28        2980.75           2580          50.00       184.40
 1242.31        2981.00           2584          57.00       214.91
 1242.34        2981.25           2587          51.00       188.75
 1242.37        2981.50           2591          58.00       219.27
 1242.40        2981.75           2594          52.00       193.11
 1242.43        2982.00           2598          53.00       197.47
 1242.46        2982.25           2601          60.00       227.99
 1242.49        2982.50           2605          49.00       180.04
 1242.52        2982.75           2609          59.00       223.63
 1242.55        2983.00           2612          48.00       175.68
 1242.58        2983.25           2616          44.00       158.24
 1242.62        2983.50           2619          46.00       166.96
 1242.65        2983.75           2623          51.00       188.75
 1242.68        2984.00           2626          56.00       210.55
HS scan finished at 20:42:54
end
