************************************************************
  HS Scan of (1) Internal mercury lamp
************************************************************
Integration time is 0.2294 seconds per sample
dh020817Reading 51.44 .94 3.47pr1000
************************************************************
Dead Time -------------------------  3.4E-08 
Number of Cycles Used -------------  4 
Starting Wavelength (Angstroms) ---  2950 
Final Wavelength (Angstoms) -------  2984 
Wavelength Increment (Angstroms) --  .25 
Filter Wheel #1 Position ---------- (1) Ground quartz diffuser (ND=2.32)
Filter Wheel #2 Position ---------- (1) Neutral Density 0.494



************************************************************
HS scan start time = 01:38:06
Dark Count =  2.5 


Time (GMT)  Wavelength (Ang)  Step Number  Raw Counts  Counts/Second

   99.01        2950.00           2144         310.00      1340.51
   99.20        2950.25           2147         295.00      1275.12
   99.23        2950.50           2151         306.00      1323.08
   99.26        2950.75           2155         308.00      1331.80
   99.29        2951.00           2158         315.00      1362.31
   99.32        2951.25           2162         305.00      1318.72
   99.35        2951.50           2165         295.00      1275.12
   99.38        2951.75           2169         300.00      1296.92
   99.41        2952.00           2172         304.00      1314.36
   99.44        2952.25           2176         321.00      1388.47
   99.48        2952.50           2179         309.00      1336.15
   99.51        2952.75           2183         298.00      1288.20
   99.54        2953.00           2186         318.00      1375.39
   99.57        2953.25           2190         317.00      1371.03
   99.60        2953.50           2193         334.00      1445.15
   99.63        2953.75           2197         311.00      1344.87
   99.66        2954.00           2200         329.00      1423.35
   99.69        2954.25           2204         316.00      1366.67
   99.72        2954.50           2208         332.00      1436.43
   99.75        2954.75           2211         329.00      1423.35
   99.78        2955.00           2215         337.00      1458.22
   99.81        2955.25           2218         340.00      1471.30
   99.84        2955.50           2222         346.00      1497.46
   99.87        2955.75           2225         351.00      1519.26
   99.90        2956.00           2229         333.00      1440.79
   99.93        2956.25           2232         377.00      1632.61
   99.96        2956.50           2236         345.00      1493.10
  100.00        2956.75           2239         361.00      1562.86
  100.03        2957.00           2243         360.00      1558.50
  100.06        2957.25           2246         385.00      1667.49
  100.09        2957.50           2250         375.00      1623.89
  100.12        2957.75           2254         424.00      1837.52
  100.15        2958.00           2257         363.00      1571.57
  100.18        2958.25           2261         396.00      1715.44
  100.21        2958.50           2264         399.00      1728.52
  100.24        2958.75           2268         392.00      1698.01
  100.27        2959.00           2271         414.00      1793.92
  100.30        2959.25           2275         422.00      1828.80
  100.33        2959.50           2278         437.00      1894.19
  100.36        2959.75           2282         421.00      1824.44
  100.39        2960.00           2285         428.00      1854.96
  100.42        2960.25           2289         454.00      1968.31
  100.45        2960.50           2293         465.00      2016.27
  100.48        2960.75           2296         506.00      2195.02
  100.51        2961.00           2300         704.00      3058.30
  100.55        2961.25           2303        1777.00      7737.43
  100.58        2961.50           2307        5965.00     26014.72
  100.61        2961.75           2310       10188.00     44467.80
  100.64        2962.00           2314       16834.00     73555.56
  100.67        2962.25           2317       22500.00     98399.71
  100.70        2962.50           2321       30007.00    131381.10
  100.73        2962.75           2324       36414.00    159588.50
  100.76        2963.00           2328       44420.00    194912.10
  100.79        2963.25           2331       50214.00    220529.20
  100.82        2963.50           2335       57526.00    252922.00
  100.85        2963.75           2339       65705.00    289240.70
  100.88        2964.00           2342       71673.00    315798.50
  100.91        2964.25           2346       79817.00    352117.60
  100.94        2964.50           2349       85318.00    376701.10
  100.97        2964.75           2353       92874.00    410535.80
  101.00        2965.00           2356       98308.00    434917.10
  101.03        2965.25           2360      105406.00    466825.70
  101.07        2965.50           2363      110522.00    489867.80
  101.10        2965.75           2367      118014.00    523677.10
  101.13        2966.00           2370      122816.00    545388.50
  101.16        2966.25           2374      129245.00    574506.70
  101.19        2966.50           2378      132038.00    587175.00
  101.22        2966.75           2381      133058.00    591804.20
  101.25        2967.00           2385      132947.00    591300.30
  101.28        2967.25           2388      133577.00    594160.10
  101.31        2967.50           2392      133228.00    592575.80
  101.34        2967.75           2395      132615.00    589793.40
  101.37        2968.00           2399      128839.00    572666.10
  101.40        2968.25           2402      123865.00    550135.60
  101.43        2968.50           2406      116458.00    516648.90
  101.46        2968.75           2409      110866.00    491418.50
  101.49        2969.00           2413      103603.00    458713.90
  101.52        2969.25           2417       96017.00    424632.80
  101.55        2969.50           2420       90591.00    400304.60
  101.59        2969.75           2424       82918.00    365970.70
  101.62        2970.00           2427       77056.00    339794.50
  101.65        2970.25           2431       69382.00    305597.80
  101.68        2970.50           2434       63374.00    278880.80
  101.71        2970.75           2438       55353.00    243288.00
  101.74        2971.00           2441       49305.00    216507.30
  101.77        2971.25           2445       41054.00    180050.50
  101.80        2971.50           2449       32177.00    140928.70
  101.83        2971.75           2452       26141.00    114386.90
  101.86        2972.00           2456       18481.00     80772.96
  101.89        2972.25           2459       13089.00     57157.62
  101.92        2972.50           2463        6766.00     29513.04
  101.95        2972.75           2466        3057.00     13321.20
  101.98        2973.00           2470         898.00      3904.18
  102.01        2973.25           2473         608.00      2639.73
  102.04        2973.50           2477         526.00      2282.22
  102.07        2973.75           2481         528.00      2290.94
  102.11        2974.00           2484         470.00      2038.07
  102.14        2974.25           2488         479.00      2077.30
  102.17        2974.50           2491         468.00      2029.35
  102.20        2974.75           2495         451.00      1955.23
  102.23        2975.00           2498         453.00      1963.95
  102.26        2975.25           2502         440.00      1907.27
  102.29        2975.50           2505         435.00      1885.47
  102.32        2975.75           2509         433.00      1876.75
  102.35        2976.00           2512         417.00      1807.00
  102.38        2976.25           2516         404.00      1750.32
  102.41        2976.50           2520         406.00      1759.04
  102.44        2976.75           2523         409.00      1772.12
  102.47        2977.00           2527         421.00      1824.44
  102.50        2977.25           2530         381.00      1650.05
  102.53        2977.50           2534         389.00      1684.93
  102.56        2977.75           2537         399.00      1728.52
  102.59        2978.00           2541         395.00      1711.08
  102.63        2978.25           2544         373.00      1615.17
  102.66        2978.50           2548         380.00      1645.69
  102.69        2978.75           2552         356.00      1541.06
  102.72        2979.00           2555         377.00      1632.61
  102.75        2979.25           2559         368.00      1593.37
  102.78        2979.50           2562         386.00      1671.85
  102.81        2979.75           2566         358.00      1549.78
  102.84        2980.00           2569         356.00      1541.06
  102.87        2980.25           2573         371.00      1606.45
  102.90        2980.50           2577         343.00      1484.38
  102.93        2980.75           2580         351.00      1519.26
  102.96        2981.00           2584         343.00      1484.38
  102.99        2981.25           2587         349.00      1510.54
  103.02        2981.50           2591         337.00      1458.22
  103.05        2981.75           2594         339.00      1466.94
  103.08        2982.00           2598         333.00      1440.79
  103.11        2982.25           2601         336.00      1453.86
  103.15        2982.50           2605         333.00      1440.79
  103.18        2982.75           2609         328.00      1418.99
  103.21        2983.00           2612         328.00      1418.99
  103.24        2983.25           2616         322.00      1392.83
  103.27        2983.50           2619         330.00      1427.71
  103.30        2983.75           2623         339.00      1466.94
  103.33        2984.00           2626         310.00      1340.51
HS scan finished at 01:43:33
end
************************************************************
  HS Scan of (1) Internal mercury lamp
************************************************************
Integration time is 0.2294 seconds per sample
dh020817Reading 51.44 .94 3.5pr1000
************************************************************
Dead Time -------------------------  3.4E-08 
Number of Cycles Used -------------  4 
Starting Wavelength (Angstroms) ---  2950 
Final Wavelength (Angstoms) -------  2984 
Wavelength Increment (Angstroms) --  .25 
Filter Wheel #1 Position ---------- (1) Ground quartz diffuser (ND=2.32)
Filter Wheel #2 Position ---------- (1) Neutral Density 0.494



************************************************************
HS scan start time = 20:37:28
Dark Count =  2.4 


Time (GMT)  Wavelength (Ang)  Step Number  Raw Counts  Counts/Second

 1238.36        2950.00           2144         290.00      1253.76
 1238.56        2950.25           2147         284.00      1227.60
 1238.59        2950.50           2151         310.00      1340.95
 1238.62        2950.75           2155         298.00      1288.64
 1238.65        2951.00           2158         299.00      1293.00
 1238.68        2951.25           2162         302.00      1306.07
 1238.71        2951.50           2165         304.00      1314.79
 1238.74        2951.75           2169         300.00      1297.35
 1238.77        2952.00           2172         300.00      1297.35
 1238.80        2952.25           2176         300.00      1297.35
 1238.83        2952.50           2179         294.00      1271.20
 1238.86        2952.75           2183         311.00      1345.31
 1238.89        2953.00           2186         309.00      1336.59
 1238.92        2953.25           2190         325.00      1406.34
 1238.95        2953.50           2193         289.00      1249.40
 1238.98        2953.75           2197         312.00      1349.67
 1239.01        2954.00           2200         314.00      1358.39
 1239.04        2954.25           2204         301.00      1301.71
 1239.08        2954.50           2208         329.00      1423.78
 1239.11        2954.75           2211         321.00      1388.91
 1239.14        2955.00           2215         309.00      1336.59
 1239.17        2955.25           2218         323.00      1397.63
 1239.20        2955.50           2222         330.00      1428.14
 1239.23        2955.75           2225         325.00      1406.34
 1239.26        2956.00           2229         328.00      1419.42
 1239.29        2956.25           2232         330.00      1428.14
 1239.32        2956.50           2236         332.00      1436.86
 1239.35        2956.75           2239         343.00      1484.82
 1239.38        2957.00           2243         362.00      1567.65
 1239.41        2957.25           2246         361.00      1563.29
 1239.44        2957.50           2250         345.00      1493.54
 1239.47        2957.75           2254         343.00      1484.82
 1239.50        2958.00           2257         348.00      1506.62
 1239.53        2958.25           2261         369.00      1598.17
 1239.56        2958.50           2264         365.00      1580.73
 1239.60        2958.75           2268         364.00      1576.37
 1239.63        2959.00           2271         415.00      1798.72
 1239.66        2959.25           2275         423.00      1833.59
 1239.69        2959.50           2278         367.00      1589.45
 1239.72        2959.75           2282         415.00      1798.72
 1239.75        2960.00           2285         423.00      1833.59
 1239.78        2960.25           2289         412.00      1785.64
 1239.81        2960.50           2293         437.00      1894.63
 1239.84        2960.75           2296         446.00      1933.87
 1239.87        2961.00           2300         474.00      2055.94
 1239.90        2961.25           2303         688.00      2988.97
 1239.93        2961.50           2307        2696.00     11746.63
 1239.96        2961.75           2310        6356.00     27722.72
 1239.99        2962.00           2314       12333.00     53850.03
 1240.02        2962.25           2317       17030.00     74414.72
 1240.05        2962.50           2321       23007.00    100625.30
 1240.08        2962.75           2324       27953.00    122350.10
 1240.12        2963.00           2328       36019.00    157848.40
 1240.15        2963.25           2331       41869.00    183648.00
 1240.18        2963.50           2335       49292.00    216450.20
 1240.21        2963.75           2339       55951.00    245939.00
 1240.24        2964.00           2342       61417.00    270189.10
 1240.27        2964.25           2346       69360.00    305500.40
 1240.30        2964.50           2349       74990.00    330580.70
 1240.33        2964.75           2353       82182.00    362682.00
 1240.36        2965.00           2356       87541.00    386647.70
 1240.39        2965.25           2360       94577.00    418172.90
 1240.42        2965.50           2363       99855.00    441866.00
 1240.45        2965.75           2367      106022.00    469598.70
 1240.48        2966.00           2370      110750.00    490896.10
 1240.51        2966.25           2374      116689.00    517692.50
 1240.54        2966.50           2378      120234.00    533710.90
 1240.57        2966.75           2381      122245.00    542805.50
 1240.60        2967.00           2385      122171.00    542470.80
 1240.64        2967.25           2388      122382.00    543425.30
 1240.67        2967.50           2392      122617.00    544488.50
 1240.70        2967.75           2395      122438.00    543678.70
 1240.73        2968.00           2399      119707.00    531328.50
 1240.76        2968.25           2402      115722.00    513326.10
 1240.79        2968.50           2406      108973.00    482887.90
 1240.82        2968.75           2409      104070.00    460814.90
 1240.85        2969.00           2413       97611.00    431787.90
 1240.88        2969.25           2417       91071.00    402455.50
 1240.91        2969.50           2420       85730.00    378544.40
 1240.94        2969.75           2424       79418.00    350336.60
 1240.97        2970.00           2427       74049.00    326385.80
 1241.00        2970.25           2431       66649.00    293438.80
 1241.03        2970.50           2434       61146.00    268985.90
 1241.06        2970.75           2438       53542.00    235264.10
 1241.09        2971.00           2441       48178.00    211522.70
 1241.12        2971.25           2445       41256.00    180942.40
 1241.16        2971.50           2449       34755.00    152279.90
 1241.19        2971.75           2452       29309.00    128311.80
 1241.22        2972.00           2456       22199.00     97079.28
 1241.25        2972.25           2459       16841.00     73586.66
 1241.28        2972.50           2463        9899.00     43204.66
 1241.31        2972.75           2466        5421.00     23639.74
 1241.34        2973.00           2470        1707.00      7432.57
 1241.37        2973.25           2473         814.00      3538.35
 1241.40        2973.50           2477         523.00      2269.57
 1241.43        2973.75           2481         469.00      2034.14
 1241.46        2974.00           2484         476.00      2064.66
 1241.49        2974.25           2488         451.00      1955.67
 1241.52        2974.50           2491         438.00      1898.99
 1241.55        2974.75           2495         433.00      1877.19
 1241.58        2975.00           2498         420.00      1820.51
 1241.61        2975.25           2502         403.00      1746.40
 1241.64        2975.50           2505         407.00      1763.84
 1241.67        2975.75           2509         403.00      1746.40
 1241.71        2976.00           2512         408.00      1768.20
 1241.74        2976.25           2516         389.00      1685.36
 1241.77        2976.50           2520         386.00      1672.28
 1241.80        2976.75           2523         412.00      1785.64
 1241.83        2977.00           2527         414.00      1794.36
 1241.86        2977.25           2530         374.00      1619.97
 1241.89        2977.50           2534         369.00      1598.17
 1241.92        2977.75           2537         370.00      1602.53
 1241.95        2978.00           2541         375.00      1624.33
 1241.98        2978.25           2544         369.00      1598.17
 1242.01        2978.50           2548         365.00      1580.73
 1242.04        2978.75           2552         332.00      1436.86
 1242.07        2979.00           2555         331.00      1432.50
 1242.10        2979.25           2559         338.00      1463.02
 1242.13        2979.50           2562         320.00      1384.55
 1242.16        2979.75           2566         327.00      1415.06
 1242.19        2980.00           2569         333.00      1441.22
 1242.23        2980.25           2573         346.00      1497.90
 1242.26        2980.50           2577         324.00      1401.98
 1242.29        2980.75           2580         320.00      1384.55
 1242.32        2981.00           2584         315.00      1362.75
 1242.35        2981.25           2587         321.00      1388.91
 1242.38        2981.50           2591         311.00      1345.31
 1242.41        2981.75           2594         300.00      1297.35
 1242.44        2982.00           2598         305.00      1319.15
 1242.47        2982.25           2601         312.00      1349.67
 1242.50        2982.50           2605         298.00      1288.64
 1242.53        2982.75           2609         299.00      1293.00
 1242.56        2983.00           2612         301.00      1301.71
 1242.59        2983.25           2616         295.00      1275.56
 1242.62        2983.50           2619         310.00      1340.95
 1242.65        2983.75           2623         294.00      1271.20
 1242.68        2984.00           2626         296.00      1279.92
HS scan finished at 20:42:54
end
