************************************************************
  HS Scan of (1) Internal mercury lamp
************************************************************
Integration time is 0.2294 seconds per sample
dh060818Reading 51.44 .94 3.68pr1000
************************************************************
Dead Time -------------------------  3.4E-08 
Number of Cycles Used -------------  4 
Starting Wavelength (Angstroms) ---  2950 
Final Wavelength (Angstoms) -------  2984 
Wavelength Increment (Angstroms) --  .25 
Filter Wheel #1 Position ---------- (1) Ground quartz diffuser (ND=2.32)
Filter Wheel #2 Position ---------- (1) Neutral Density 0.494



************************************************************
HS scan start time = 01:22:05
Dark Count =  4.1 


Time (GMT)  Wavelength (Ang)  Step Number  Raw Counts  Counts/Second

   82.98        2950.00           2144          86.00       357.02
   83.18        2950.25           2147          77.00       317.79
   83.21        2950.50           2151          83.00       343.94
   83.24        2950.75           2155          91.00       378.82
   83.27        2951.00           2158          86.00       357.02
   83.30        2951.25           2162          83.00       343.94
   83.33        2951.50           2165          83.00       343.94
   83.36        2951.75           2169          88.00       365.74
   83.39        2952.00           2172          91.00       378.82
   83.42        2952.25           2176          92.00       383.18
   83.45        2952.50           2179          95.00       396.26
   83.48        2952.75           2183          91.00       378.82
   83.51        2953.00           2186          99.00       413.69
   83.54        2953.25           2190          87.00       361.38
   83.58        2953.50           2193          91.00       378.82
   83.61        2953.75           2197          98.00       409.33
   83.64        2954.00           2200          91.00       378.82
   83.67        2954.25           2204         133.00       561.91
   83.70        2954.50           2208          99.00       413.69
   83.73        2954.75           2211          95.00       396.26
   83.76        2955.00           2215          83.00       343.94
   83.79        2955.25           2218          89.00       370.10
   83.82        2955.50           2222         124.00       522.68
   83.85        2955.75           2225         119.00       500.88
   83.88        2956.00           2229         106.00       444.21
   83.91        2956.25           2232         102.00       426.77
   83.94        2956.50           2236          98.00       409.33
   83.97        2956.75           2239         138.00       583.71
   84.00        2957.00           2243         121.00       509.60
   84.03        2957.25           2246         158.00       670.90
   84.06        2957.50           2250         108.00       452.93
   84.10        2957.75           2254         135.00       570.63
   84.13        2958.00           2257         114.00       479.08
   84.16        2958.25           2261         129.00       544.47
   84.19        2958.50           2264         135.00       570.63
   84.22        2958.75           2268         123.00       518.32
   84.25        2959.00           2271         136.00       574.99
   84.28        2959.25           2275         120.00       505.24
   84.31        2959.50           2278         118.00       496.52
   84.34        2959.75           2282         118.00       496.52
   84.37        2960.00           2285         139.00       588.07
   84.40        2960.25           2289         148.00       627.30
   84.43        2960.50           2293         157.00       666.54
   84.46        2960.75           2296         151.00       640.38
   84.49        2961.00           2300         189.00       806.04
   84.52        2961.25           2303         426.00      1839.26
   84.55        2961.50           2307        1738.00      7560.36
   84.58        2961.75           2310        3261.00     14204.33
   84.61        2962.00           2314        5507.00     24007.82
   84.65        2962.25           2317        7157.00     31214.01
   84.68        2962.50           2321        9594.00     41863.82
   84.71        2962.75           2324       11525.00     50307.87
   84.74        2963.00           2328       14162.00     61847.01
   84.77        2963.25           2331       16013.00     69952.15
   84.80        2963.50           2335       18516.00     80919.36
   84.83        2963.75           2339       21035.00     91964.97
   84.86        2964.00           2342       22872.00    100025.30
   84.89        2964.25           2346       25107.00    109838.00
   84.92        2964.50           2349       27238.00    119200.10
   84.95        2964.75           2353       30186.00    132161.40
   84.98        2965.00           2356       32211.00    141071.30
   85.01        2965.25           2360       34512.00    151202.10
   85.04        2965.50           2363       37078.00    162507.90
   85.07        2965.75           2367       39146.00    171625.90
   85.10        2966.00           2370       39990.00    175348.80
   85.13        2966.25           2374       42449.00    186200.80
   85.17        2966.50           2378       43064.00    188916.20
   85.20        2966.75           2381       44239.00    194105.50
   85.23        2967.00           2385       43682.00    191645.30
   85.26        2967.25           2388       44227.00    194052.50
   85.29        2967.50           2392       43869.00    192471.20
   85.32        2967.75           2395       43417.00    190475.00
   85.35        2968.00           2399       42039.00    184390.90
   85.38        2968.25           2402       40083.00    175759.00
   85.41        2968.50           2406       37725.00    165360.00
   85.44        2968.75           2409       35775.00    156765.80
   85.47        2969.00           2413       33498.00    146736.80
   85.50        2969.25           2417       30726.00    134536.90
   85.53        2969.50           2420       28365.00    124153.80
   85.56        2969.75           2424       26502.00    115965.90
   85.59        2970.00           2427       24741.00    108230.60
   85.62        2970.25           2431       21579.00     94351.46
   85.65        2970.50           2434       19870.00     86855.51
   85.69        2970.75           2438       17420.00     76116.09
   85.72        2971.00           2441       15621.00     68235.28
   85.75        2971.25           2445       13201.00     57640.76
   85.78        2971.50           2449       10946.00     47775.45
   85.81        2971.75           2452        8974.00     39153.66
   85.85        2972.00           2456        6586.00     28719.84
   85.88        2972.25           2459        4607.00     20078.65
   85.91        2972.50           2463        2356.00     10255.97
   85.94        2972.75           2466        1162.00      5048.38
   85.97        2973.00           2470         385.00      1660.51
   86.00        2973.25           2473         223.00       954.26
   86.03        2973.50           2477         161.00       683.97
   86.06        2973.75           2481         171.00       727.57
   86.09        2974.00           2484         149.00       631.66
   86.12        2974.25           2488         133.00       561.91
   86.15        2974.50           2491         157.00       666.54
   86.18        2974.75           2495         137.00       579.35
   86.21        2975.00           2498         146.00       618.58
   86.24        2975.25           2502         127.00       535.76
   86.27        2975.50           2505         125.00       527.04
   86.30        2975.75           2509         163.00       692.69
   86.33        2976.00           2512         115.00       483.44
   86.36        2976.25           2516         115.00       483.44
   86.40        2976.50           2520         107.00       448.57
   86.43        2976.75           2523         112.00       470.37
   86.46        2977.00           2527         116.00       487.80
   86.49        2977.25           2530         124.00       522.68
   86.52        2977.50           2534         137.00       579.35
   86.55        2977.75           2537         107.00       448.57
   86.58        2978.00           2541         117.00       492.16
   86.61        2978.25           2544         129.00       544.47
   86.64        2978.50           2548         112.00       470.37
   86.67        2978.75           2552         121.00       509.60
   86.70        2979.00           2555         101.00       422.41
   86.73        2979.25           2559          99.00       413.69
   86.76        2979.50           2562         118.00       496.52
   86.79        2979.75           2566         101.00       422.41
   86.82        2980.00           2569         100.00       418.05
   86.85        2980.25           2573         102.00       426.77
   86.88        2980.50           2577         137.00       579.35
   86.92        2980.75           2580          94.00       391.90
   86.95        2981.00           2584          88.00       365.74
   86.98        2981.25           2587          95.00       396.26
   87.01        2981.50           2591          91.00       378.82
   87.04        2981.75           2594          90.00       374.46
   87.07        2982.00           2598          85.00       352.66
   87.10        2982.25           2601          96.00       400.62
   87.13        2982.50           2605          89.00       370.10
   87.16        2982.75           2609          88.00       365.74
   87.19        2983.00           2612          90.00       374.46
   87.22        2983.25           2616          89.00       370.10
   87.25        2983.50           2619          89.00       370.10
   87.28        2983.75           2623          85.00       352.66
   87.31        2984.00           2626          89.00       370.10
HS scan finished at 01:27:32
end
************************************************************
  HS Scan of (1) Internal mercury lamp
************************************************************
Integration time is 0.2294 seconds per sample
dh060818Reading 51.44 .94 4.13pr1000
************************************************************
Dead Time -------------------------  3.4E-08 
Number of Cycles Used -------------  4 
Starting Wavelength (Angstroms) ---  2950 
Final Wavelength (Angstoms) -------  2984 
Wavelength Increment (Angstroms) --  .25 
Filter Wheel #1 Position ---------- (1) Ground quartz diffuser (ND=2.32)
Filter Wheel #2 Position ---------- (1) Neutral Density 0.494



************************************************************
HS scan start time = 20:37:24
Dark Count =  13.4 


Time (GMT)  Wavelength (Ang)  Step Number  Raw Counts  Counts/Second

 1238.30        2950.00           2144          41.00       120.31
 1238.50        2950.25           2147          43.00       129.03
 1238.53        2950.50           2151          40.00       115.96
 1238.56        2950.75           2155          40.00       115.96
 1238.59        2951.00           2158          38.00       107.24
 1238.62        2951.25           2162          43.00       129.03
 1238.65        2951.50           2165          45.00       137.75
 1238.68        2951.75           2169          47.00       146.47
 1238.71        2952.00           2172          45.00       137.75
 1238.74        2952.25           2176          47.00       146.47
 1238.77        2952.50           2179          50.00       159.55
 1238.80        2952.75           2183          44.00       133.39
 1238.83        2953.00           2186          47.00       146.47
 1238.87        2953.25           2190          48.00       150.83
 1238.90        2953.50           2193          45.00       137.75
 1238.93        2953.75           2197          49.00       155.19
 1238.96        2954.00           2200          51.00       163.91
 1238.99        2954.25           2204          47.00       146.47
 1239.02        2954.50           2208          51.00       163.91
 1239.05        2954.75           2211          50.00       159.55
 1239.08        2955.00           2215          45.00       137.75
 1239.11        2955.25           2218          50.00       159.55
 1239.14        2955.50           2222          59.00       198.78
 1239.17        2955.75           2225          43.00       129.03
 1239.20        2956.00           2229          50.00       159.55
 1239.23        2956.25           2232          42.00       124.67
 1239.26        2956.50           2236          48.00       150.83
 1239.29        2956.75           2239          50.00       159.55
 1239.32        2957.00           2243          51.00       163.91
 1239.35        2957.25           2246          52.00       168.27
 1239.39        2957.50           2250          49.00       155.19
 1239.42        2957.75           2254          51.00       163.91
 1239.45        2958.00           2257          52.00       168.27
 1239.48        2958.25           2261          54.00       176.98
 1239.51        2958.50           2264          51.00       163.91
 1239.54        2958.75           2268          50.00       159.55
 1239.57        2959.00           2271          55.00       181.34
 1239.60        2959.25           2275          57.00       190.06
 1239.63        2959.50           2278          62.00       211.86
 1239.66        2959.75           2282          68.00       238.01
 1239.69        2960.00           2285          65.00       224.94
 1239.72        2960.25           2289          62.00       211.86
 1239.75        2960.50           2293          61.00       207.50
 1239.78        2960.75           2296          63.00       216.22
 1239.81        2961.00           2300          86.00       316.48
 1239.84        2961.25           2303         227.00       931.15
 1239.87        2961.50           2307         674.00      2879.97
 1239.91        2961.75           2310        1165.00      5020.91
 1239.94        2962.00           2314        1917.00      8300.51
 1239.97        2962.25           2317        2525.00     10952.64
 1240.00        2962.50           2321        3336.00     14491.01
 1240.03        2962.75           2324        3994.00     17362.47
 1240.06        2963.00           2328        4896.00     21299.64
 1240.09        2963.25           2331        5551.00     24159.33
 1240.12        2963.50           2335        6402.00     27875.58
 1240.15        2963.75           2339        7139.00     31094.76
 1240.18        2964.00           2342        8012.00     34908.89
 1240.21        2964.25           2346        8780.00     38265.10
 1240.24        2964.50           2349        9526.00     41525.89
 1240.27        2964.75           2353       10324.00     45014.79
 1240.30        2965.00           2356       10889.00     47485.49
 1240.33        2965.25           2360       11567.00     50450.90
 1240.37        2965.50           2363       12345.00     53854.40
 1240.40        2965.75           2367       13173.00     57477.51
 1240.43        2966.00           2370       13842.00     60405.54
 1240.46        2966.25           2374       14501.00     63290.37
 1240.49        2966.50           2378       14766.00     64450.58
 1240.52        2966.75           2381       14762.00     64433.07
 1240.55        2967.00           2385       14849.00     64813.99
 1240.58        2967.25           2388       14721.00     64253.56
 1240.61        2967.50           2392       14260.00     62235.30
 1240.65        2967.75           2395       14949.00     65251.84
 1240.68        2968.00           2399       14546.00     63487.38
 1240.71        2968.25           2402       14178.00     61876.33
 1240.74        2968.50           2406       13229.00     57722.59
 1240.77        2968.75           2409       12594.00     54943.87
 1240.80        2969.00           2413       11849.00     51684.47
 1240.83        2969.25           2417       11094.00     48382.05
 1240.86        2969.50           2420       10680.00     46571.51
 1240.89        2969.75           2424        9490.00     41368.52
 1240.92        2970.00           2427        8715.00     37981.01
 1240.95        2970.25           2431        7909.00     34458.83
 1240.98        2970.50           2434        7213.00     31418.03
 1241.01        2970.75           2438        6182.00     26914.77
 1241.04        2971.00           2441        5515.00     24002.15
 1241.07        2971.25           2445        4495.00     19549.17
 1241.10        2971.50           2449        3577.00     15542.65
 1241.13        2971.75           2452        2866.00     12440.31
 1241.17        2972.00           2456        1945.00      8422.64
 1241.20        2972.25           2459        1424.00      6150.37
 1241.23        2972.50           2463         708.00      3028.21
 1241.26        2972.75           2466         342.00      1432.50
 1241.29        2973.00           2470         141.00       556.24
 1241.32        2973.25           2473          81.00       294.68
 1241.35        2973.50           2477          72.00       255.45
 1241.38        2973.75           2481          62.00       211.86
 1241.41        2974.00           2484          59.00       198.78
 1241.44        2974.25           2488          58.00       194.42
 1241.47        2974.50           2491          56.00       185.70
 1241.50        2974.75           2495          63.00       216.22
 1241.53        2975.00           2498          59.00       198.78
 1241.56        2975.25           2502          56.00       185.70
 1241.59        2975.50           2505          54.00       176.98
 1241.62        2975.75           2509          58.00       194.42
 1241.65        2976.00           2512          60.00       203.14
 1241.69        2976.25           2516          60.00       203.14
 1241.72        2976.50           2520          52.00       168.27
 1241.75        2976.75           2523          60.00       203.14
 1241.78        2977.00           2527          60.00       203.14
 1241.81        2977.25           2530          56.00       185.70
 1241.84        2977.50           2534          63.00       216.22
 1241.87        2977.75           2537          61.00       207.50
 1241.90        2978.00           2541          51.00       163.91
 1241.93        2978.25           2544          52.00       168.27
 1241.96        2978.50           2548          49.00       155.19
 1241.99        2978.75           2552          52.00       168.27
 1242.02        2979.00           2555          52.00       168.27
 1242.05        2979.25           2559          52.00       168.27
 1242.08        2979.50           2562          50.00       159.55
 1242.11        2979.75           2566          50.00       159.55
 1242.16        2980.00           2569          51.00       163.91
 1242.19        2980.25           2573          47.00       146.47
 1242.22        2980.50           2577          57.00       190.06
 1242.25        2980.75           2580          51.00       163.91
 1242.28        2981.00           2584          44.00       133.39
 1242.31        2981.25           2587          51.00       163.91
 1242.34        2981.50           2591          53.00       172.63
 1242.37        2981.75           2594          51.00       163.91
 1242.40        2982.00           2598          42.00       124.67
 1242.43        2982.25           2601          48.00       150.83
 1242.47        2982.50           2605          47.00       146.47
 1242.50        2982.75           2609          48.00       150.83
 1242.53        2983.00           2612          47.00       146.47
 1242.56        2983.25           2616          49.00       155.19
 1242.59        2983.50           2619          44.00       133.39
 1242.62        2983.75           2623          48.00       150.83
 1242.65        2984.00           2626          50.00       159.55
HS scan finished at 20:42:52
end
