************************************************************
  HS Scan of (1) Internal mercury lamp
************************************************************
Integration time is 0.2294 seconds per sample
dh040817Reading 51.44 .94 3.45pr1000
************************************************************
Dead Time -------------------------  3.4E-08 
Number of Cycles Used -------------  4 
Starting Wavelength (Angstroms) ---  2950 
Final Wavelength (Angstoms) -------  2984 
Wavelength Increment (Angstroms) --  .25 
Filter Wheel #1 Position ---------- (1) Ground quartz diffuser (ND=2.32)
Filter Wheel #2 Position ---------- (1) Neutral Density 0.494



************************************************************
HS scan start time = 01:14:12
Dark Count =  2.1 


Time (GMT)  Wavelength (Ang)  Step Number  Raw Counts  Counts/Second

   75.11        2950.00           2144         275.00      1189.67
   75.30        2950.25           2147         285.00      1233.27
   75.33        2950.50           2151         289.00      1250.71
   75.36        2950.75           2155         284.00      1228.91
   75.39        2951.00           2158         266.00      1150.44
   75.42        2951.25           2162         302.00      1307.38
   75.45        2951.50           2165         279.00      1207.11
   75.48        2951.75           2169         264.00      1141.72
   75.51        2952.00           2172         284.00      1228.91
   75.54        2952.25           2176         282.00      1220.19
   75.58        2952.50           2179         295.00      1276.86
   75.61        2952.75           2183         282.00      1220.19
   75.64        2953.00           2186         301.00      1303.02
   75.67        2953.25           2190         290.00      1255.07
   75.70        2953.50           2193         295.00      1276.86
   75.73        2953.75           2197         293.00      1268.15
   75.76        2954.00           2200         288.00      1246.35
   75.79        2954.25           2204         298.00      1289.94
   75.82        2954.50           2208         283.00      1224.55
   75.85        2954.75           2211         317.00      1372.78
   75.88        2955.00           2215         325.00      1407.65
   75.91        2955.25           2218         309.00      1337.90
   75.94        2955.50           2222         294.00      1272.50
   75.97        2955.75           2225         326.00      1412.01
   76.00        2956.00           2229         324.00      1403.29
   76.03        2956.25           2232         321.00      1390.21
   76.06        2956.50           2236         343.00      1486.13
   76.09        2956.75           2239         317.00      1372.78
   76.13        2957.00           2243         360.00      1560.24
   76.16        2957.25           2246         354.00      1534.08
   76.19        2957.50           2250         325.00      1407.65
   76.22        2957.75           2254         326.00      1412.01
   76.25        2958.00           2257         336.00      1455.61
   76.28        2958.25           2261         369.00      1599.48
   76.31        2958.50           2264         357.00      1547.16
   76.34        2958.75           2268         376.00      1629.99
   76.37        2959.00           2271         367.00      1590.76
   76.40        2959.25           2275         385.00      1669.23
   76.43        2959.50           2278         373.00      1616.92
   76.46        2959.75           2282         433.00      1878.50
   76.49        2960.00           2285         397.00      1721.55
   76.52        2960.25           2289         397.00      1721.55
   76.55        2960.50           2293         432.00      1874.14
   76.58        2960.75           2296         430.00      1865.42
   76.61        2961.00           2300         545.00      2366.80
   76.65        2961.25           2303        1146.00      4987.33
   76.68        2961.50           2307        4555.00     19860.40
   76.71        2961.75           2310        8754.00     38200.85
   76.74        2962.00           2314       14635.00     63926.50
   76.77        2962.25           2317       19348.00     84575.47
   76.80        2962.50           2321       25861.00    113158.60
   76.84        2962.75           2324       30974.00    135636.70
   76.87        2963.00           2328       38386.00    168283.10
   76.90        2963.25           2331       43833.00    192321.00
   76.93        2963.50           2335       50566.00    222088.70
   76.96        2963.75           2339       57397.00    252351.70
   76.99        2964.00           2342       63110.00    277709.60
   77.02        2964.25           2346       70476.00    310469.80
   77.05        2964.50           2349       75594.00    333275.20
   77.08        2964.75           2353       82522.00    364202.60
   77.11        2965.00           2356       87462.00    386295.50
   77.14        2965.25           2360       94340.00    417111.20
   77.17        2965.50           2363       99085.00    438408.40
   77.20        2965.75           2367      105716.00    468222.70
   77.23        2966.00           2370      110461.00    489594.70
   77.26        2966.25           2374      115199.00    510966.40
   77.29        2966.50           2378      117525.00    521469.80
   77.32        2966.75           2381      117976.00    523507.20
   77.36        2967.00           2385      118321.00    525066.00
   77.39        2967.25           2388      118451.00    525653.40
   77.42        2967.50           2392      117815.00    522779.80
   77.45        2967.75           2395      116996.00    519080.30
   77.48        2968.00           2399      112798.00    500132.30
   77.51        2968.25           2402      108221.00    479501.60
   77.54        2968.50           2406      101463.00    449093.40
   77.57        2968.75           2409       97094.00    429468.30
   77.60        2969.00           2413       90914.00    401753.50
   77.63        2969.25           2417       84309.00    372190.70
   77.66        2969.50           2420       79097.00    348904.90
   77.69        2969.75           2424       72709.00    320415.50
   77.72        2970.00           2427       67482.00    297145.20
   77.75        2970.25           2431       60699.00    267002.70
   77.78        2970.50           2434       55225.00    242722.40
   77.81        2970.75           2438       47839.00    210024.90
   77.84        2971.00           2441       42783.00    187684.30
   77.88        2971.25           2445       36288.00    159035.00
   77.91        2971.50           2449       29922.00    131009.00
   77.94        2971.75           2452       24525.00    107290.90
   77.97        2972.00           2456       17360.00     75861.95
   78.00        2972.25           2459       12427.00     54262.62
   78.03        2972.50           2463        6658.00     29043.05
   78.06        2972.75           2466        3431.00     14954.86
   78.09        2973.00           2470        1035.00      4503.30
   78.12        2973.25           2473         574.00      2493.24
   78.15        2973.50           2477         470.00      2039.81
   78.18        2973.75           2481         450.00      1952.61
   78.21        2974.00           2484         446.00      1935.18
   78.24        2974.25           2488         430.00      1865.42
   78.27        2974.50           2491         424.00      1839.26
   78.30        2974.75           2495         415.00      1800.02
   78.33        2975.00           2498         401.00      1738.99
   78.36        2975.25           2502         395.00      1712.83
   78.40        2975.50           2505         390.00      1691.03
   78.43        2975.75           2509         385.00      1669.23
   78.46        2976.00           2512         365.00      1582.04
   78.49        2976.25           2516         359.00      1555.88
   78.52        2976.50           2520         376.00      1629.99
   78.55        2976.75           2523         369.00      1599.48
   78.58        2977.00           2527         368.00      1595.12
   78.61        2977.25           2530         349.00      1512.28
   78.64        2977.50           2534         329.00      1425.09
   78.67        2977.75           2537         333.00      1442.53
   78.70        2978.00           2541         360.00      1560.24
   78.73        2978.25           2544         383.00      1660.51
   78.76        2978.50           2548         334.00      1446.89
   78.79        2978.75           2552         325.00      1407.65
   78.82        2979.00           2555         311.00      1346.62
   78.85        2979.25           2559         316.00      1368.42
   78.88        2979.50           2562         311.00      1346.62
   78.92        2979.75           2566         315.00      1364.06
   78.95        2980.00           2569         301.00      1303.02
   78.98        2980.25           2573         305.00      1320.46
   79.01        2980.50           2577         304.00      1316.10
   79.04        2980.75           2580         293.00      1268.15
   79.07        2981.00           2584         287.00      1241.99
   79.10        2981.25           2587         307.00      1329.18
   79.13        2981.50           2591         311.00      1346.62
   79.16        2981.75           2594         312.00      1350.98
   79.19        2982.00           2598         312.00      1350.98
   79.22        2982.25           2601         306.00      1324.82
   79.25        2982.50           2605         301.00      1303.02
   79.28        2982.75           2609         295.00      1276.86
   79.31        2983.00           2612         282.00      1220.19
   79.34        2983.25           2616         289.00      1250.71
   79.37        2983.50           2619         285.00      1233.27
   79.40        2983.75           2623         288.00      1246.35
   79.44        2984.00           2626         294.00      1272.50
HS scan finished at 01:19:40
end
************************************************************
  HS Scan of (1) Internal mercury lamp
************************************************************
Integration time is 0.2294 seconds per sample
dh040817Reading 51.44 .94 3.68pr1000
************************************************************
Dead Time -------------------------  3.4E-08 
Number of Cycles Used -------------  4 
Starting Wavelength (Angstroms) ---  2950 
Final Wavelength (Angstoms) -------  2984 
Wavelength Increment (Angstroms) --  .25 
Filter Wheel #1 Position ---------- (1) Ground quartz diffuser (ND=2.32)
Filter Wheel #2 Position ---------- (1) Neutral Density 0.494



************************************************************
HS scan start time = 20:37:28
Dark Count =  4.7 


Time (GMT)  Wavelength (Ang)  Step Number  Raw Counts  Counts/Second

 1238.36        2950.00           2144         234.00       999.60
 1238.56        2950.25           2147         231.00       986.52
 1238.59        2950.50           2151         246.00      1051.91
 1238.62        2950.75           2155         240.00      1025.76
 1238.65        2951.00           2158         266.00      1139.10
 1238.68        2951.25           2162         283.00      1213.21
 1238.71        2951.50           2165         250.00      1069.35
 1238.74        2951.75           2169         258.00      1104.23
 1238.77        2952.00           2172         268.00      1147.82
 1238.80        2952.25           2176         261.00      1117.30
 1238.83        2952.50           2179         275.00      1178.34
 1238.86        2952.75           2183         249.00      1064.99
 1238.89        2953.00           2186         270.00      1156.54
 1238.93        2953.25           2190         282.00      1208.86
 1238.96        2953.50           2193         255.00      1091.15
 1238.99        2953.75           2197         272.00      1165.26
 1239.02        2954.00           2200         254.00      1086.79
 1239.05        2954.25           2204         266.00      1139.10
 1239.08        2954.50           2208         258.00      1104.23
 1239.11        2954.75           2211         265.00      1134.74
 1239.14        2955.00           2215         296.00      1269.89
 1239.17        2955.25           2218         272.00      1165.26
 1239.20        2955.50           2222         282.00      1208.86
 1239.23        2955.75           2225         296.00      1269.89
 1239.26        2956.00           2229         275.00      1178.34
 1239.29        2956.25           2232         281.00      1204.50
 1239.32        2956.50           2236         280.00      1200.14
 1239.35        2956.75           2239         295.00      1265.53
 1239.38        2957.00           2243         285.00      1221.93
 1239.41        2957.25           2246         290.00      1243.73
 1239.44        2957.50           2250         294.00      1261.17
 1239.48        2957.75           2254         304.00      1304.77
 1239.51        2958.00           2257         303.00      1300.41
 1239.54        2958.25           2261         308.00      1322.20
 1239.57        2958.50           2264         321.00      1378.88
 1239.60        2958.75           2268         326.00      1400.68
 1239.63        2959.00           2271         328.00      1409.40
 1239.66        2959.25           2275         314.00      1348.36
 1239.69        2959.50           2278         349.00      1500.95
 1239.72        2959.75           2282         344.00      1479.15
 1239.75        2960.00           2285         347.00      1492.23
 1239.78        2960.25           2289         384.00      1653.54
 1239.81        2960.50           2293         368.00      1583.78
 1239.84        2960.75           2296         382.00      1644.82
 1239.87        2961.00           2300         454.00      1958.72
 1239.90        2961.25           2303         789.00      3419.32
 1239.93        2961.50           2307        3277.00     14271.53
 1239.96        2961.75           2310        6722.00     29311.24
 1240.00        2962.00           2314       11773.00     51390.07
 1240.03        2962.25           2317       15949.00     69669.20
 1240.06        2962.50           2321       21314.00     93186.24
 1240.09        2962.75           2324       25579.00    111908.40
 1240.12        2963.00           2328       31338.00    137226.80
 1240.15        2963.25           2331       36126.00    158309.70
 1240.18        2963.50           2335       42219.00    185182.80
 1240.21        2963.75           2339       48194.00    211583.40
 1240.24        2964.00           2342       53114.00    233358.10
 1240.27        2964.25           2346       59446.00    261429.90
 1240.30        2964.50           2349       63544.00    279626.30
 1240.33        2964.75           2353       69541.00    306295.70
 1240.36        2965.00           2356       73754.00    325060.60
 1240.39        2965.25           2360       79781.00    351947.10
 1240.42        2965.50           2363       84244.00    371888.50
 1240.45        2965.75           2367       89793.00    396720.20
 1240.48        2966.00           2370       94177.00    416368.50
 1240.52        2966.25           2374       99104.00    438482.00
 1240.55        2966.50           2378      102257.00    452651.00
 1240.58        2966.75           2381      103963.00    460323.30
 1240.61        2967.00           2385      103759.00    459405.60
 1240.64        2967.25           2388      103992.00    460453.70
 1240.67        2967.50           2392      104172.00    461263.40
 1240.70        2967.75           2395      103182.00    456810.50
 1240.73        2968.00           2399      101691.00    450106.50
 1240.76        2968.25           2402       97808.00    432662.10
 1240.79        2968.50           2406       92513.00    408907.60
 1240.82        2968.75           2409       88400.00    390482.50
 1240.85        2969.00           2413       81744.00    360714.70
 1240.88        2969.25           2417       75475.00    332732.90
 1240.91        2969.50           2420       70789.00    311851.90
 1240.94        2969.75           2424       64783.00    285132.30
 1240.97        2970.00           2427       60392.00    265628.40
 1241.00        2970.25           2431       54403.00    239068.30
 1241.04        2970.50           2434       50042.00    219758.40
 1241.07        2970.75           2438       43338.00    190123.50
 1241.10        2971.00           2441       38588.00    169162.40
 1241.13        2971.25           2445       32572.00    142657.60
 1241.16        2971.50           2449       26309.00    115115.30
 1241.19        2971.75           2452       22087.00     96577.72
 1241.22        2972.00           2456       16486.00     72021.40
 1241.25        2972.25           2459       12053.00     52614.97
 1241.28        2972.50           2463        6406.00     27931.05
 1241.31        2972.75           2466        3106.00     13525.40
 1241.34        2973.00           2470         937.00      4064.64
 1241.37        2973.25           2473         517.00      2233.39
 1241.40        2973.50           2477         433.00      1867.16
 1241.43        2973.75           2481         392.00      1688.41
 1241.46        2974.00           2484         391.00      1684.05
 1241.49        2974.25           2488         368.00      1583.78
 1241.52        2974.50           2491         368.00      1583.78
 1241.56        2974.75           2495         376.00      1618.66
 1241.59        2975.00           2498         345.00      1483.51
 1241.62        2975.25           2502         342.00      1470.43
 1241.65        2975.50           2505         336.00      1444.27
 1241.68        2975.75           2509         332.00      1426.83
 1241.71        2976.00           2512         311.00      1335.28
 1241.74        2976.25           2516         296.00      1269.89
 1241.77        2976.50           2520         321.00      1378.88
 1241.80        2976.75           2523         307.00      1317.84
 1241.83        2977.00           2527         289.00      1239.37
 1241.86        2977.25           2530         312.00      1339.64
 1241.89        2977.50           2534         299.00      1282.97
 1241.92        2977.75           2537         299.00      1282.97
 1241.95        2978.00           2541         298.00      1278.61
 1241.98        2978.25           2544         290.00      1243.73
 1242.01        2978.50           2548         277.00      1187.06
 1242.04        2978.75           2552         284.00      1217.57
 1242.08        2979.00           2555         276.00      1182.70
 1242.11        2979.25           2559         298.00      1278.61
 1242.14        2979.50           2562         269.00      1152.18
 1242.17        2979.75           2566         276.00      1182.70
 1242.20        2980.00           2569         264.00      1130.38
 1242.23        2980.25           2573         276.00      1182.70
 1242.26        2980.50           2577         255.00      1091.15
 1242.29        2980.75           2580         289.00      1239.37
 1242.32        2981.00           2584         270.00      1156.54
 1242.35        2981.25           2587         266.00      1139.10
 1242.38        2981.50           2591         248.00      1060.63
 1242.41        2981.75           2594         269.00      1152.18
 1242.44        2982.00           2598         266.00      1139.10
 1242.47        2982.25           2601         267.00      1143.46
 1242.50        2982.50           2605         294.00      1261.17
 1242.53        2982.75           2609         268.00      1147.82
 1242.56        2983.00           2612         273.00      1169.62
 1242.59        2983.25           2616         223.00       951.64
 1242.63        2983.50           2619         251.00      1073.71
 1242.66        2983.75           2623         253.00      1082.43
 1242.69        2984.00           2626         245.00      1047.55
HS scan finished at 20:42:55
end
