************************************************************
  HS Scan of (1) Internal mercury lamp
************************************************************
Integration time is 0.2294 seconds per sample
dh050817Reading 51.44 .94 3.47pr1000
************************************************************
Dead Time -------------------------  3.4E-08 
Number of Cycles Used -------------  4 
Starting Wavelength (Angstroms) ---  2950 
Final Wavelength (Angstoms) -------  2984 
Wavelength Increment (Angstroms) --  .25 
Filter Wheel #1 Position ---------- (1) Ground quartz diffuser (ND=2.32)
Filter Wheel #2 Position ---------- (1) Neutral Density 0.494



************************************************************
HS scan start time = 20:37:26
Dark Count =  3 


Time (GMT)  Wavelength (Ang)  Step Number  Raw Counts  Counts/Second

 1238.32        2950.00           2144         235.00      1011.37
 1238.52        2950.25           2147         240.00      1033.17
 1238.55        2950.50           2151         246.00      1059.32
 1238.58        2950.75           2155         243.00      1046.24
 1238.61        2951.00           2158         227.00       976.49
 1238.64        2951.25           2162         224.00       963.41
 1238.67        2951.50           2165         257.00      1107.28
 1238.70        2951.75           2169         242.00      1041.89
 1238.73        2952.00           2172         232.00       998.29
 1238.76        2952.25           2176         239.00      1028.81
 1238.79        2952.50           2179         261.00      1124.72
 1238.82        2952.75           2183         248.00      1068.04
 1238.85        2953.00           2186         272.00      1172.67
 1238.88        2953.25           2190         236.00      1015.73
 1238.92        2953.50           2193         243.00      1046.24
 1238.95        2953.75           2197         263.00      1133.44
 1238.98        2954.00           2200         243.00      1046.24
 1239.01        2954.25           2204         243.00      1046.24
 1239.04        2954.50           2208         248.00      1068.04
 1239.07        2954.75           2211         253.00      1089.84
 1239.10        2955.00           2215         273.00      1177.03
 1239.13        2955.25           2218         266.00      1146.51
 1239.16        2955.50           2222         257.00      1107.28
 1239.19        2955.75           2225         272.00      1172.67
 1239.22        2956.00           2229         271.00      1168.31
 1239.25        2956.25           2232         266.00      1146.51
 1239.28        2956.50           2236         289.00      1246.78
 1239.31        2956.75           2239         276.00      1190.11
 1239.34        2957.00           2243         294.00      1268.58
 1239.37        2957.25           2246         275.00      1185.75
 1239.40        2957.50           2250         269.00      1159.59
 1239.43        2957.75           2254         279.00      1203.19
 1239.47        2958.00           2257         287.00      1238.06
 1239.50        2958.25           2261         300.00      1294.74
 1239.53        2958.50           2264         300.00      1294.74
 1239.56        2958.75           2268         297.00      1281.66
 1239.59        2959.00           2271         301.00      1299.10
 1239.62        2959.25           2275         307.00      1325.26
 1239.65        2959.50           2278         333.00      1438.61
 1239.68        2959.75           2282         323.00      1395.01
 1239.71        2960.00           2285         320.00      1381.93
 1239.74        2960.25           2289         330.00      1425.53
 1239.77        2960.50           2293         353.00      1525.80
 1239.80        2960.75           2296         344.00      1486.56
 1239.83        2961.00           2300         427.00      1848.42
 1239.86        2961.25           2303         743.00      3226.16
 1239.89        2961.50           2307        2854.00     12433.33
 1239.92        2961.75           2310        6061.00     26431.76
 1239.95        2962.00           2314       10833.00     47286.08
 1239.99        2962.25           2317       14668.00     64067.05
 1240.02        2962.50           2321       19940.00     87167.28
 1240.05        2962.75           2324       23928.00    104665.60
 1240.08        2963.00           2328       29988.00    131295.40
 1240.11        2963.25           2331       34307.00    150304.10
 1240.15        2963.50           2335       39946.00    175159.50
 1240.18        2963.75           2339       45286.00    198735.90
 1240.21        2964.00           2342       49470.00    217235.10
 1240.24        2964.25           2346       55489.00    243888.50
 1240.27        2964.50           2349       59905.00    263474.40
 1240.31        2964.75           2353       66021.00    290643.50
 1240.34        2965.00           2356       69616.00    306637.10
 1240.37        2965.25           2360       74688.00    329231.60
 1240.41        2965.50           2363       78556.00    346486.00
 1240.44        2965.75           2367       83889.00    370308.80
 1240.47        2966.00           2370       87555.00    386707.70
 1240.50        2966.25           2374       92817.00    410278.00
 1240.53        2966.50           2378       96163.00    425285.70
 1240.56        2966.75           2381       97099.00    429486.70
 1240.59        2967.00           2385       97352.00    430622.40
 1240.62        2967.25           2388       97516.00    431358.70
 1240.65        2967.50           2392       97261.00    430213.90
 1240.68        2967.75           2395       97113.00    429549.60
 1240.71        2968.00           2399       95728.00    423333.80
 1240.74        2968.25           2402       92910.00    410695.00
 1240.77        2968.50           2406       87504.00    386479.40
 1240.80        2968.75           2409       84089.00    371203.00
 1240.83        2969.00           2413       78585.00    346615.40
 1240.86        2969.25           2417       73543.00    324127.90
 1240.89        2969.50           2420       69288.00    305177.20
 1240.93        2969.75           2424       63318.00    278629.70
 1240.96        2970.00           2427       59064.00    259742.40
 1240.99        2970.25           2431       53030.00    232993.60
 1241.02        2970.50           2434       48748.00    214041.10
 1241.05        2970.75           2438       42592.00    186837.00
 1241.08        2971.00           2441       37769.00    165558.80
 1241.12        2971.25           2445       32064.00    140429.10
 1241.15        2971.50           2449       26006.00    113791.60
 1241.18        2971.75           2452       21594.00     94422.09
 1241.21        2972.00           2456       15710.00     68629.88
 1241.24        2972.25           2459       11418.00     49844.65
 1241.27        2972.50           2463        6413.00     27969.04
 1241.30        2972.75           2466        3603.00     15701.49
 1241.33        2973.00           2470        1312.00      5707.30
 1241.36        2973.25           2473         607.00      2633.19
 1241.39        2973.50           2477         388.00      1678.39
 1241.42        2973.75           2481         385.00      1665.31
 1241.45        2974.00           2484         387.00      1674.03
 1241.48        2974.25           2488         346.00      1495.28
 1241.51        2974.50           2491         371.00      1604.27
 1241.54        2974.75           2495         333.00      1438.61
 1241.57        2975.00           2498         326.00      1408.09
 1241.60        2975.25           2502         327.00      1412.45
 1241.64        2975.50           2505         306.00      1320.90
 1241.67        2975.75           2509         303.00      1307.82
 1241.70        2976.00           2512         317.00      1368.85
 1241.73        2976.25           2516         324.00      1399.37
 1241.76        2976.50           2520         288.00      1242.42
 1241.79        2976.75           2523         290.00      1251.14
 1241.82        2977.00           2527         303.00      1307.82
 1241.85        2977.25           2530         289.00      1246.78
 1241.88        2977.50           2534         296.00      1277.30
 1241.91        2977.75           2537         298.00      1286.02
 1241.94        2978.00           2541         279.00      1203.19
 1241.97        2978.25           2544         287.00      1238.06
 1242.00        2978.50           2548         276.00      1190.11
 1242.03        2978.75           2552         263.00      1133.44
 1242.06        2979.00           2555         274.00      1181.39
 1242.09        2979.25           2559         292.00      1259.86
 1242.12        2979.50           2562         259.00      1116.00
 1242.16        2979.75           2566         274.00      1181.39
 1242.19        2980.00           2569         285.00      1229.35
 1242.22        2980.25           2573         261.00      1124.72
 1242.25        2980.50           2577         251.00      1081.12
 1242.28        2980.75           2580         250.00      1076.76
 1242.31        2981.00           2584         243.00      1046.24
 1242.34        2981.25           2587         240.00      1033.17
 1242.37        2981.50           2591         247.00      1063.68
 1242.40        2981.75           2594         234.00      1007.01
 1242.43        2982.00           2598         265.00      1142.15
 1242.46        2982.25           2601         269.00      1159.59
 1242.49        2982.50           2605         240.00      1033.17
 1242.52        2982.75           2609         236.00      1015.73
 1242.55        2983.00           2612         234.00      1007.01
 1242.58        2983.25           2616         253.00      1089.84
 1242.61        2983.50           2619         246.00      1059.32
 1242.64        2983.75           2623         218.00       937.26
 1242.67        2984.00           2626         225.00       967.77
HS scan finished at 20:42:54
end
