************************************************************
  HS Scan of (1) Internal mercury lamp
************************************************************
Integration time is 0.2294 seconds per sample
dh070817Reading 51.44 .94 3.31pr1000
************************************************************
Dead Time -------------------------  3.4E-08 
Number of Cycles Used -------------  4 
Starting Wavelength (Angstroms) ---  2950 
Final Wavelength (Angstoms) -------  2984 
Wavelength Increment (Angstroms) --  .25 
Filter Wheel #1 Position ---------- (1) Ground quartz diffuser (ND=2.32)
Filter Wheel #2 Position ---------- (1) Neutral Density 0.494



************************************************************
HS scan start time = 01:21:45
Dark Count =  1.6 


Time (GMT)  Wavelength (Ang)  Step Number  Raw Counts  Counts/Second

   82.65        2950.00           2144         218.00       943.36
   82.85        2950.25           2147         236.00      1021.83
   82.88        2950.50           2151         225.00       973.88
   82.91        2950.75           2155         211.00       912.84
   82.94        2951.00           2158         220.00       952.08
   82.97        2951.25           2162         217.00       939.00
   83.00        2951.50           2165         236.00      1021.83
   83.03        2951.75           2169         228.00       986.96
   83.06        2952.00           2172         232.00      1004.39
   83.09        2952.25           2176         213.00       921.56
   83.12        2952.50           2179         232.00      1004.39
   83.15        2952.75           2183         243.00      1052.35
   83.18        2953.00           2186         275.00      1191.85
   83.21        2953.25           2190         239.00      1034.91
   83.24        2953.50           2193         244.00      1056.71
   83.27        2953.75           2197         245.00      1061.07
   83.31        2954.00           2200         264.00      1143.90
   83.34        2954.25           2204         241.00      1043.63
   83.37        2954.50           2208         240.00      1039.27
   83.40        2954.75           2211         273.00      1183.13
   83.43        2955.00           2215         261.00      1130.82
   83.46        2955.25           2218         247.00      1069.79
   83.49        2955.50           2222         255.00      1104.66
   83.52        2955.75           2225         245.00      1061.07
   83.55        2956.00           2229         248.00      1074.15
   83.58        2956.25           2232         255.00      1104.66
   83.61        2956.50           2236         264.00      1143.90
   83.64        2956.75           2239         290.00      1257.25
   83.67        2957.00           2243         260.00      1126.46
   83.70        2957.25           2246         278.00      1204.93
   83.73        2957.50           2250         286.00      1239.81
   83.76        2957.75           2254         272.00      1178.77
   83.79        2958.00           2257         278.00      1204.93
   83.82        2958.25           2261         284.00      1231.09
   83.86        2958.50           2264         281.00      1218.01
   83.89        2958.75           2268         284.00      1231.09
   83.92        2959.00           2271         289.00      1252.89
   83.95        2959.25           2275         305.00      1322.64
   83.98        2959.50           2278         309.00      1340.08
   84.01        2959.75           2282         329.00      1427.27
   84.04        2960.00           2285         326.00      1414.19
   84.07        2960.25           2289         310.00      1344.44
   84.10        2960.50           2293         333.00      1444.71
   84.13        2960.75           2296         365.00      1584.22
   84.16        2961.00           2300         432.00      1876.32
   84.19        2961.25           2303         815.00      3546.20
   84.22        2961.50           2307        3167.00     13805.08
   84.25        2961.75           2310        6075.00     26499.02
   84.28        2962.00           2314       10787.00     47091.04
   84.31        2962.25           2317       14349.00     62676.58
   84.34        2962.50           2321       19734.00     86270.11
   84.38        2962.75           2324       23860.00    104373.20
   84.41        2963.00           2328       29560.00    129419.10
   84.44        2963.25           2331       34088.00    149345.80
   84.47        2963.50           2335       39871.00    174834.80
   84.50        2963.75           2339       45185.00    198295.80
   84.53        2964.00           2342       49184.00    215976.00
   84.56        2964.25           2346       54840.00    241018.40
   84.59        2964.50           2349       59005.00    259486.80
   84.62        2964.75           2353       64939.00    285839.50
   84.65        2965.00           2356       68967.00    303754.80
   84.68        2965.25           2360       73786.00    325217.10
   84.71        2965.50           2363       77872.00    343439.50
   84.74        2965.75           2367       83035.00    366497.60
   84.77        2966.00           2370       86544.00    382189.70
   84.80        2966.25           2374       92120.00    407160.00
   84.83        2966.50           2378       95424.00    421976.10
   84.86        2966.75           2381       96236.00    425619.70
   84.90        2967.00           2385       96654.00    427495.60
   84.93        2967.25           2388       96591.00    427212.90
   84.96        2967.50           2392       96680.00    427612.30
   84.99        2967.75           2395       96259.00    425722.90
   85.02        2968.00           2399       94287.00    416875.80
   85.05        2968.25           2402       91388.00    403879.50
   85.08        2968.50           2406       86258.00    380910.10
   85.11        2968.75           2409       81764.00    360817.90
   85.14        2969.00           2413       76464.00    337157.70
   85.17        2969.25           2417       71422.00    314684.60
   85.20        2969.50           2420       66994.00    294976.70
   85.23        2969.75           2424       61426.00    270232.60
   85.26        2970.00           2427       56783.00    249631.10
   85.29        2970.25           2431       50739.00    222856.60
   85.32        2970.50           2434       46174.00    202666.40
   85.35        2970.75           2438       40106.00    175871.50
   85.38        2971.00           2441       35920.00    157415.70
   85.42        2971.25           2445       30486.00    133492.00
   85.45        2971.50           2449       24731.00    108197.70
   85.48        2971.75           2452       20268.00     88611.81
   85.51        2972.00           2456       15008.00     65561.85
   85.54        2972.25           2459       10928.00     47707.67
   85.57        2972.50           2463        5797.00     25285.02
   85.60        2972.75           2466        2825.00     12312.91
   85.63        2973.00           2470         887.00      3860.14
   85.66        2973.25           2473         484.00      2103.03
   85.69        2973.50           2477         407.00      1767.33
   85.72        2973.75           2481         377.00      1636.53
   85.75        2974.00           2484         407.00      1767.33
   85.78        2974.25           2488         373.00      1619.10
   85.81        2974.50           2491         335.00      1453.43
   85.84        2974.75           2495         339.00      1470.87
   85.87        2975.00           2498         329.00      1427.27
   85.90        2975.25           2502         327.00      1418.55
   85.94        2975.50           2505         318.00      1379.31
   85.97        2975.75           2509         307.00      1331.36
   86.00        2976.00           2512         311.00      1348.80
   86.03        2976.25           2516         301.00      1305.20
   86.06        2976.50           2520         306.00      1327.00
   86.09        2976.75           2523         303.00      1313.92
   86.12        2977.00           2527         305.00      1322.64
   86.15        2977.25           2530         287.00      1244.17
   86.18        2977.50           2534         293.00      1270.33
   86.21        2977.75           2537         286.00      1239.81
   86.24        2978.00           2541         288.00      1248.53
   86.27        2978.25           2544         287.00      1244.17
   86.30        2978.50           2548         291.00      1261.61
   86.33        2978.75           2552         286.00      1239.81
   86.36        2979.00           2555         273.00      1183.13
   86.39        2979.25           2559         270.00      1170.06
   86.42        2979.50           2562         255.00      1104.66
   86.46        2979.75           2566         285.00      1235.45
   86.49        2980.00           2569         278.00      1204.93
   86.52        2980.25           2573         253.00      1095.94
   86.55        2980.50           2577         250.00      1082.86
   86.58        2980.75           2580         269.00      1165.70
   86.61        2981.00           2584         282.00      1222.37
   86.64        2981.25           2587         244.00      1056.71
   86.67        2981.50           2591         246.00      1065.43
   86.70        2981.75           2594         230.00       995.67
   86.73        2982.00           2598         255.00      1104.66
   86.76        2982.25           2601         254.00      1100.30
   86.79        2982.50           2605         233.00      1008.75
   86.82        2982.75           2609         233.00      1008.75
   86.85        2983.00           2612         227.00       982.60
   86.88        2983.25           2616         244.00      1056.71
   86.91        2983.50           2619         235.00      1017.47
   86.94        2983.75           2623         227.00       982.60
   86.97        2984.00           2626         238.00      1030.55
HS scan finished at 01:27:12
end
************************************************************
  HS Scan of (1) Internal mercury lamp
************************************************************
Integration time is 0.2294 seconds per sample
dh070817Reading 51.44 .94 3.47pr1000
************************************************************
Dead Time -------------------------  3.4E-08 
Number of Cycles Used -------------  4 
Starting Wavelength (Angstroms) ---  2950 
Final Wavelength (Angstoms) -------  2984 
Wavelength Increment (Angstroms) --  .25 
Filter Wheel #1 Position ---------- (1) Ground quartz diffuser (ND=2.32)
Filter Wheel #2 Position ---------- (1) Neutral Density 0.494



************************************************************
HS scan start time = 20:37:32
Dark Count =  2.6 


Time (GMT)  Wavelength (Ang)  Step Number  Raw Counts  Counts/Second

 1238.43        2950.00           2144         182.00       782.06
 1238.62        2950.25           2147         190.00       816.94
 1238.65        2950.50           2151         198.00       851.81
 1238.68        2950.75           2155         197.00       847.45
 1238.71        2951.00           2158         184.00       790.78
 1238.74        2951.25           2162         186.00       799.50
 1238.77        2951.50           2165         200.00       860.53
 1238.80        2951.75           2169         194.00       834.37
 1238.83        2952.00           2172         199.00       856.17
 1238.86        2952.25           2176         206.00       886.69
 1238.89        2952.50           2179         226.00       973.88
 1238.93        2952.75           2183         205.00       882.33
 1238.96        2953.00           2186         211.00       908.48
 1238.99        2953.25           2190         204.00       877.97
 1239.02        2953.50           2193         205.00       882.33
 1239.05        2953.75           2197         220.00       947.72
 1239.08        2954.00           2200         213.00       917.20
 1239.11        2954.25           2204         210.00       904.13
 1239.14        2954.50           2208         215.00       925.92
 1239.17        2954.75           2211         213.00       917.20
 1239.20        2955.00           2215         213.00       917.20
 1239.23        2955.25           2218         225.00       969.52
 1239.26        2955.50           2222         219.00       943.36
 1239.29        2955.75           2225         230.00       991.32
 1239.32        2956.00           2229         221.00       952.08
 1239.35        2956.25           2232         223.00       960.80
 1239.38        2956.50           2236         233.00      1004.39
 1239.41        2956.75           2239         230.00       991.32
 1239.44        2957.00           2243         215.00       925.92
 1239.48        2957.25           2246         231.00       995.67
 1239.51        2957.50           2250         232.00      1000.03
 1239.54        2957.75           2254         257.00      1109.02
 1239.57        2958.00           2257         258.00      1113.38
 1239.60        2958.25           2261         264.00      1139.54
 1239.63        2958.50           2264         237.00      1021.83
 1239.66        2958.75           2268         258.00      1113.38
 1239.69        2959.00           2271         255.00      1100.30
 1239.72        2959.25           2275         260.00      1122.10
 1239.75        2959.50           2278         270.00      1165.70
 1239.78        2959.75           2282         268.00      1156.98
 1239.81        2960.00           2285         287.00      1239.81
 1239.84        2960.25           2289         271.00      1170.06
 1239.87        2960.50           2293         287.00      1239.81
 1239.90        2960.75           2296         294.00      1270.33
 1239.93        2961.00           2300         338.00      1462.15
 1239.96        2961.25           2303         528.00      2290.50
 1240.00        2961.50           2307        1944.00      8465.38
 1240.03        2961.75           2310        4332.00     18884.83
 1240.06        2962.00           2314        8539.00     37259.03
 1240.09        2962.25           2317       12237.00     53429.15
 1240.12        2962.50           2321       16925.00     73953.81
 1240.15        2962.75           2324       20221.00     88401.31
 1240.18        2963.00           2328       24868.00    108794.90
 1240.21        2963.25           2331       28275.00    123764.70
 1240.24        2963.50           2335       33131.00    145127.60
 1240.27        2963.75           2339       38351.00    168126.60
 1240.30        2964.00           2342       42373.00    185871.90
 1240.33        2964.25           2346       47334.00    207789.80
 1240.36        2964.50           2349       50568.00    222095.40
 1240.39        2964.75           2353       55664.00    244665.90
 1240.42        2965.00           2356       59181.00    260263.30
 1240.45        2965.25           2360       63578.00    279786.70
 1240.48        2965.50           2363       67231.00    296026.50
 1240.52        2965.75           2367       71584.00    315401.70
 1240.55        2966.00           2370       74750.00    329509.70
 1240.58        2966.25           2374       79207.00    349393.70
 1240.61        2966.50           2378       81394.00    359160.40
 1240.64        2966.75           2381       81840.00    361153.00
 1240.67        2967.00           2385       82295.00    363186.00
 1240.70        2967.25           2388       82312.00    363262.00
 1240.73        2967.50           2392       81929.00    361550.60
 1240.76        2967.75           2395       81544.00    359830.50
 1240.79        2968.00           2399       78934.00    348175.00
 1240.82        2968.25           2402       76271.00    336292.30
 1240.85        2968.50           2406       72157.00    317954.00
 1240.88        2968.75           2409       68935.00    303607.90
 1240.91        2969.00           2413       64231.00    282688.30
 1240.94        2969.25           2417       59537.00    261843.00
 1240.97        2969.50           2420       55803.00    245282.00
 1241.00        2969.75           2424       51069.00    224312.80
 1241.04        2970.00           2427       47553.00    208758.10
 1241.07        2970.25           2431       42796.00    187739.40
 1241.10        2970.50           2434       39620.00    173723.20
 1241.13        2970.75           2438       35018.00    153437.50
 1241.16        2971.00           2441       31374.00    137394.50
 1241.19        2971.25           2445       26508.00    115998.90
 1241.22        2971.50           2449       21293.00     93103.32
 1241.25        2971.75           2452       17498.00     76464.45
 1241.28        2972.00           2456       12989.00     56719.57
 1241.31        2972.25           2459        9996.00     43627.88
 1241.34        2972.50           2463        6137.00     26765.41
 1241.37        2972.75           2466        3271.00     14254.51
 1241.40        2973.00           2470         938.00      4078.16
 1241.43        2973.25           2473         465.00      2015.83
 1241.46        2973.50           2477         357.00      1544.98
 1241.49        2973.75           2481         310.00      1340.08
 1241.52        2974.00           2484         301.00      1300.84
 1241.56        2974.25           2488         322.00      1392.39
 1241.59        2974.50           2491         291.00      1257.25
 1241.62        2974.75           2495         283.00      1222.37
 1241.65        2975.00           2498         289.00      1248.53
 1241.68        2975.25           2502         282.00      1218.01
 1241.71        2975.50           2505         292.00      1261.61
 1241.75        2975.75           2509         246.00      1061.07
 1241.78        2976.00           2512         292.00      1261.61
 1241.82        2976.25           2516         272.00      1174.41
 1241.85        2976.50           2520         256.00      1104.66
 1241.88        2976.75           2523         243.00      1047.99
 1241.91        2977.00           2527         245.00      1056.71
 1241.94        2977.25           2530         257.00      1109.02
 1241.97        2977.50           2534         254.00      1095.94
 1242.00        2977.75           2537         225.00       969.52
 1242.03        2978.00           2541         236.00      1017.47
 1242.06        2978.25           2544         245.00      1056.71
 1242.09        2978.50           2548         227.00       978.24
 1242.12        2978.75           2552         218.00       939.00
 1242.15        2979.00           2555         237.00      1021.83
 1242.18        2979.25           2559         261.00      1126.46
 1242.21        2979.50           2562         223.00       960.80
 1242.24        2979.75           2566         209.00       899.77
 1242.27        2980.00           2569         209.00       899.77
 1242.30        2980.25           2573         213.00       917.20
 1242.33        2980.50           2577         215.00       925.92
 1242.37        2980.75           2580         205.00       882.33
 1242.40        2981.00           2584         209.00       899.77
 1242.43        2981.25           2587         221.00       952.08
 1242.46        2981.50           2591         200.00       860.53
 1242.49        2981.75           2594         199.00       856.17
 1242.52        2982.00           2598         208.00       895.41
 1242.55        2982.25           2601         202.00       869.25
 1242.58        2982.50           2605         205.00       882.33
 1242.61        2982.75           2609         183.00       786.42
 1242.64        2983.00           2612         183.00       786.42
 1242.67        2983.25           2616         187.00       803.86
 1242.70        2983.50           2619         198.00       851.81
 1242.73        2983.75           2623         201.00       864.89
 1242.76        2984.00           2626         196.00       843.09
HS scan finished at 20:42:59
end
