************************************************************
  HS Scan of (1) Internal mercury lamp
************************************************************
Integration time is 0.2294 seconds per sample
dh310718Reading 51.44 .94 3.62pr1000
************************************************************
Dead Time -------------------------  3.4E-08 
Number of Cycles Used -------------  4 
Starting Wavelength (Angstroms) ---  2950 
Final Wavelength (Angstoms) -------  2984 
Wavelength Increment (Angstroms) --  .25 
Filter Wheel #1 Position ---------- (1) Ground quartz diffuser (ND=2.32)
Filter Wheel #2 Position ---------- (1) Neutral Density 0.494



************************************************************
HS scan start time = 01:22:28
Dark Count =  2.8 


Time (GMT)  Wavelength (Ang)  Step Number  Raw Counts  Counts/Second

   83.36        2950.00           2144          66.00       275.50
   83.56        2950.25           2147          65.00       271.14
   83.59        2950.50           2151          64.00       266.79
   83.62        2950.75           2155          72.00       301.66
   83.65        2951.00           2158          66.00       275.50
   83.68        2951.25           2162          70.00       292.94
   83.71        2951.50           2165          68.00       284.22
   83.74        2951.75           2169          75.00       314.74
   83.77        2952.00           2172          65.00       271.14
   83.80        2952.25           2176          69.00       288.58
   83.83        2952.50           2179          79.00       332.17
   83.86        2952.75           2183          67.00       279.86
   83.89        2953.00           2186          70.00       292.94
   83.92        2953.25           2190          71.00       297.30
   83.95        2953.50           2193          69.00       288.58
   83.98        2953.75           2197          75.00       314.74
   84.02        2954.00           2200          65.00       271.14
   84.05        2954.25           2204          76.00       319.10
   84.08        2954.50           2208          77.00       323.46
   84.11        2954.75           2211          72.00       301.66
   84.14        2955.00           2215          68.00       284.22
   84.17        2955.25           2218          78.00       327.82
   84.20        2955.50           2222          76.00       319.10
   84.23        2955.75           2225          80.00       336.53
   84.26        2956.00           2229          84.00       353.97
   84.29        2956.25           2232          82.00       345.25
   84.32        2956.50           2236          86.00       362.69
   84.35        2956.75           2239          78.00       327.82
   84.38        2957.00           2243          87.00       367.05
   84.41        2957.25           2246          86.00       362.69
   84.44        2957.50           2250          86.00       362.69
   84.47        2957.75           2254          80.00       336.53
   84.50        2958.00           2257          81.00       340.89
   84.54        2958.25           2261          89.00       375.77
   84.57        2958.50           2264          92.00       388.85
   84.60        2958.75           2268          87.00       367.05
   84.63        2959.00           2271          90.00       380.13
   84.66        2959.25           2275          90.00       380.13
   84.69        2959.50           2278          88.00       371.41
   84.72        2959.75           2282         102.00       432.44
   84.75        2960.00           2285          97.00       410.64
   84.79        2960.25           2289         101.00       428.08
   84.83        2960.50           2293         109.00       462.95
   84.86        2960.75           2296         110.00       467.31
   84.89        2961.00           2300         181.00       776.83
   84.92        2961.25           2303         465.00      2014.96
   84.95        2961.50           2307        1392.00      6057.05
   84.98        2961.75           2310        2475.00     10780.76
   85.01        2962.00           2314        4033.00     17578.94
   85.04        2962.25           2317        5270.00     22978.72
   85.07        2962.50           2321        6935.00     30249.93
   85.10        2962.75           2324        8274.00     36100.09
   85.13        2963.00           2328        9984.00     43574.54
   85.16        2963.25           2331       11347.00     49534.97
   85.19        2963.50           2335       13381.00     58434.21
   85.22        2963.75           2339       15024.00     65626.66
   85.25        2964.00           2342       16190.00     70733.11
   85.28        2964.25           2346       18075.00     78992.16
   85.31        2964.50           2349       19609.00     85716.75
   85.35        2964.75           2353       21411.00     93620.10
   85.38        2965.00           2356       22561.00     98666.09
   85.41        2965.25           2360       24072.00    105298.70
   85.44        2965.50           2363       25396.00    111113.00
   85.48        2965.75           2367       26951.00    117944.60
   85.51        2966.00           2370       29276.00    128165.00
   85.54        2966.25           2374       30804.00    134885.70
   85.57        2966.50           2378       31786.00    139206.60
   85.60        2966.75           2381       32212.00    141081.40
   85.63        2967.00           2385       32320.00    141556.80
   85.66        2967.25           2388       32358.00    141724.00
   85.69        2967.50           2392       32511.00    142397.40
   85.72        2967.75           2395       32371.00    141781.20
   85.75        2968.00           2399       31644.00    138581.70
   85.78        2968.25           2402       30530.00    133680.30
   85.81        2968.50           2406       28671.00    125504.80
   85.84        2968.75           2409       27140.00    118775.10
   85.87        2969.00           2413       25166.00    110102.80
   85.90        2969.25           2417       23413.00    102405.60
   85.93        2969.50           2420       22256.00     97327.64
   85.96        2969.75           2424       20152.00     88097.84
   85.99        2970.00           2427       18577.00     81192.44
   86.03        2970.25           2431       16577.00     72428.36
   86.06        2970.50           2434       15219.00     66480.53
   86.09        2970.75           2438       13127.00     57322.60
   86.12        2971.00           2441       11573.00     50523.51
   86.15        2971.25           2445       10030.00     43775.66
   86.18        2971.50           2449        8035.00     35055.71
   86.21        2971.75           2452        6291.00     27437.09
   86.24        2972.00           2456        4407.00     19211.33
   86.27        2972.25           2459        2977.00     12970.85
   86.30        2972.50           2463        1390.00      6048.32
   86.33        2972.75           2466         641.00      2782.30
   86.36        2973.00           2470         214.00       920.69
   86.39        2973.25           2473         157.00       672.20
   86.42        2973.50           2477         123.00       523.98
   86.45        2973.75           2481         127.00       541.42
   86.48        2974.00           2484         135.00       576.30
   86.51        2974.25           2488         148.00       632.97
   86.55        2974.50           2491         106.00       449.88
   86.58        2974.75           2495         122.00       519.63
   86.61        2975.00           2498         103.00       436.80
   86.64        2975.25           2502         109.00       462.95
   86.67        2975.50           2505         107.00       454.24
   86.70        2975.75           2509         102.00       432.44
   86.73        2976.00           2512         128.00       545.78
   86.77        2976.25           2516          96.00       406.28
   86.81        2976.50           2520          94.00       397.56
   86.84        2976.75           2523         105.00       445.52
   86.87        2977.00           2527          87.00       367.05
   86.90        2977.25           2530         105.00       445.52
   86.93        2977.50           2534          83.00       349.61
   86.96        2977.75           2537          94.00       397.56
   86.99        2978.00           2541          94.00       397.56
   87.02        2978.25           2544          90.00       380.13
   87.05        2978.50           2548          96.00       406.28
   87.08        2978.75           2552         105.00       445.52
   87.11        2979.00           2555          94.00       397.56
   87.14        2979.25           2559          91.00       384.49
   87.17        2979.50           2562          93.00       393.20
   87.20        2979.75           2566          88.00       371.41
   87.23        2980.00           2569          94.00       397.56
   87.26        2980.25           2573          90.00       380.13
   87.29        2980.50           2577          91.00       384.49
   87.33        2980.75           2580          83.00       349.61
   87.36        2981.00           2584          88.00       371.41
   87.39        2981.25           2587          85.00       358.33
   87.42        2981.50           2591          88.00       371.41
   87.45        2981.75           2594          85.00       358.33
   87.48        2982.00           2598          82.00       345.25
   87.52        2982.25           2601          87.00       367.05
   87.55        2982.50           2605          86.00       362.69
   87.58        2982.75           2609          85.00       358.33
   87.61        2983.00           2612          75.00       314.74
   87.64        2983.25           2616          87.00       367.05
   87.67        2983.50           2619          88.00       371.41
   87.70        2983.75           2623          84.00       353.97
   87.73        2984.00           2626          88.00       371.41
HS scan finished at 01:27:57
end
************************************************************
  HS Scan of (1) Internal mercury lamp
************************************************************
Integration time is 0.2294 seconds per sample
dh310718Reading 51.44 .94 3.78pr1000
************************************************************
Dead Time -------------------------  3.4E-08 
Number of Cycles Used -------------  4 
Starting Wavelength (Angstroms) ---  2950 
Final Wavelength (Angstoms) -------  2984 
Wavelength Increment (Angstroms) --  .25 
Filter Wheel #1 Position ---------- (1) Ground quartz diffuser (ND=2.32)
Filter Wheel #2 Position ---------- (1) Neutral Density 0.494



************************************************************
HS scan start time = 20:37:26
Dark Count =  5.8 


Time (GMT)  Wavelength (Ang)  Step Number  Raw Counts  Counts/Second

 1238.33        2950.00           2144          57.00       223.19
 1238.52        2950.25           2147          60.00       236.27
 1238.55        2950.50           2151          59.00       231.91
 1238.58        2950.75           2155          64.00       253.71
 1238.62        2951.00           2158          51.00       197.04
 1238.65        2951.25           2162          57.00       223.19
 1238.68        2951.50           2165          52.00       201.40
 1238.71        2951.75           2169          61.00       240.63
 1238.74        2952.00           2172          60.00       236.27
 1238.77        2952.25           2176          58.00       227.55
 1238.80        2952.50           2179          59.00       231.91
 1238.83        2952.75           2183          56.00       218.83
 1238.86        2953.00           2186          61.00       240.63
 1238.89        2953.25           2190          61.00       240.63
 1238.92        2953.50           2193          56.00       218.83
 1238.95        2953.75           2197          63.00       249.35
 1238.98        2954.00           2200          64.00       253.71
 1239.01        2954.25           2204          70.00       279.86
 1239.04        2954.50           2208          66.00       262.43
 1239.07        2954.75           2211          62.00       244.99
 1239.10        2955.00           2215          68.00       271.14
 1239.14        2955.25           2218          60.00       236.27
 1239.17        2955.50           2222          65.00       258.07
 1239.20        2955.75           2225          71.00       284.22
 1239.23        2956.00           2229          67.00       266.79
 1239.26        2956.25           2232          63.00       249.35
 1239.29        2956.50           2236          76.00       306.02
 1239.32        2956.75           2239          68.00       271.14
 1239.35        2957.00           2243          64.00       253.71
 1239.38        2957.25           2246          63.00       249.35
 1239.41        2957.50           2250          73.00       292.94
 1239.44        2957.75           2254          73.00       292.94
 1239.47        2958.00           2257          74.00       297.30
 1239.50        2958.25           2261          80.00       323.46
 1239.53        2958.50           2264          75.00       301.66
 1239.56        2958.75           2268          78.00       314.74
 1239.59        2959.00           2271          69.00       275.50
 1239.62        2959.25           2275          72.00       288.58
 1239.65        2959.50           2278          81.00       327.82
 1239.69        2959.75           2282          78.00       314.74
 1239.72        2960.00           2285          87.00       353.97
 1239.75        2960.25           2289          83.00       336.53
 1239.78        2960.50           2293          83.00       336.53
 1239.81        2960.75           2296          87.00       353.97
 1239.84        2961.00           2300         140.00       585.02
 1239.87        2961.25           2303         309.00      1321.77
 1239.90        2961.50           2307        1069.00      4635.43
 1239.93        2961.75           2310        1897.00      8246.43
 1239.96        2962.00           2314        3249.00     14144.55
 1239.99        2962.25           2317        4167.00     18150.69
 1240.02        2962.50           2321        5508.00     24004.76
 1240.05        2962.75           2324        6414.00     27961.18
 1240.08        2963.00           2328        7722.00     33674.98
 1240.11        2963.25           2331        8933.00     38967.02
 1240.14        2963.50           2335       10460.00     45642.71
 1240.17        2963.75           2339       11863.00     51778.96
 1240.21        2964.00           2342       12876.00     56211.08
 1240.24        2964.25           2346       14115.00     61633.82
 1240.27        2964.50           2349       15403.00     67273.15
 1240.30        2964.75           2353       16903.00     73843.41
 1240.33        2965.00           2356       17967.00     78505.69
 1240.36        2965.25           2360       19425.00     84896.84
 1240.39        2965.50           2363       20339.00     88904.78
 1240.42        2965.75           2367       21623.00     94537.03
 1240.45        2966.00           2370       22425.00     98056.09
 1240.48        2966.25           2374       23333.00    102041.30
 1240.51        2966.50           2378       23705.00    103674.30
 1240.55        2966.75           2381       24032.00    105109.90
 1240.58        2967.00           2385       24118.00    105487.50
 1240.61        2967.25           2388       24204.00    105865.10
 1240.64        2967.50           2392       24003.00    104982.60
 1240.67        2967.75           2395       23962.00    104802.60
 1240.70        2968.00           2399       23334.00    102045.70
 1240.73        2968.25           2402       22307.00     97538.27
 1240.76        2968.50           2406       20906.00     91391.66
 1240.79        2968.75           2409       19760.00     86365.71
 1240.82        2969.00           2413       18659.00     81538.73
 1240.85        2969.25           2417       17265.00     75429.46
 1240.88        2969.50           2420       16333.00     71346.36
 1240.92        2969.75           2424       14880.00     64983.00
 1240.95        2970.00           2427       13973.00     61012.23
 1240.98        2970.25           2431       12406.00     54154.55
 1241.01        2970.50           2434       11214.00     48940.14
 1241.04        2970.75           2438        9888.00     43141.71
 1241.07        2971.00           2441        8675.00     37839.41
 1241.10        2971.25           2445        7210.00     31438.12
 1241.13        2971.50           2449        6080.00     26502.51
 1241.16        2971.75           2452        5047.00     21992.03
 1241.19        2972.00           2456        3593.00     15645.64
 1241.22        2972.25           2459        2669.00     11614.00
 1241.25        2972.50           2463        1295.00      5620.95
 1241.28        2972.75           2466         592.00      2555.58
 1241.31        2973.00           2470         189.00       798.63
 1241.34        2973.25           2473         141.00       589.38
 1241.37        2973.50           2477         123.00       510.91
 1241.40        2973.75           2481         109.00       449.88
 1241.44        2974.00           2484         100.00       410.64
 1241.47        2974.25           2488          86.00       349.61
 1241.50        2974.50           2491          82.00       332.17
 1241.53        2974.75           2495          86.00       349.61
 1241.56        2975.00           2498          95.00       388.85
 1241.59        2975.25           2502          83.00       336.53
 1241.62        2975.50           2505          88.00       358.33
 1241.65        2975.75           2509          79.00       319.10
 1241.68        2976.00           2512          84.00       340.89
 1241.71        2976.25           2516          83.00       336.53
 1241.74        2976.50           2520          79.00       319.10
 1241.77        2976.75           2523          76.00       306.02
 1241.80        2977.00           2527          67.00       266.79
 1241.83        2977.25           2530          75.00       301.66
 1241.86        2977.50           2534          80.00       323.46
 1241.89        2977.75           2537          72.00       288.58
 1241.92        2978.00           2541          79.00       319.10
 1241.96        2978.25           2544          75.00       301.66
 1241.99        2978.50           2548          78.00       314.74
 1242.02        2978.75           2552          71.00       284.22
 1242.05        2979.00           2555          71.00       284.22
 1242.08        2979.25           2559          69.00       275.50
 1242.11        2979.50           2562          72.00       288.58
 1242.14        2979.75           2566          71.00       284.22
 1242.17        2980.00           2569          81.00       327.82
 1242.20        2980.25           2573          66.00       262.43
 1242.23        2980.50           2577          69.00       275.50
 1242.26        2980.75           2580          73.00       292.94
 1242.29        2981.00           2584          69.00       275.50
 1242.32        2981.25           2587          76.00       306.02
 1242.35        2981.50           2591          68.00       271.14
 1242.38        2981.75           2594          73.00       292.94
 1242.41        2982.00           2598          77.00       310.38
 1242.44        2982.25           2601          72.00       288.58
 1242.48        2982.50           2605          75.00       301.66
 1242.51        2982.75           2609          66.00       262.43
 1242.54        2983.00           2612          71.00       284.22
 1242.57        2983.25           2616          73.00       292.94
 1242.60        2983.50           2619          70.00       279.86
 1242.63        2983.75           2623          70.00       279.86
 1242.66        2984.00           2626          70.00       279.86
HS scan finished at 20:42:53
end
