************************************************************
  HS Scan of (1) Internal mercury lamp
************************************************************
Integration time is 0.2294 seconds per sample
dh010818Reading 51.44 .94 3.49pr1000
************************************************************
Dead Time -------------------------  3.4E-08 
Number of Cycles Used -------------  4 
Starting Wavelength (Angstroms) ---  2950 
Final Wavelength (Angstoms) -------  2984 
Wavelength Increment (Angstroms) --  .25 
Filter Wheel #1 Position ---------- (1) Ground quartz diffuser (ND=2.32)
Filter Wheel #2 Position ---------- (1) Neutral Density 0.494



************************************************************
HS scan start time = 02:42:07
Dark Count =  2.6 


Time (GMT)  Wavelength (Ang)  Step Number  Raw Counts  Counts/Second

  163.01        2950.00           2144          58.00       241.50
  163.20        2950.25           2147          76.00       319.97
  163.23        2950.50           2151          68.00       285.09
  163.26        2950.75           2155          73.00       306.89
  163.29        2951.00           2158          71.00       298.17
  163.32        2951.25           2162          68.00       285.09
  163.35        2951.50           2165          74.00       311.25
  163.38        2951.75           2169          77.00       324.33
  163.42        2952.00           2172          75.00       315.61
  163.45        2952.25           2176          81.00       341.77
  163.48        2952.50           2179          75.00       315.61
  163.51        2952.75           2183          71.00       298.17
  163.54        2953.00           2186          75.00       315.61
  163.57        2953.25           2190          70.00       293.81
  163.60        2953.50           2193          75.00       315.61
  163.63        2953.75           2197          78.00       328.69
  163.66        2954.00           2200          76.00       319.97
  163.69        2954.25           2204          73.00       306.89
  163.72        2954.50           2208          75.00       315.61
  163.75        2954.75           2211          76.00       319.97
  163.78        2955.00           2215          78.00       328.69
  163.81        2955.25           2218          76.00       319.97
  163.84        2955.50           2222          81.00       341.77
  163.87        2955.75           2225          81.00       341.77
  163.90        2956.00           2229          85.00       359.20
  163.94        2956.25           2232          76.00       319.97
  163.97        2956.50           2236          84.00       354.84
  164.00        2956.75           2239          76.00       319.97
  164.03        2957.00           2243          89.00       376.64
  164.06        2957.25           2246          86.00       363.56
  164.09        2957.50           2250          89.00       376.64
  164.12        2957.75           2254          92.00       389.72
  164.15        2958.00           2257          86.00       363.56
  164.18        2958.25           2261          88.00       372.28
  164.21        2958.50           2264         112.00       476.90
  164.24        2958.75           2268          90.00       381.00
  164.27        2959.00           2271          89.00       376.64
  164.30        2959.25           2275          94.00       398.44
  164.33        2959.50           2278          97.00       411.51
  164.36        2959.75           2282          96.00       407.15
  164.39        2960.00           2285         119.00       507.42
  164.42        2960.25           2289         108.00       459.47
  164.46        2960.50           2293         102.00       433.31
  164.49        2960.75           2296         114.00       485.62
  164.52        2961.00           2300         165.00       707.95
  164.55        2961.25           2303         348.00      1505.74
  164.58        2961.50           2307        1187.00      5163.94
  164.61        2961.75           2310        2203.00      9595.11
  164.64        2962.00           2314        3842.00     16746.24
  164.67        2962.25           2317        5211.00     22722.00
  164.70        2962.50           2321        6793.00     29630.53
  164.73        2962.75           2324        7986.00     34842.47
  164.76        2963.00           2328        9723.00     42434.33
  164.79        2963.25           2331       11053.00     48249.98
  164.82        2963.50           2335       13004.00     56785.21
  164.85        2963.75           2339       14722.00     64305.23
  164.88        2964.00           2342       16224.00     70882.93
  164.91        2964.25           2346       17920.00     78313.75
  164.94        2964.50           2349       19106.00     83512.30
  164.97        2964.75           2353       21106.00     92283.00
  165.01        2965.00           2356       22446.00     98162.30
  165.04        2965.25           2360       24258.00    106116.30
  165.07        2965.50           2363       25341.00    110872.30
  165.10        2965.75           2367       27185.00    118973.80
  165.13        2966.00           2370       28422.00    124411.00
  165.16        2966.25           2374       29566.00    129441.10
  165.19        2966.50           2378       29983.00    131275.10
  165.22        2966.75           2381       30232.00    132370.40
  165.25        2967.00           2385       30345.00    132867.40
  165.28        2967.25           2388       30187.00    132172.40
  165.31        2967.50           2392       30118.00    131868.90
  165.34        2967.75           2395       29838.00    130637.40
  165.37        2968.00           2399       28901.00    126516.90
  165.40        2968.25           2402       27998.00    122547.00
  165.43        2968.50           2406       26422.00    115621.00
  165.46        2968.75           2409       24959.00    109194.50
  165.49        2969.00           2413       23250.00    101691.00
  165.53        2969.25           2417       21691.00     94849.41
  165.56        2969.50           2420       20523.00     89725.80
  165.59        2969.75           2424       18839.00     82341.81
  165.62        2970.00           2427       17543.00     76661.63
  165.65        2970.25           2431       15512.00     67764.50
  165.68        2970.50           2434       14226.00     62133.74
  165.71        2970.75           2438       12247.00     53472.90
  165.74        2971.00           2441       10925.00     47690.17
  165.77        2971.25           2445        9141.00     39890.17
  165.80        2971.50           2449        7477.00     32618.54
  165.83        2971.75           2452        6250.00     27258.91
  165.86        2972.00           2456        4690.00     20447.52
  165.89        2972.25           2459        3464.00     15096.68
  165.92        2972.50           2463        1826.00      7950.71
  165.95        2972.75           2466         859.00      3733.69
  165.98        2973.00           2470         272.00      1174.41
  166.02        2973.25           2473         167.00       716.67
  166.05        2973.50           2477         121.00       516.14
  166.08        2973.75           2481         110.00       468.19
  166.11        2974.00           2484         113.00       481.26
  166.14        2974.25           2488         143.00       612.04
  166.17        2974.50           2491         103.00       437.67
  166.20        2974.75           2495         104.00       442.03
  166.23        2975.00           2498         106.00       450.75
  166.26        2975.25           2502          98.00       415.87
  166.29        2975.50           2505          93.00       394.08
  166.32        2975.75           2509         110.00       468.19
  166.35        2976.00           2512          92.00       389.72
  166.38        2976.25           2516          85.00       359.20
  166.42        2976.50           2520         114.00       485.62
  166.45        2976.75           2523          93.00       394.08
  166.48        2977.00           2527          91.00       385.36
  166.51        2977.25           2530          85.00       359.20
  166.54        2977.50           2534          92.00       389.72
  166.57        2977.75           2537          96.00       407.15
  166.60        2978.00           2541          78.00       328.69
  166.63        2978.25           2544          84.00       354.84
  166.66        2978.50           2548          79.00       333.05
  166.69        2978.75           2552          78.00       328.69
  166.72        2979.00           2555          93.00       394.08
  166.76        2979.25           2559          93.00       394.08
  166.79        2979.50           2562          78.00       328.69
  166.82        2979.75           2566          81.00       341.77
  166.85        2980.00           2569          79.00       333.05
  166.88        2980.25           2573          76.00       319.97
  166.91        2980.50           2577          79.00       333.05
  166.94        2980.75           2580          82.00       346.12
  166.97        2981.00           2584          73.00       306.89
  167.00        2981.25           2587          79.00       333.05
  167.03        2981.50           2591          76.00       319.97
  167.06        2981.75           2594          76.00       319.97
  167.09        2982.00           2598          68.00       285.09
  167.12        2982.25           2601          74.00       311.25
  167.15        2982.50           2605          78.00       328.69
  167.18        2982.75           2609          74.00       311.25
  167.21        2983.00           2612          75.00       315.61
  167.24        2983.25           2616          71.00       298.17
  167.28        2983.50           2619          71.00       298.17
  167.31        2983.75           2623          67.00       280.74
  167.34        2984.00           2626          74.00       311.25
HS scan finished at 02:47:34
end
************************************************************
  HS Scan of (1) Internal mercury lamp
************************************************************
Integration time is 0.2294 seconds per sample
dh010818Reading 51.44 .94 3.84pr1000
************************************************************
Dead Time -------------------------  3.4E-08 
Number of Cycles Used -------------  4 
Starting Wavelength (Angstroms) ---  2950 
Final Wavelength (Angstoms) -------  2984 
Wavelength Increment (Angstroms) --  .25 
Filter Wheel #1 Position ---------- (1) Ground quartz diffuser (ND=2.32)
Filter Wheel #2 Position ---------- (1) Neutral Density 0.494



************************************************************
HS scan start time = 20:37:31
Dark Count =  6.8 


Time (GMT)  Wavelength (Ang)  Step Number  Raw Counts  Counts/Second

 1238.42        2950.00           2144          41.00       149.09
 1238.61        2950.25           2147          45.00       166.52
 1238.64        2950.50           2151          44.00       162.16
 1238.68        2950.75           2155          39.00       140.37
 1238.71        2951.00           2158          36.00       127.29
 1238.74        2951.25           2162          42.00       153.44
 1238.77        2951.50           2165          40.00       144.73
 1238.80        2951.75           2169          44.00       162.16
 1238.83        2952.00           2172          45.00       166.52
 1238.86        2952.25           2176          36.00       127.29
 1238.89        2952.50           2179          50.00       188.32
 1238.92        2952.75           2183          46.00       170.88
 1238.95        2953.00           2186          42.00       153.44
 1238.98        2953.25           2190          47.00       175.24
 1239.01        2953.50           2193          45.00       166.52
 1239.04        2953.75           2197          45.00       166.52
 1239.07        2954.00           2200          50.00       188.32
 1239.10        2954.25           2204          40.00       144.73
 1239.13        2954.50           2208          45.00       166.52
 1239.16        2954.75           2211          45.00       166.52
 1239.20        2955.00           2215          48.00       179.60
 1239.23        2955.25           2218          49.00       183.96
 1239.26        2955.50           2222          47.00       175.24
 1239.29        2955.75           2225          45.00       166.52
 1239.32        2956.00           2229          50.00       188.32
 1239.35        2956.25           2232          48.00       179.60
 1239.38        2956.50           2236          48.00       179.60
 1239.41        2956.75           2239          53.00       201.40
 1239.44        2957.00           2243          49.00       183.96
 1239.47        2957.25           2246          49.00       183.96
 1239.50        2957.50           2250          53.00       201.40
 1239.53        2957.75           2254          59.00       227.55
 1239.56        2958.00           2257          47.00       175.24
 1239.59        2958.25           2261          61.00       236.27
 1239.62        2958.50           2264          63.00       244.99
 1239.65        2958.75           2268          53.00       201.40
 1239.68        2959.00           2271          60.00       231.91
 1239.71        2959.25           2275          57.00       218.83
 1239.75        2959.50           2278          55.00       210.11
 1239.78        2959.75           2282          54.00       205.76
 1239.81        2960.00           2285          56.00       214.47
 1239.84        2960.25           2289          61.00       236.27
 1239.87        2960.50           2293          60.00       231.91
 1239.90        2960.75           2296          63.00       244.99
 1239.93        2961.00           2300          76.00       301.66
 1239.96        2961.25           2303         158.00       659.13
 1239.99        2961.50           2307         586.00      2525.06
 1240.02        2961.75           2310        1170.00      5071.49
 1240.05        2962.00           2314        1944.00      8447.06
 1240.08        2962.25           2317        2665.00     11592.19
 1240.11        2962.50           2321        3459.00     15056.53
 1240.14        2962.75           2324        4102.00     17862.63
 1240.17        2963.00           2328        4952.00     21572.93
 1240.20        2963.25           2331        5596.00     24384.64
 1240.23        2963.50           2335        6635.00     28922.06
 1240.27        2963.75           2339        7528.00     32823.01
 1240.30        2964.00           2342        8319.00     36279.25
 1240.33        2964.25           2346        9144.00     39884.92
 1240.36        2964.50           2349        9900.00     43189.80
 1240.39        2964.75           2353       10779.00     47033.31
 1240.42        2965.00           2356       11687.00     51004.68
 1240.45        2965.25           2360       12654.00     55235.29
 1240.48        2965.50           2363       13227.00     57742.72
 1240.51        2965.75           2367       14226.00     62115.36
 1240.54        2966.00           2370       14747.00     64396.30
 1240.57        2966.25           2374       15609.00     68170.91
 1240.60        2966.50           2378       16011.00     69931.56
 1240.63        2966.75           2381       16195.00     70737.50
 1240.66        2967.00           2385       16474.00     71959.63
 1240.69        2967.25           2388       16253.00     70991.55
 1240.72        2967.50           2392       16230.00     70890.80
 1240.75        2967.75           2395       16169.00     70623.61
 1240.79        2968.00           2399       15822.00     69103.75
 1240.82        2968.25           2402       15382.00     67176.80
 1240.85        2968.50           2406       14555.00     63555.67
 1240.88        2968.75           2409       13682.00     59734.10
 1240.91        2969.00           2413       12696.00     55419.07
 1240.94        2969.25           2417       11661.00     50890.94
 1240.97        2969.50           2420       10975.00     47890.47
 1241.00        2969.75           2424       10017.00     43701.33
 1241.03        2970.00           2427        9253.00     40361.37
 1241.06        2970.25           2431        8340.00     36371.02
 1241.09        2970.50           2434        7597.00     33124.47
 1241.12        2970.75           2438        6600.00     28769.19
 1241.15        2971.00           2441        5899.00     25707.73
 1241.18        2971.25           2445        4950.00     21564.19
 1241.21        2971.50           2449        3971.00     17290.90
 1241.24        2971.75           2452        3306.00     14388.90
 1241.27        2972.00           2456        2417.00     10510.29
 1241.31        2972.25           2459        1738.00      7548.58
 1241.34        2972.50           2463         868.00      3754.62
 1241.37        2972.75           2466         419.00      1796.97
 1241.40        2973.00           2470         134.00       554.50
 1241.43        2973.25           2473          84.00       336.53
 1241.46        2973.50           2477          74.00       292.94
 1241.49        2973.75           2481          64.00       249.35
 1241.52        2974.00           2484          65.00       253.71
 1241.55        2974.25           2488          68.00       266.79
 1241.58        2974.50           2491          67.00       262.43
 1241.61        2974.75           2495          59.00       227.55
 1241.64        2975.00           2498          62.00       240.63
 1241.67        2975.25           2502          57.00       218.83
 1241.70        2975.50           2505          55.00       210.11
 1241.73        2975.75           2509          58.00       223.19
 1241.76        2976.00           2512          52.00       197.04
 1241.79        2976.25           2516          63.00       244.99
 1241.83        2976.50           2520          55.00       210.11
 1241.86        2976.75           2523          60.00       231.91
 1241.89        2977.00           2527          56.00       214.47
 1241.92        2977.25           2530          56.00       214.47
 1241.95        2977.50           2534          57.00       218.83
 1241.98        2977.75           2537          60.00       231.91
 1242.01        2978.00           2541          53.00       201.40
 1242.04        2978.25           2544          48.00       179.60
 1242.07        2978.50           2548          51.00       192.68
 1242.10        2978.75           2552          57.00       218.83
 1242.13        2979.00           2555          52.00       197.04
 1242.16        2979.25           2559          47.00       175.24
 1242.19        2979.50           2562          51.00       192.68
 1242.22        2979.75           2566          49.00       183.96
 1242.25        2980.00           2569          51.00       192.68
 1242.28        2980.25           2573          49.00       183.96
 1242.31        2980.50           2577          49.00       183.96
 1242.35        2980.75           2580          46.00       170.88
 1242.38        2981.00           2584          52.00       197.04
 1242.41        2981.25           2587          45.00       166.52
 1242.44        2981.50           2591          50.00       188.32
 1242.47        2981.75           2594          46.00       170.88
 1242.50        2982.00           2598          46.00       170.88
 1242.53        2982.25           2601          47.00       175.24
 1242.56        2982.50           2605          42.00       153.44
 1242.59        2982.75           2609          49.00       183.96
 1242.62        2983.00           2612          47.00       175.24
 1242.65        2983.25           2616          46.00       170.88
 1242.68        2983.50           2619          51.00       192.68
 1242.71        2983.75           2623          40.00       144.73
 1242.74        2984.00           2626          49.00       183.96
HS scan finished at 20:42:58
end
