************************************************************
  HS Scan of (1) Internal mercury lamp
************************************************************
Integration time is 0.2294 seconds per sample
dh010817Reading 51.44 .94 3.49pr1000
************************************************************
Dead Time -------------------------  3.4E-08 
Number of Cycles Used -------------  4 
Starting Wavelength (Angstroms) ---  2950 
Final Wavelength (Angstoms) -------  2984 
Wavelength Increment (Angstroms) --  .25 
Filter Wheel #1 Position ---------- (1) Ground quartz diffuser (ND=2.32)
Filter Wheel #2 Position ---------- (1) Neutral Density 0.494



************************************************************
HS scan start time = 02:42:11
Dark Count =  2.6 


Time (GMT)  Wavelength (Ang)  Step Number  Raw Counts  Counts/Second

  163.07        2950.00           2144         358.00      1549.34
  163.27        2950.25           2147         344.00      1488.31
  163.30        2950.50           2151         362.00      1566.78
  163.33        2950.75           2155         370.00      1601.66
  163.36        2951.00           2158         376.00      1627.81
  163.39        2951.25           2162         378.00      1636.53
  163.42        2951.50           2165         360.00      1558.06
  163.45        2951.75           2169         370.00      1601.66
  163.48        2952.00           2172         383.00      1658.33
  163.51        2952.25           2176         397.00      1719.37
  163.54        2952.50           2179         361.00      1562.42
  163.57        2952.75           2183         388.00      1680.13
  163.60        2953.00           2186         371.00      1606.02
  163.63        2953.25           2190         404.00      1749.89
  163.67        2953.50           2193         376.00      1627.81
  163.70        2953.75           2197         385.00      1667.05
  163.73        2954.00           2200         428.00      1854.52
  163.76        2954.25           2204         381.00      1649.61
  163.79        2954.50           2208         421.00      1824.00
  163.82        2954.75           2211         403.00      1745.53
  163.85        2955.00           2215         417.00      1806.56
  163.88        2955.25           2218         396.00      1715.01
  163.91        2955.50           2222         397.00      1719.37
  163.94        2955.75           2225         438.00      1898.12
  163.97        2956.00           2229         413.00      1789.12
  164.00        2956.25           2232         422.00      1828.36
  164.03        2956.50           2236         425.00      1841.44
  164.06        2956.75           2239         428.00      1854.52
  164.09        2957.00           2243         456.00      1976.59
  164.12        2957.25           2246         431.00      1867.60
  164.15        2957.50           2250         446.00      1933.00
  164.19        2957.75           2254         459.00      1989.67
  164.22        2958.00           2257         443.00      1919.92
  164.25        2958.25           2261         461.00      1998.39
  164.28        2958.50           2264         468.00      2028.91
  164.31        2958.75           2268         495.00      2146.63
  164.34        2959.00           2271         509.00      2207.66
  164.37        2959.25           2275         496.00      2150.99
  164.40        2959.50           2278         503.00      2181.50
  164.43        2959.75           2282         522.00      2264.34
  164.46        2960.00           2285         506.00      2194.58
  164.49        2960.25           2289         539.00      2338.46
  164.52        2960.50           2293         563.00      2443.10
  164.55        2960.75           2296         563.00      2443.10
  164.58        2961.00           2300         687.00      2983.74
  164.61        2961.25           2303        1042.00      4531.65
  164.64        2961.50           2307        4208.00     18343.61
  164.67        2961.75           2310        9204.00     40165.54
  164.71        2962.00           2314       16681.00     72884.85
  164.74        2962.25           2317       22617.00     98912.74
  164.77        2962.50           2321       31023.00    135850.10
  164.80        2962.75           2324       37954.00    166376.20
  164.83        2963.00           2328       47690.00    209363.90
  164.86        2963.25           2331       55292.00    243017.10
  164.89        2963.50           2335       63709.00    280368.80
  164.92        2963.75           2339       72162.00    317976.30
  164.95        2964.00           2342       79269.00    349670.50
  164.98        2964.25           2346       89329.00    394651.60
  165.01        2964.50           2349       96414.00    426414.00
  165.04        2964.75           2353      105107.00    465479.70
  165.07        2965.00           2356      111452.00    494059.90
  165.11        2965.25           2360      119859.00    532014.60
  165.15        2965.50           2363      126246.00    560916.00
  165.18        2965.75           2367      135661.00    603624.00
  165.21        2966.00           2370      142321.00    633910.60
  165.24        2966.25           2374      150165.00    669662.60
  165.27        2966.50           2378      154908.00    691323.40
  165.30        2966.75           2381      156982.00    700805.30
  165.33        2967.00           2385      157033.00    701038.50
  165.36        2967.25           2388      157268.00    702113.30
  165.39        2967.50           2392      157032.00    701034.00
  165.42        2967.75           2395      156128.00    696900.30
  165.45        2968.00           2399      151258.00    674651.40
  165.48        2968.25           2402      145544.00    648590.00
  165.52        2968.50           2406      137873.00    613676.10
  165.55        2968.75           2409      132537.00    589439.10
  165.58        2969.00           2413      123545.00    548686.80
  165.61        2969.25           2417      115024.00    510174.20
  165.64        2969.50           2420      107354.00    475594.70
  165.67        2969.75           2424       97690.00    432141.70
  165.70        2970.00           2427       90782.00    401159.90
  165.73        2970.25           2431       81686.00    360465.00
  165.76        2970.50           2434       74812.00    329786.10
  165.79        2970.75           2438       65535.00    288484.50
  165.82        2971.00           2441       57966.00    254873.10
  165.85        2971.25           2445       48965.00    215002.80
  165.88        2971.50           2449       39775.00    174406.90
  165.91        2971.75           2452       33028.00    144674.20
  165.94        2972.00           2456       24044.00    105176.70
  165.97        2972.25           2459       17332.00     75737.06
  166.00        2972.50           2463        9332.00     40725.05
  166.04        2972.75           2466        4526.00     19731.63
  166.07        2973.00           2470        1309.00      5695.96
  166.10        2973.25           2473         742.00      3223.54
  166.13        2973.50           2477         623.00      2704.70
  166.16        2973.75           2481         604.00      2621.86
  166.19        2974.00           2484         568.00      2464.90
  166.22        2974.25           2488         550.00      2386.42
  166.25        2974.50           2491         532.00      2307.94
  166.28        2974.75           2495         531.00      2303.58
  166.31        2975.00           2498         496.00      2150.99
  166.34        2975.25           2502         507.00      2198.94
  166.37        2975.50           2505         477.00      2068.15
  166.40        2975.75           2509         485.00      2103.03
  166.43        2976.00           2512         478.00      2072.51
  166.46        2976.25           2516         470.00      2037.63
  166.49        2976.50           2520         459.00      1989.67
  166.52        2976.75           2523         464.00      2011.47
  166.56        2977.00           2527         436.00      1889.40
  166.59        2977.25           2530         449.00      1946.07
  166.62        2977.50           2534         432.00      1871.96
  166.65        2977.75           2537         421.00      1824.00
  166.68        2978.00           2541         437.00      1893.76
  166.71        2978.25           2544         426.00      1845.80
  166.74        2978.50           2548         422.00      1828.36
  166.77        2978.75           2552         410.00      1776.04
  166.80        2979.00           2555         396.00      1715.01
  166.83        2979.25           2559         409.00      1771.68
  166.86        2979.50           2562         409.00      1771.68
  166.89        2979.75           2566         381.00      1649.61
  166.92        2980.00           2569         406.00      1758.61
  166.95        2980.25           2573         375.00      1623.46
  166.98        2980.50           2577         390.00      1688.85
  167.01        2980.75           2580         390.00      1688.85
  167.05        2981.00           2584         375.00      1623.46
  167.08        2981.25           2587         368.00      1592.94
  167.11        2981.50           2591         369.00      1597.30
  167.14        2981.75           2594         367.00      1588.58
  167.17        2982.00           2598         383.00      1658.33
  167.20        2982.25           2601         351.00      1518.82
  167.23        2982.50           2605         352.00      1523.18
  167.26        2982.75           2609         354.00      1531.90
  167.29        2983.00           2612         340.00      1470.87
  167.32        2983.25           2616         351.00      1518.82
  167.35        2983.50           2619         353.00      1527.54
  167.38        2983.75           2623         342.00      1479.59
  167.41        2984.00           2626         338.00      1462.15
HS scan finished at 02:47:38
end
************************************************************
  HS Scan of (1) Internal mercury lamp
************************************************************
Integration time is 0.2294 seconds per sample
dh010817Reading 51.44 .94 3.64pr1000
************************************************************
Dead Time -------------------------  3.4E-08 
Number of Cycles Used -------------  4 
Starting Wavelength (Angstroms) ---  2950 
Final Wavelength (Angstoms) -------  2984 
Wavelength Increment (Angstroms) --  .25 
Filter Wheel #1 Position ---------- (1) Ground quartz diffuser (ND=2.32)
Filter Wheel #2 Position ---------- (1) Neutral Density 0.494



************************************************************
HS scan start time = 20:37:29
Dark Count =  4 


Time (GMT)  Wavelength (Ang)  Step Number  Raw Counts  Counts/Second

 1238.38        2950.00           2144         192.00       819.55
 1238.57        2950.25           2147         185.00       789.04
 1238.60        2950.50           2151         197.00       841.35
 1238.63        2950.75           2155         186.00       793.40
 1238.66        2951.00           2158         201.00       858.79
 1238.69        2951.25           2162         207.00       884.94
 1238.72        2951.50           2165         191.00       815.19
 1238.76        2951.75           2169         196.00       836.99
 1238.79        2952.00           2172         210.00       898.02
 1238.82        2952.25           2176         194.00       828.27
 1238.85        2952.50           2179         197.00       841.35
 1238.88        2952.75           2183         199.00       850.07
 1238.91        2953.00           2186         207.00       884.94
 1238.94        2953.25           2190         199.00       850.07
 1238.97        2953.50           2193         203.00       867.51
 1239.00        2953.75           2197         200.00       854.43
 1239.03        2954.00           2200         206.00       880.58
 1239.06        2954.25           2204         208.00       889.30
 1239.09        2954.50           2208         209.00       893.66
 1239.12        2954.75           2211         213.00       911.10
 1239.15        2955.00           2215         232.00       993.93
 1239.18        2955.25           2218         214.00       915.46
 1239.21        2955.50           2222         230.00       985.21
 1239.25        2955.75           2225         217.00       928.54
 1239.28        2956.00           2229         236.00      1011.37
 1239.31        2956.25           2232         215.00       919.82
 1239.34        2956.50           2236         230.00       985.21
 1239.37        2956.75           2239         238.00      1020.09
 1239.40        2957.00           2243         250.00      1072.40
 1239.43        2957.25           2246         232.00       993.93
 1239.46        2957.50           2250         244.00      1046.24
 1239.49        2957.75           2254         246.00      1054.96
 1239.52        2958.00           2257         249.00      1068.04
 1239.55        2958.25           2261         281.00      1207.55
 1239.59        2958.50           2264         246.00      1054.96
 1239.62        2958.75           2268         244.00      1046.24
 1239.65        2959.00           2271         270.00      1159.59
 1239.68        2959.25           2275         260.00      1116.00
 1239.71        2959.50           2278         264.00      1133.44
 1239.74        2959.75           2282         278.00      1194.47
 1239.77        2960.00           2285         280.00      1203.19
 1239.80        2960.25           2289         296.00      1272.94
 1239.83        2960.50           2293         292.00      1255.50
 1239.86        2960.75           2296         308.00      1325.26
 1239.89        2961.00           2300         351.00      1512.72
 1239.92        2961.25           2303         633.00      2742.19
 1239.95        2961.50           2307        2369.00     10313.12
 1239.98        2961.75           2310        5204.00     22685.32
 1240.01        2962.00           2314        9576.00     41785.56
 1240.04        2962.25           2317       13005.00     56783.46
 1240.07        2962.50           2321       17509.00     76506.51
 1240.11        2962.75           2324       20929.00     91500.44
 1240.14        2963.00           2328       25864.00    113163.40
 1240.17        2963.25           2331       29842.00    130648.80
 1240.20        2963.50           2335       34780.00    152382.90
 1240.23        2963.75           2339       39412.00    172799.50
 1240.26        2964.00           2342       43120.00    189163.90
 1240.29        2964.25           2346       48190.00    211568.80
 1240.32        2964.50           2349       52022.00    228525.50
 1240.35        2964.75           2353       56643.00    248999.70
 1240.38        2965.00           2356       60077.00    264233.30
 1240.41        2965.25           2360       64206.00    282571.00
 1240.44        2965.50           2363       67998.00    299432.30
 1240.47        2965.75           2367       72913.00    321316.00
 1240.50        2966.00           2370       76113.00    335581.30
 1240.53        2966.25           2374       80424.00    354821.50
 1240.56        2966.50           2378       83026.00    366446.70
 1240.59        2966.75           2381       83572.00    368887.20
 1240.62        2967.00           2385       83800.00    369906.50
 1240.66        2967.25           2388       83823.00    370009.30
 1240.69        2967.50           2392       83777.00    369803.70
 1240.72        2967.75           2395       83709.00    369499.70
 1240.75        2968.00           2399       81930.00    361548.90
 1240.78        2968.25           2402       79134.00    349061.60
 1240.81        2968.50           2406       74668.00    329138.00
 1240.84        2968.75           2409       71377.00    314473.50
 1240.87        2969.00           2413       67000.00    294992.80
 1240.90        2969.25           2417       62618.00    275515.70
 1240.93        2969.50           2420       58892.00    258974.80
 1240.96        2969.75           2424       53726.00    236072.10
 1240.99        2970.00           2427       49869.00    218996.00
 1241.02        2970.25           2431       45031.00    197604.80
 1241.05        2970.50           2434       41302.00    181138.30
 1241.08        2970.75           2438       36090.00    158154.20
 1241.11        2971.00           2441       32057.00    140393.90
 1241.14        2971.25           2445       27054.00    118391.90
 1241.18        2971.50           2449       21686.00     94821.34
 1241.21        2971.75           2452       17887.00     78162.99
 1241.24        2972.00           2456       13064.00     57041.65
 1241.27        2972.25           2459        9530.00     41584.47
 1241.30        2972.50           2463        5516.00     24047.55
 1241.33        2972.75           2466        3218.00     14017.14
 1241.36        2973.00           2470         991.00      4303.16
 1241.39        2973.25           2473         443.00      1913.81
 1241.42        2973.50           2477         329.00      1416.81
 1241.45        2973.75           2481         317.00      1364.49
 1241.48        2974.00           2484         305.00      1312.18
 1241.51        2974.25           2488         300.00      1290.38
 1241.54        2974.50           2491         295.00      1268.58
 1241.57        2974.75           2495         299.00      1286.02
 1241.60        2975.00           2498         278.00      1194.47
 1241.63        2975.25           2502         310.00      1333.98
 1241.66        2975.50           2505         278.00      1194.47
 1241.70        2975.75           2509         274.00      1177.03
 1241.73        2976.00           2512         288.00      1238.06
 1241.76        2976.25           2516         255.00      1094.20
 1241.79        2976.50           2520         256.00      1098.56
 1241.82        2976.75           2523         256.00      1098.56
 1241.85        2977.00           2527         267.00      1146.51
 1241.88        2977.25           2530         242.00      1037.53
 1241.91        2977.50           2534         239.00      1024.45
 1241.94        2977.75           2537         256.00      1098.56
 1241.97        2978.00           2541         248.00      1063.68
 1242.00        2978.25           2544         244.00      1046.24
 1242.03        2978.50           2548         244.00      1046.24
 1242.06        2978.75           2552         255.00      1094.20
 1242.09        2979.00           2555         232.00       993.93
 1242.12        2979.25           2559         227.00       972.13
 1242.15        2979.50           2562         233.00       998.29
 1242.18        2979.75           2566         225.00       963.41
 1242.22        2980.00           2569         218.00       932.90
 1242.25        2980.25           2573         250.00      1072.40
 1242.28        2980.50           2577         220.00       941.62
 1242.31        2980.75           2580         241.00      1033.17
 1242.34        2981.00           2584         220.00       941.62
 1242.37        2981.25           2587         220.00       941.62
 1242.40        2981.50           2591         208.00       889.30
 1242.43        2981.75           2594         211.00       902.38
 1242.46        2982.00           2598         211.00       902.38
 1242.49        2982.25           2601         205.00       876.22
 1242.52        2982.50           2605         206.00       880.58
 1242.55        2982.75           2609         201.00       858.79
 1242.58        2983.00           2612         193.00       823.91
 1242.61        2983.25           2616         195.00       832.63
 1242.64        2983.50           2619         208.00       889.30
 1242.67        2983.75           2623         188.00       802.11
 1242.70        2984.00           2626         205.00       876.22
HS scan finished at 20:42:56
end
