************************************************************
  HS Scan of (1) Internal mercury lamp
************************************************************
Integration time is 0.2294 seconds per sample
dh100818Reading 51.44 .94 3.17pr1000
************************************************************
Dead Time -------------------------  3.4E-08 
Number of Cycles Used -------------  4 
Starting Wavelength (Angstroms) ---  2950 
Final Wavelength (Angstoms) -------  2984 
Wavelength Increment (Angstroms) --  .25 
Filter Wheel #1 Position ---------- (1) Ground quartz diffuser (ND=2.32)
Filter Wheel #2 Position ---------- (1) Neutral Density 0.494



************************************************************
HS scan start time = 01:13:19
Dark Count =  1.1 


Time (GMT)  Wavelength (Ang)  Step Number  Raw Counts  Counts/Second

   74.21        2950.00           2144          74.00       317.79
   74.40        2950.25           2147          78.00       335.23
   74.43        2950.50           2151          76.00       326.51
   74.46        2950.75           2155          80.00       343.94
   74.49        2951.00           2158          81.00       348.30
   74.53        2951.25           2162          80.00       343.94
   74.56        2951.50           2165          84.00       361.38
   74.59        2951.75           2169          76.00       326.51
   74.62        2952.00           2172          76.00       326.51
   74.65        2952.25           2176          77.00       330.87
   74.68        2952.50           2179          76.00       326.51
   74.71        2952.75           2183          72.00       309.07
   74.74        2953.00           2186          92.00       396.26
   74.77        2953.25           2190          78.00       335.23
   74.80        2953.50           2193          82.00       352.66
   74.83        2953.75           2197          88.00       378.82
   74.86        2954.00           2200          88.00       378.82
   74.89        2954.25           2204          78.00       335.23
   74.92        2954.50           2208          83.00       357.02
   74.95        2954.75           2211          81.00       348.30
   74.98        2955.00           2215          82.00       352.66
   75.01        2955.25           2218          96.00       413.69
   75.04        2955.50           2222          89.00       383.18
   75.08        2955.75           2225          93.00       400.62
   75.11        2956.00           2229          92.00       396.26
   75.14        2956.25           2232          88.00       378.82
   75.17        2956.50           2236          91.00       391.90
   75.20        2956.75           2239          84.00       361.38
   75.23        2957.00           2243          83.00       357.02
   75.26        2957.25           2246          82.00       352.66
   75.29        2957.50           2250          93.00       400.62
   75.32        2957.75           2254          97.00       418.05
   75.35        2958.00           2257         124.00       535.76
   75.38        2958.25           2261         100.00       431.13
   75.41        2958.50           2264         102.00       439.85
   75.44        2958.75           2268         102.00       439.85
   75.47        2959.00           2271          89.00       383.18
   75.50        2959.25           2275         103.00       444.21
   75.53        2959.50           2278         104.00       448.57
   75.57        2959.75           2282         108.00       466.01
   75.60        2960.00           2285         132.00       570.63
   75.63        2960.25           2289         106.00       457.29
   75.66        2960.50           2293         134.00       579.35
   75.69        2960.75           2296         135.00       583.71
   75.72        2961.00           2300         164.00       710.13
   75.75        2961.25           2303         330.00      1433.81
   75.78        2961.50           2307        1112.00      4843.43
   75.81        2961.75           2310        2111.00      9200.35
   75.84        2962.00           2314        3654.00     15932.34
   75.87        2962.25           2317        4850.00     21152.52
   75.90        2962.50           2321        6505.00     28379.16
   75.93        2962.75           2324        7695.00     33577.55
   75.96        2963.00           2328        9742.00     42523.96
   75.99        2963.25           2331       11102.00     48470.84
   76.02        2963.50           2335       13334.00     58235.95
   76.05        2963.75           2339       15054.00     65765.46
   76.08        2964.00           2342       16399.00     71656.06
   76.12        2964.25           2346       17929.00     78359.76
   76.15        2964.50           2349       19103.00     83505.73
   76.18        2964.75           2353       21310.00     93184.49
   76.21        2965.00           2356       22395.00     97945.08
   76.24        2965.25           2360       24027.00    105108.60
   76.27        2965.50           2363       25310.00    110742.70
   76.30        2965.75           2367       26825.00    117398.40
   76.33        2966.00           2370       27909.00    122162.40
   76.36        2966.25           2374       30609.00    134035.40
   76.39        2966.50           2378       31986.00    140094.20
   76.42        2966.75           2381       32269.00    141339.80
   76.45        2967.00           2385       31944.00    139909.40
   76.48        2967.25           2388       32027.00    140274.70
   76.51        2967.50           2392       31682.00    138756.40
   76.54        2967.75           2395       31936.00    139874.20
   76.57        2968.00           2399       31011.00    135803.90
   76.60        2968.25           2402       29843.00    130666.00
   76.64        2968.50           2406       28077.00    122900.90
   76.67        2968.75           2409       26687.00    116792.00
   76.70        2969.00           2413       24726.00    108177.90
   76.73        2969.25           2417       22826.00     99836.57
   76.76        2969.50           2420       21360.00     93403.83
   76.79        2969.75           2424       19573.00     85566.36
   76.82        2970.00           2427       18098.00     79100.43
   76.85        2970.25           2431       16328.00     71345.05
   76.88        2970.50           2434       14819.00     64736.49
   76.91        2970.75           2438       12918.00     56415.44
   76.94        2971.00           2441       11859.00     51782.03
   76.97        2971.25           2445       10015.00     43717.51
   77.00        2971.50           2449        8232.00     35923.98
   77.03        2971.75           2452        6750.00     29449.27
   77.06        2972.00           2456        4768.00     20794.56
   77.09        2972.25           2459        3362.00     14658.13
   77.12        2972.50           2463        1752.00      7634.50
   77.16        2972.75           2466         901.00      3923.37
   77.19        2973.00           2470         261.00      1133.00
   77.22        2973.25           2473         146.00       631.66
   77.25        2973.50           2477         134.00       579.35
   77.28        2973.75           2481         160.00       692.69
   77.31        2974.00           2484         140.00       605.51
   77.34        2974.25           2488         170.00       736.29
   77.37        2974.50           2491         122.00       527.04
   77.40        2974.75           2495         114.00       492.16
   77.43        2975.00           2498         108.00       466.01
   77.46        2975.25           2502         130.00       561.91
   77.49        2975.50           2505         120.00       518.32
   77.52        2975.75           2509          97.00       418.05
   77.55        2976.00           2512         103.00       444.21
   77.58        2976.25           2516         113.00       487.80
   77.61        2976.50           2520         101.00       435.49
   77.64        2976.75           2523          98.00       422.41
   77.68        2977.00           2527          94.00       404.98
   77.71        2977.25           2530          93.00       400.62
   77.74        2977.50           2534          91.00       391.90
   77.77        2977.75           2537          96.00       413.69
   77.80        2978.00           2541          90.00       387.54
   77.83        2978.25           2544         115.00       496.52
   77.86        2978.50           2548          89.00       383.18
   77.89        2978.75           2552          86.00       370.10
   77.92        2979.00           2555          80.00       343.94
   77.95        2979.25           2559          74.00       317.79
   77.98        2979.50           2562          89.00       383.18
   78.01        2979.75           2566          84.00       361.38
   78.04        2980.00           2569          83.00       357.02
   78.07        2980.25           2573         103.00       444.21
   78.10        2980.50           2577          85.00       365.74
   78.13        2980.75           2580          85.00       365.74
   78.16        2981.00           2584          87.00       374.46
   78.20        2981.25           2587          75.00       322.15
   78.23        2981.50           2591          75.00       322.15
   78.26        2981.75           2594          82.00       352.66
   78.29        2982.00           2598          78.00       335.23
   78.32        2982.25           2601          84.00       361.38
   78.35        2982.50           2605          81.00       348.30
   78.38        2982.75           2609          81.00       348.30
   78.41        2983.00           2612          78.00       335.23
   78.44        2983.25           2616          81.00       348.30
   78.47        2983.50           2619          72.00       309.07
   78.50        2983.75           2623          82.00       352.66
   78.53        2984.00           2626          69.00       295.99
HS scan finished at 01:18:45
end
************************************************************
  HS Scan of (1) Internal mercury lamp
************************************************************
Integration time is 0.2294 seconds per sample
dh100818Reading 51.44 .94 3.52pr1000
************************************************************
Dead Time -------------------------  3.4E-08 
Number of Cycles Used -------------  4 
Starting Wavelength (Angstroms) ---  2950 
Final Wavelength (Angstoms) -------  2984 
Wavelength Increment (Angstroms) --  .25 
Filter Wheel #1 Position ---------- (1) Ground quartz diffuser (ND=2.32)
Filter Wheel #2 Position ---------- (1) Neutral Density 0.494



************************************************************
HS scan start time = 20:37:29
Dark Count =  3.1 


Time (GMT)  Wavelength (Ang)  Step Number  Raw Counts  Counts/Second

 1238.38        2950.00           2144          41.00       165.21
 1238.57        2950.25           2147          45.00       182.65
 1238.60        2950.50           2151          50.00       204.45
 1238.63        2950.75           2155          42.00       169.57
 1238.66        2951.00           2158          55.00       226.24
 1238.69        2951.25           2162          47.00       191.37
 1238.73        2951.50           2165          44.00       178.29
 1238.76        2951.75           2169          60.00       248.04
 1238.79        2952.00           2172          41.00       165.21
 1238.82        2952.25           2176          48.00       195.73
 1238.85        2952.50           2179          51.00       208.81
 1238.88        2952.75           2183          49.00       200.09
 1238.91        2953.00           2186          46.00       187.01
 1238.94        2953.25           2190          53.00       217.53
 1238.97        2953.50           2193          52.00       213.17
 1239.00        2953.75           2197          52.00       213.17
 1239.03        2954.00           2200          54.00       221.88
 1239.06        2954.25           2204          49.00       200.09
 1239.09        2954.50           2208          49.00       200.09
 1239.12        2954.75           2211          53.00       217.53
 1239.15        2955.00           2215          48.00       195.73
 1239.18        2955.25           2218          50.00       204.45
 1239.21        2955.50           2222          53.00       217.53
 1239.25        2955.75           2225          53.00       217.53
 1239.28        2956.00           2229          50.00       204.45
 1239.31        2956.25           2232          58.00       239.32
 1239.34        2956.50           2236          55.00       226.24
 1239.37        2956.75           2239          52.00       213.17
 1239.40        2957.00           2243          54.00       221.88
 1239.43        2957.25           2246          56.00       230.60
 1239.46        2957.50           2250          56.00       230.60
 1239.49        2957.75           2254          51.00       208.81
 1239.52        2958.00           2257          59.00       243.68
 1239.55        2958.25           2261          58.00       239.32
 1239.58        2958.50           2264          59.00       243.68
 1239.61        2958.75           2268          74.00       309.07
 1239.64        2959.00           2271          55.00       226.24
 1239.67        2959.25           2275          62.00       256.76
 1239.70        2959.50           2278          67.00       278.56
 1239.73        2959.75           2282          67.00       278.56
 1239.77        2960.00           2285          69.00       287.27
 1239.80        2960.25           2289          66.00       274.20
 1239.84        2960.50           2293          62.00       256.76
 1239.87        2960.75           2296          74.00       309.07
 1239.90        2961.00           2300         125.00       531.40
 1239.93        2961.25           2303         237.00      1019.65
 1239.96        2961.50           2307         826.00      3587.62
 1240.00        2961.75           2310        1509.00      6565.98
 1240.03        2962.00           2314        2464.00     10731.46
 1240.06        2962.25           2317        3228.00     14064.70
 1240.09        2962.50           2321        4360.00     19004.87
 1240.12        2962.75           2324        5119.00     22318.15
 1240.15        2963.00           2328        6322.00     27571.17
 1240.18        2963.25           2331        7073.00     30851.44
 1240.21        2963.50           2335        8110.00     35382.12
 1240.24        2963.75           2339        9000.00     39271.67
 1240.27        2964.00           2342       10003.00     43656.30
 1240.30        2964.25           2346       11043.00     48204.06
 1240.33        2964.50           2349       11864.00     51795.15
 1240.36        2964.75           2353       12887.00     56271.03
 1240.39        2965.00           2356       13711.00     59877.23
 1240.42        2965.25           2360       14596.00     63751.38
 1240.45        2965.50           2363       15457.00     67521.44
 1240.48        2965.75           2367       16734.00     73114.84
 1240.51        2966.00           2370       17794.00     77759.36
 1240.55        2966.25           2374       18422.00     80511.72
 1240.58        2966.50           2378       18542.00     81037.71
 1240.61        2966.75           2381       18928.00     82729.77
 1240.64        2967.00           2385       18338.00     80143.55
 1240.67        2967.25           2388       18785.00     82102.90
 1240.70        2967.50           2392       19621.00     85768.06
 1240.73        2967.75           2395       19274.00     84246.64
 1240.76        2968.00           2399       18649.00     81506.74
 1240.79        2968.25           2402       17732.00     77487.68
 1240.82        2968.50           2406       16542.00     72273.73
 1240.85        2968.75           2409       16090.00     70293.79
 1240.88        2969.00           2413       15202.00     66404.78
 1240.91        2969.25           2417       13946.00     60905.86
 1240.94        2969.50           2420       12867.00     56183.51
 1240.97        2969.75           2424       12299.00     53698.21
 1241.00        2970.00           2427       11089.00     48405.24
 1241.03        2970.25           2431        9858.00     43022.35
 1241.07        2970.50           2434        8712.00     38012.92
 1241.10        2970.75           2438        7454.00     32515.88
 1241.13        2971.00           2441        6770.00     29527.89
 1241.16        2971.25           2445        5656.00     24662.78
 1241.19        2971.50           2449        4424.00     19284.22
 1241.22        2971.75           2452        3544.00     15443.59
 1241.25        2972.00           2456        2518.00     10967.04
 1241.28        2972.25           2459        1743.00      7586.53
 1241.31        2972.50           2463         830.00      3605.06
 1241.34        2972.75           2466         429.00      1856.70
 1241.37        2973.00           2470         133.00       566.27
 1241.40        2973.25           2473          89.00       374.46
 1241.43        2973.50           2477          79.00       330.87
 1241.46        2973.75           2481          73.00       304.71
 1241.49        2974.00           2484          83.00       348.30
 1241.52        2974.25           2488          76.00       317.79
 1241.55        2974.50           2491          70.00       291.63
 1241.59        2974.75           2495          72.00       300.35
 1241.62        2975.00           2498          63.00       261.12
 1241.65        2975.25           2502          68.00       282.91
 1241.68        2975.50           2505          68.00       282.91
 1241.71        2975.75           2509          64.00       265.48
 1241.74        2976.00           2512          67.00       278.56
 1241.77        2976.25           2516          70.00       291.63
 1241.80        2976.50           2520          63.00       261.12
 1241.83        2976.75           2523          64.00       265.48
 1241.86        2977.00           2527          61.00       252.40
 1241.89        2977.25           2530          62.00       256.76
 1241.92        2977.50           2534          51.00       208.81
 1241.95        2977.75           2537          59.00       243.68
 1241.98        2978.00           2541          59.00       243.68
 1242.01        2978.25           2544          68.00       282.91
 1242.04        2978.50           2548          56.00       230.60
 1242.07        2978.75           2552          52.00       213.17
 1242.11        2979.00           2555          54.00       221.88
 1242.14        2979.25           2559          64.00       265.48
 1242.17        2979.50           2562          62.00       256.76
 1242.20        2979.75           2566          56.00       230.60
 1242.23        2980.00           2569          60.00       248.04
 1242.26        2980.25           2573          56.00       230.60
 1242.29        2980.50           2577          59.00       243.68
 1242.32        2980.75           2580          56.00       230.60
 1242.35        2981.00           2584          63.00       261.12
 1242.38        2981.25           2587          53.00       217.53
 1242.41        2981.50           2591          60.00       248.04
 1242.44        2981.75           2594          62.00       256.76
 1242.47        2982.00           2598          51.00       208.81
 1242.50        2982.25           2601          57.00       234.96
 1242.53        2982.50           2605          53.00       217.53
 1242.56        2982.75           2609          58.00       239.32
 1242.59        2983.00           2612          49.00       200.09
 1242.63        2983.25           2616          54.00       221.88
 1242.66        2983.50           2619          52.00       213.17
 1242.69        2983.75           2623          49.00       200.09
 1242.72        2984.00           2626          48.00       195.73
HS scan finished at 20:42:56
end
