************************************************************
  HS Scan of (1) Internal mercury lamp
************************************************************
Integration time is 0.2294 seconds per sample
dh150818Reading 51.44 .94 3.64pr1000
************************************************************
Dead Time -------------------------  3.4E-08 
Number of Cycles Used -------------  4 
Starting Wavelength (Angstroms) ---  2950 
Final Wavelength (Angstoms) -------  2984 
Wavelength Increment (Angstroms) --  .25 
Filter Wheel #1 Position ---------- (1) Ground quartz diffuser (ND=2.32)
Filter Wheel #2 Position ---------- (1) Neutral Density 0.494



************************************************************
HS scan start time = 02:40:15
Dark Count =  4.1 


Time (GMT)  Wavelength (Ang)  Step Number  Raw Counts  Counts/Second

  161.15        2950.00           2144          65.00       265.48
  161.34        2950.25           2147          79.00       326.51
  161.37        2950.50           2151          82.00       339.59
  161.40        2950.75           2155          74.00       304.71
  161.44        2951.00           2158          66.00       269.84
  161.47        2951.25           2162          74.00       304.71
  161.50        2951.50           2165          72.00       295.99
  161.53        2951.75           2169          75.00       309.07
  161.56        2952.00           2172          68.00       278.56
  161.59        2952.25           2176          72.00       295.99
  161.62        2952.50           2179          81.00       335.23
  161.65        2952.75           2183          74.00       304.71
  161.68        2953.00           2186          82.00       339.59
  161.71        2953.25           2190          72.00       295.99
  161.74        2953.50           2193          73.00       300.35
  161.77        2953.75           2197          74.00       304.71
  161.80        2954.00           2200          81.00       335.23
  161.83        2954.25           2204          86.00       357.02
  161.86        2954.50           2208          80.00       330.87
  161.89        2954.75           2211          82.00       339.59
  161.92        2955.00           2215          81.00       335.23
  161.96        2955.25           2218          89.00       370.10
  161.99        2955.50           2222          86.00       357.02
  162.02        2955.75           2225          90.00       374.46
  162.05        2956.00           2229          86.00       357.02
  162.08        2956.25           2232          90.00       374.46
  162.11        2956.50           2236          90.00       374.46
  162.14        2956.75           2239          89.00       370.10
  162.17        2957.00           2243         100.00       418.05
  162.20        2957.25           2246         121.00       509.60
  162.23        2957.50           2250         104.00       435.49
  162.26        2957.75           2254          97.00       404.98
  162.29        2958.00           2257         100.00       418.05
  162.32        2958.25           2261          96.00       400.62
  162.35        2958.50           2264         100.00       418.05
  162.38        2958.75           2268         129.00       544.47
  162.41        2959.00           2271         151.00       640.38
  162.44        2959.25           2275         129.00       544.47
  162.48        2959.50           2278         111.00       466.01
  162.51        2959.75           2282         131.00       553.19
  162.54        2960.00           2285         157.00       666.54
  162.57        2960.25           2289         143.00       605.51
  162.60        2960.50           2293         140.00       592.43
  162.63        2960.75           2296         154.00       653.46
  162.66        2961.00           2300         206.00       880.15
  162.69        2961.25           2303         476.00      2057.25
  162.72        2961.50           2307        1682.00      7316.12
  162.75        2961.75           2310        2985.00     13000.08
  162.78        2962.00           2314        5189.00     22619.40
  162.81        2962.25           2317        6972.00     30405.87
  162.84        2962.50           2321        9100.00     39704.40
  162.87        2962.75           2324       11146.00     48650.16
  162.90        2963.00           2328       13790.00     60218.64
  162.93        2963.25           2331       15662.00     68414.85
  162.96        2963.50           2335       18401.00     80415.30
  162.99        2963.75           2339       21068.00     92109.72
  163.03        2964.00           2342       23152.00    101254.30
  163.06        2964.25           2346       25786.00    112820.40
  163.09        2964.50           2349       28090.00    122944.90
  163.12        2964.75           2353       30999.00    135737.90
  163.15        2965.00           2356       33018.00    144623.50
  163.18        2965.25           2360       35633.00    156140.10
  163.21        2965.50           2363       37211.00    163094.10
  163.24        2965.75           2367       40379.00    177064.90
  163.27        2966.00           2370       42022.00    184315.80
  163.30        2966.25           2374       44274.00    194260.10
  163.33        2966.50           2378       46697.00    204967.00
  163.36        2966.75           2381       47115.00    206814.90
  163.39        2967.00           2385       47117.00    206823.80
  163.42        2967.25           2388       47274.00    207517.90
  163.45        2967.50           2392       46928.00    205988.20
  163.48        2967.75           2395       46620.00    204626.70
  163.51        2968.00           2399       45722.00    200657.70
  163.55        2968.25           2402       44472.00    195134.70
  163.58        2968.50           2406       42052.00    184448.20
  163.61        2968.75           2409       39698.00    174060.60
  163.64        2969.00           2413       37207.00    163076.50
  163.67        2969.25           2417       34075.00    149277.50
  163.70        2969.50           2420       32095.00    140560.80
  163.73        2969.75           2424       29612.00    129636.90
  163.76        2970.00           2427       27475.00    120241.70
  163.79        2970.25           2431       24231.00    105991.10
  163.82        2970.50           2434       22165.00     96922.62
  163.85        2970.75           2438       19440.00     84970.06
  163.88        2971.00           2441       17370.00     75897.00
  163.91        2971.25           2445       14891.00     65038.61
  163.94        2971.50           2449       12057.00     52635.10
  163.97        2971.75           2452       10187.00     44456.42
  164.00        2972.00           2456        7105.00     30986.86
  164.03        2972.25           2459        4981.00     21711.32
  164.07        2972.50           2463        2481.00     10801.26
  164.10        2972.75           2466        1110.00      4821.63
  164.13        2973.00           2470         356.00      1534.08
  164.16        2973.25           2473         207.00       884.51
  164.19        2973.50           2477         181.00       771.16
  164.22        2973.75           2481         165.00       701.41
  164.25        2974.00           2484         170.00       723.21
  164.28        2974.25           2488         166.00       705.77
  164.31        2974.50           2491         161.00       683.97
  164.34        2974.75           2495         176.00       749.37
  164.37        2975.00           2498         157.00       666.54
  164.40        2975.25           2502         143.00       605.51
  164.43        2975.50           2505         155.00       657.82
  164.46        2975.75           2509         147.00       622.94
  164.49        2976.00           2512         153.00       649.10
  164.52        2976.25           2516         150.00       636.02
  164.55        2976.50           2520         170.00       723.21
  164.59        2976.75           2523         165.00       701.41
  164.62        2977.00           2527         149.00       631.66
  164.65        2977.25           2530         156.00       662.18
  164.68        2977.50           2534         128.00       540.11
  164.71        2977.75           2537         135.00       570.63
  164.74        2978.00           2541         121.00       509.60
  164.77        2978.25           2544         134.00       566.27
  164.80        2978.50           2548         145.00       614.22
  164.83        2978.75           2552         125.00       527.04
  164.86        2979.00           2555         114.00       479.08
  164.89        2979.25           2559         140.00       592.43
  164.92        2979.50           2562         136.00       574.99
  164.95        2979.75           2566         113.00       474.72
  164.98        2980.00           2569         121.00       509.60
  165.01        2980.25           2573         127.00       535.76
  165.04        2980.50           2577         154.00       653.46
  165.07        2980.75           2580         140.00       592.43
  165.11        2981.00           2584         135.00       570.63
  165.14        2981.25           2587         131.00       553.19
  165.17        2981.50           2591         144.00       609.86
  165.20        2981.75           2594         122.00       513.96
  165.23        2982.00           2598         146.00       618.58
  165.26        2982.25           2601         131.00       553.19
  165.29        2982.50           2605         114.00       479.08
  165.32        2982.75           2609         131.00       553.19
  165.35        2983.00           2612          98.00       409.33
  165.38        2983.25           2616         118.00       496.52
  165.41        2983.50           2619         147.00       622.94
  165.44        2983.75           2623         113.00       474.72
  165.47        2984.00           2626         109.00       457.29
HS scan finished at 02:45:42
end
************************************************************
  HS Scan of (1) Internal mercury lamp
************************************************************
Integration time is 0.2294 seconds per sample
dh150818Reading 51.44 .94 3.78pr1000
************************************************************
Dead Time -------------------------  3.4E-08 
Number of Cycles Used -------------  4 
Starting Wavelength (Angstroms) ---  2950 
Final Wavelength (Angstoms) -------  2984 
Wavelength Increment (Angstroms) --  .25 
Filter Wheel #1 Position ---------- (1) Ground quartz diffuser (ND=2.32)
Filter Wheel #2 Position ---------- (1) Neutral Density 0.494



************************************************************
HS scan start time = 20:07:30
Dark Count =  5.5 


Time (GMT)  Wavelength (Ang)  Step Number  Raw Counts  Counts/Second

 1208.40        2950.00           2144          54.00       211.42
 1208.59        2950.25           2147          51.00       198.34
 1208.62        2950.50           2151          51.00       198.34
 1208.65        2950.75           2155          54.00       211.42
 1208.68        2951.00           2158          56.00       220.14
 1208.71        2951.25           2162          58.00       228.86
 1208.74        2951.50           2165          54.00       211.42
 1208.77        2951.75           2169          52.00       202.70
 1208.80        2952.00           2172          50.00       193.99
 1208.84        2952.25           2176          57.00       224.50
 1208.87        2952.50           2179          60.00       237.58
 1208.90        2952.75           2183          54.00       211.42
 1208.93        2953.00           2186          53.00       207.06
 1208.96        2953.25           2190          56.00       220.14
 1208.99        2953.50           2193          58.00       228.86
 1209.02        2953.75           2197          57.00       224.50
 1209.05        2954.00           2200          56.00       220.14
 1209.08        2954.25           2204          53.00       207.06
 1209.11        2954.50           2208          53.00       207.06
 1209.14        2954.75           2211          58.00       228.86
 1209.17        2955.00           2215          53.00       207.06
 1209.20        2955.25           2218          57.00       224.50
 1209.23        2955.50           2222          62.00       246.30
 1209.26        2955.75           2225          61.00       241.94
 1209.29        2956.00           2229          64.00       255.02
 1209.32        2956.25           2232          62.00       246.30
 1209.36        2956.50           2236          62.00       246.30
 1209.39        2956.75           2239          57.00       224.50
 1209.42        2957.00           2243          63.00       250.66
 1209.45        2957.25           2246          60.00       237.58
 1209.48        2957.50           2250          71.00       285.53
 1209.51        2957.75           2254          67.00       268.09
 1209.54        2958.00           2257          62.00       246.30
 1209.57        2958.25           2261          55.00       215.78
 1209.60        2958.50           2264          58.00       228.86
 1209.63        2958.75           2268          65.00       259.37
 1209.66        2959.00           2271          69.00       276.81
 1209.69        2959.25           2275          73.00       294.25
 1209.72        2959.50           2278          71.00       285.53
 1209.75        2959.75           2282          69.00       276.81
 1209.78        2960.00           2285          76.00       307.33
 1209.81        2960.25           2289          74.00       298.61
 1209.84        2960.50           2293          76.00       307.33
 1209.88        2960.75           2296          74.00       298.61
 1209.91        2961.00           2300          95.00       390.15
 1209.94        2961.25           2303         190.00       804.29
 1209.97        2961.50           2307         709.00      3067.02
 1210.00        2961.75           2310        1380.00      5992.94
 1210.03        2962.00           2314        2543.00     11065.63
 1210.06        2962.25           2317        3309.00     14407.67
 1210.09        2962.50           2321        4265.00     18579.74
 1210.12        2962.75           2324        5109.00     22264.01
 1210.15        2963.00           2328        6431.00     28036.74
 1210.18        2963.25           2331        7489.00     32658.30
 1210.21        2963.50           2335        8594.00     37486.72
 1210.24        2963.75           2339        9838.00     42924.42
 1210.27        2964.00           2342       10735.00     46846.58
 1210.30        2964.25           2346       11908.00     51977.14
 1210.33        2964.50           2349       12621.00     55096.58
 1210.36        2964.75           2353       13788.00     60203.75
 1210.40        2965.00           2356       14557.00     63570.13
 1210.43        2965.25           2360       15661.00     68404.33
 1210.46        2965.50           2363       16338.00     71369.57
 1210.49        2965.75           2367       17700.00     77336.91
 1210.52        2966.00           2370       17891.00     78173.95
 1210.55        2966.25           2374       18633.00     81426.08
 1210.58        2966.50           2378       19154.00     83710.01
 1210.61        2966.75           2381       19297.00     84336.96
 1210.64        2967.00           2385       19243.00     84100.21
 1210.67        2967.25           2388       19301.00     84354.49
 1210.70        2967.50           2392       19034.00     83183.94
 1210.73        2967.75           2395       18820.00     82245.80
 1210.76        2968.00           2399       18656.00     81526.90
 1210.79        2968.25           2402       17861.00     78042.47
 1210.82        2968.50           2406       17055.00     74510.68
 1210.85        2968.75           2409       16188.00     70712.52
 1210.88        2969.00           2413       14871.00     64944.91
 1210.91        2969.25           2417       13908.00     60729.02
 1210.95        2969.50           2420       13089.00     57144.49
 1210.98        2969.75           2424       12016.00     52449.60
 1211.01        2970.00           2427       11416.00     49824.97
 1211.04        2970.25           2431       10470.00     45687.74
 1211.07        2970.50           2434        9340.00     40747.35
 1211.10        2970.75           2438        8314.00     36263.08
 1211.13        2971.00           2441        7299.00     31828.24
 1211.16        2971.25           2445        6417.00     27975.60
 1211.19        2971.50           2449        5340.00     23272.55
 1211.22        2971.75           2452        4511.00     19653.49
 1211.25        2972.00           2456        3353.00     14599.66
 1211.28        2972.25           2459        2432.00     10581.40
 1211.31        2972.50           2463        1264.00      5487.07
 1211.34        2972.75           2466         606.00      2617.93
 1211.37        2973.00           2470         212.00       900.20
 1211.40        2973.25           2473         137.00       573.25
 1211.43        2973.50           2477          79.00       320.40
 1211.47        2973.75           2481          81.00       329.12
 1211.50        2974.00           2484          74.00       298.61
 1211.53        2974.25           2488          72.00       289.89
 1211.56        2974.50           2491          82.00       333.48
 1211.59        2974.75           2495          71.00       285.53
 1211.62        2975.00           2498          73.00       294.25
 1211.65        2975.25           2502          73.00       294.25
 1211.68        2975.50           2505          73.00       294.25
 1211.71        2975.75           2509          64.00       255.02
 1211.74        2976.00           2512          71.00       285.53
 1211.77        2976.25           2516          66.00       263.73
 1211.80        2976.50           2520          71.00       285.53
 1211.83        2976.75           2523          65.00       259.37
 1211.86        2977.00           2527          61.00       241.94
 1211.89        2977.25           2530          62.00       246.30
 1211.92        2977.50           2534          61.00       241.94
 1211.96        2977.75           2537          67.00       268.09
 1211.99        2978.00           2541          58.00       228.86
 1212.02        2978.25           2544          61.00       241.94
 1212.05        2978.50           2548          60.00       237.58
 1212.08        2978.75           2552          61.00       241.94
 1212.11        2979.00           2555          58.00       228.86
 1212.14        2979.25           2559          62.00       246.30
 1212.17        2979.50           2562          55.00       215.78
 1212.20        2979.75           2566          62.00       246.30
 1212.23        2980.00           2569          66.00       263.73
 1212.26        2980.25           2573          63.00       250.66
 1212.29        2980.50           2577          63.00       250.66
 1212.32        2980.75           2580          62.00       246.30
 1212.35        2981.00           2584          63.00       250.66
 1212.38        2981.25           2587          54.00       211.42
 1212.41        2981.50           2591          55.00       215.78
 1212.44        2981.75           2594          59.00       233.22
 1212.47        2982.00           2598          49.00       189.63
 1212.51        2982.25           2601          60.00       237.58
 1212.54        2982.50           2605          55.00       215.78
 1212.57        2982.75           2609          58.00       228.86
 1212.60        2983.00           2612          57.00       224.50
 1212.63        2983.25           2616          51.00       198.34
 1212.66        2983.50           2619          54.00       211.42
 1212.69        2983.75           2623          58.00       228.86
 1212.72        2984.00           2626          58.00       228.86
HS scan finished at 20:12:57
end
