************************************************************
  HS Scan of (1) Internal mercury lamp
************************************************************
Integration time is 0.2294 seconds per sample
dh080818Reading 51.44 .94 3.62pr1000
************************************************************
Dead Time -------------------------  3.4E-08 
Number of Cycles Used -------------  4 
Starting Wavelength (Angstroms) ---  2950 
Final Wavelength (Angstoms) -------  2984 
Wavelength Increment (Angstroms) --  .25 
Filter Wheel #1 Position ---------- (1) Ground quartz diffuser (ND=2.32)
Filter Wheel #2 Position ---------- (1) Neutral Density 0.494



************************************************************
HS scan start time = 02:41:24
Dark Count =  3.6 


Time (GMT)  Wavelength (Ang)  Step Number  Raw Counts  Counts/Second

  162.30        2950.00           2144          61.00       250.22
  162.49        2950.25           2147          61.00       250.22
  162.52        2950.50           2151          59.00       241.50
  162.55        2950.75           2155          56.00       228.42
  162.58        2951.00           2158          60.00       245.86
  162.61        2951.25           2162          67.00       276.38
  162.64        2951.50           2165          60.00       245.86
  162.67        2951.75           2169          63.00       258.94
  162.71        2952.00           2172          62.00       254.58
  162.74        2952.25           2176          60.00       245.86
  162.77        2952.50           2179          53.00       215.35
  162.80        2952.75           2183          63.00       258.94
  162.83        2953.00           2186          69.00       285.09
  162.86        2953.25           2190          61.00       250.22
  162.89        2953.50           2193          62.00       254.58
  162.92        2953.75           2197          65.00       267.66
  162.95        2954.00           2200          62.00       254.58
  162.98        2954.25           2204          65.00       267.66
  163.01        2954.50           2208          61.00       250.22
  163.04        2954.75           2211          72.00       298.17
  163.07        2955.00           2215          67.00       276.38
  163.10        2955.25           2218          64.00       263.30
  163.13        2955.50           2222          66.00       272.02
  163.16        2955.75           2225          63.00       258.94
  163.19        2956.00           2229          66.00       272.02
  163.22        2956.25           2232          72.00       298.17
  163.26        2956.50           2236          70.00       289.45
  163.29        2956.75           2239          71.00       293.81
  163.32        2957.00           2243          70.00       289.45
  163.35        2957.25           2246          75.00       311.25
  163.38        2957.50           2250          70.00       289.45
  163.41        2957.75           2254          73.00       302.53
  163.44        2958.00           2257          72.00       298.17
  163.47        2958.25           2261          81.00       337.41
  163.50        2958.50           2264          85.00       354.84
  163.53        2958.75           2268          76.00       315.61
  163.56        2959.00           2271          73.00       302.53
  163.59        2959.25           2275          70.00       289.45
  163.62        2959.50           2278          74.00       306.89
  163.65        2959.75           2282          75.00       311.25
  163.68        2960.00           2285          91.00       381.00
  163.71        2960.25           2289          82.00       341.77
  163.74        2960.50           2293          85.00       354.84
  163.78        2960.75           2296         105.00       442.03
  163.81        2961.00           2300         103.00       433.31
  163.84        2961.25           2303         165.00       703.59
  163.87        2961.50           2307         635.00      2752.66
  163.90        2961.75           2310        1343.00      5839.87
  163.93        2962.00           2314        2561.00     11152.44
  163.96        2962.25           2317        3371.00     14686.50
  163.99        2962.50           2321        4884.00     21290.03
  164.02        2962.75           2324        5894.00     25699.87
  164.05        2963.00           2328        7492.00     32679.71
  164.08        2963.25           2331        8516.00     37154.15
  164.11        2963.50           2335       10003.00     43654.12
  164.14        2963.75           2339       11571.00     50511.26
  164.17        2964.00           2342       12732.00     55590.59
  164.20        2964.25           2346       13968.00     60999.97
  164.23        2964.50           2349       14893.00     65049.55
  164.26        2964.75           2353       15871.00     69332.40
  164.30        2965.00           2356       17935.00     78375.10
  164.33        2965.25           2360       19244.00     84112.92
  164.36        2965.50           2363       20293.00     88712.69
  164.39        2965.75           2367       22096.00     96622.05
  164.42        2966.00           2370       22946.00    100352.30
  164.45        2966.25           2374       24010.00    105023.00
  164.48        2966.50           2378       24329.00    106423.60
  164.51        2966.75           2381       24864.00    108772.90
  164.54        2967.00           2385       24538.00    107341.40
  164.57        2967.25           2388       24450.00    106954.90
  164.60        2967.50           2392       24072.00    105295.20
  164.63        2967.75           2395       23745.00    103859.60
  164.66        2968.00           2399       23067.00    100883.40
  164.69        2968.25           2402       21900.00     95762.02
  164.72        2968.50           2406       20814.00     90997.77
  164.75        2968.75           2409       19432.00     84937.18
  164.78        2969.00           2413       18002.00     78668.73
  164.82        2969.25           2417       16667.00     72819.13
  164.85        2969.50           2420       15710.00     68627.25
  164.88        2969.75           2424       14573.00     63648.49
  164.91        2970.00           2427       13376.00     58408.82
  164.94        2970.25           2431       11928.00     52072.94
  164.97        2970.50           2434       10989.00     47965.70
  165.00        2970.75           2438        9375.00     40908.65
  165.03        2971.00           2441        8254.00     36009.19
  165.06        2971.25           2445        6984.00     30460.48
  165.09        2971.50           2449        5530.00     24110.43
  165.12        2971.75           2452        4644.00     20242.35
  165.15        2972.00           2456        3139.00     13674.19
  165.18        2972.25           2459        2249.00      9791.40
  165.21        2972.50           2463        1205.00      5238.07
  165.24        2972.75           2466         604.00      2617.50
  165.27        2973.00           2470         213.00       912.84
  165.30        2973.25           2473         143.00       607.68
  165.34        2973.50           2477         100.00       420.23
  165.37        2973.75           2481          96.00       402.80
  165.40        2974.00           2484          83.00       346.12
  165.43        2974.25           2488          89.00       372.28
  165.46        2974.50           2491          96.00       402.80
  165.49        2974.75           2495          85.00       354.84
  165.52        2975.00           2498          82.00       341.77
  165.55        2975.25           2502          90.00       376.64
  165.58        2975.50           2505          78.00       324.33
  165.61        2975.75           2509          80.00       333.05
  165.64        2976.00           2512          86.00       359.20
  165.67        2976.25           2516          78.00       324.33
  165.70        2976.50           2520          73.00       302.53
  165.73        2976.75           2523          80.00       333.05
  165.76        2977.00           2527          79.00       328.69
  165.79        2977.25           2530          67.00       276.38
  165.82        2977.50           2534          72.00       298.17
  165.86        2977.75           2537          73.00       302.53
  165.89        2978.00           2541          68.00       280.74
  165.92        2978.25           2544          72.00       298.17
  165.95        2978.50           2548          68.00       280.74
  165.98        2978.75           2552          69.00       285.09
  166.01        2979.00           2555          69.00       285.09
  166.04        2979.25           2559          60.00       245.86
  166.07        2979.50           2562          65.00       267.66
  166.10        2979.75           2566          61.00       250.22
  166.13        2980.00           2569          61.00       250.22
  166.16        2980.25           2573          70.00       289.45
  166.19        2980.50           2577          75.00       311.25
  166.22        2980.75           2580          64.00       263.30
  166.25        2981.00           2584          66.00       272.02
  166.28        2981.25           2587          61.00       250.22
  166.31        2981.50           2591          66.00       272.02
  166.34        2981.75           2594          69.00       285.09
  166.38        2982.00           2598          64.00       263.30
  166.41        2982.25           2601          64.00       263.30
  166.44        2982.50           2605          71.00       293.81
  166.47        2982.75           2609          58.00       237.14
  166.50        2983.00           2612          58.00       237.14
  166.53        2983.25           2616          69.00       285.09
  166.56        2983.50           2619          70.00       289.45
  166.59        2983.75           2623          62.00       254.58
  166.62        2984.00           2626          64.00       263.30
HS scan finished at 02:46:51
end
************************************************************
  HS Scan of (1) Internal mercury lamp
************************************************************
Integration time is 0.2294 seconds per sample
dh080818Reading 51.44 .94 3.64pr1000
************************************************************
Dead Time -------------------------  3.4E-08 
Number of Cycles Used -------------  4 
Starting Wavelength (Angstroms) ---  2950 
Final Wavelength (Angstoms) -------  2984 
Wavelength Increment (Angstroms) --  .25 
Filter Wheel #1 Position ---------- (1) Ground quartz diffuser (ND=2.32)
Filter Wheel #2 Position ---------- (1) Neutral Density 0.494



************************************************************
HS scan start time = 20:37:28
Dark Count =  3.2 


Time (GMT)  Wavelength (Ang)  Step Number  Raw Counts  Counts/Second

 1238.36        2950.00           2144          43.00       173.50
 1238.55        2950.25           2147          43.00       173.50
 1238.58        2950.50           2151          51.00       208.37
 1238.61        2950.75           2155          49.00       199.65
 1238.64        2951.00           2158          47.00       190.93
 1238.68        2951.25           2162          51.00       208.37
 1238.71        2951.50           2165          51.00       208.37
 1238.74        2951.75           2169          50.00       204.01
 1238.77        2952.00           2172          50.00       204.01
 1238.80        2952.25           2176          42.00       169.14
 1238.83        2952.50           2179          47.00       190.93
 1238.86        2952.75           2183          45.00       182.22
 1238.89        2953.00           2186          52.00       212.73
 1238.92        2953.25           2190          44.00       177.86
 1238.95        2953.50           2193          53.00       217.09
 1238.98        2953.75           2197          54.00       221.45
 1239.01        2954.00           2200          51.00       208.37
 1239.04        2954.25           2204          55.00       225.81
 1239.07        2954.50           2208          53.00       217.09
 1239.10        2954.75           2211          61.00       251.96
 1239.13        2955.00           2215          51.00       208.37
 1239.16        2955.25           2218          61.00       251.96
 1239.19        2955.50           2222          56.00       230.17
 1239.23        2955.75           2225          53.00       217.09
 1239.26        2956.00           2229          56.00       230.17
 1239.29        2956.25           2232          56.00       230.17
 1239.32        2956.50           2236          55.00       225.81
 1239.35        2956.75           2239          57.00       234.53
 1239.38        2957.00           2243          61.00       251.96
 1239.41        2957.25           2246          52.00       212.73
 1239.44        2957.50           2250          63.00       260.68
 1239.47        2957.75           2254          64.00       265.04
 1239.50        2958.00           2257          60.00       247.60
 1239.53        2958.25           2261          73.00       304.28
 1239.56        2958.50           2264          69.00       286.84
 1239.59        2958.75           2268          70.00       291.20
 1239.62        2959.00           2271          65.00       269.40
 1239.65        2959.25           2275          67.00       278.12
 1239.68        2959.50           2278          65.00       269.40
 1239.72        2959.75           2282          69.00       286.84
 1239.75        2960.00           2285          67.00       278.12
 1239.78        2960.25           2289          74.00       308.63
 1239.81        2960.50           2293          75.00       312.99
 1239.84        2960.75           2296          71.00       295.56
 1239.87        2961.00           2300          99.00       417.62
 1239.90        2961.25           2303         221.00       949.46
 1239.93        2961.50           2307         801.00      3478.18
 1239.96        2961.75           2310        1459.00      6347.49
 1239.99        2962.00           2314        2452.00     10678.68
 1240.02        2962.25           2317        3213.00     13998.82
 1240.05        2962.50           2321        4461.00     19445.28
 1240.08        2962.75           2324        5202.00     22680.08
 1240.11        2963.00           2328        6412.00     27963.80
 1240.14        2963.25           2331        7457.00     32528.55
 1240.17        2963.50           2335        8765.00     38244.12
 1240.20        2963.75           2339        9913.00     43262.37
 1240.23        2964.00           2342       10672.00     46581.13
 1240.27        2964.25           2346       11797.00     51501.62
 1240.30        2964.50           2349       12615.00     55080.39
 1240.33        2964.75           2353       14419.00     62976.03
 1240.36        2965.00           2356       15384.00     67201.33
 1240.39        2965.25           2360       16817.00     73478.03
 1240.42        2965.50           2363       18181.00     79454.99
 1240.45        2965.75           2367       19351.00     84583.80
 1240.48        2966.00           2370       20323.00     88846.02
 1240.51        2966.25           2374       21207.00     92723.44
 1240.54        2966.50           2378       22052.00     96430.72
 1240.57        2966.75           2381       21920.00     95851.54
 1240.60        2967.00           2385       22307.00     97549.69
 1240.63        2967.25           2388       22255.00     97321.50
 1240.66        2967.50           2392       22119.00     96724.74
 1240.69        2967.75           2395       21814.00     95386.46
 1240.72        2968.00           2399       20861.00     91205.66
 1240.75        2968.25           2402       20414.00     89245.10
 1240.79        2968.50           2406       19371.00     84671.49
 1240.82        2968.75           2409       18585.00     81225.77
 1240.85        2969.00           2413       17070.00     74586.47
 1240.88        2969.25           2417       15398.00     67262.63
 1240.91        2969.50           2420       15223.00     66496.30
 1240.94        2969.75           2424       13831.00     60402.04
 1240.97        2970.00           2427       12754.00     55688.60
 1241.00        2970.25           2431       11751.00     51300.39
 1241.03        2970.50           2434       10640.00     46441.19
 1241.06        2970.75           2438        9187.00     40088.61
 1241.09        2971.00           2441        8002.00     34909.77
 1241.12        2971.25           2445        6600.00     28784.92
 1241.15        2971.50           2449        5301.00     23112.32
 1241.18        2971.75           2452        4383.00     19104.82
 1241.21        2972.00           2456        3354.00     14614.06
 1241.24        2972.25           2459        2331.00     10150.85
 1241.27        2972.50           2463        1103.00      4795.03
 1241.31        2972.75           2466         554.00      2401.24
 1241.34        2973.00           2470         173.00       740.21
 1241.37        2973.25           2473         107.00       452.49
 1241.40        2973.50           2477         105.00       443.77
 1241.43        2973.75           2481          88.00       369.66
 1241.46        2974.00           2484          83.00       347.87
 1241.49        2974.25           2488          83.00       347.87
 1241.52        2974.50           2491          83.00       347.87
 1241.55        2974.75           2495          74.00       308.63
 1241.58        2975.00           2498          80.00       334.79
 1241.61        2975.25           2502          76.00       317.35
 1241.64        2975.50           2505          77.00       321.71
 1241.67        2975.75           2509          73.00       304.28
 1241.70        2976.00           2512          65.00       269.40
 1241.73        2976.25           2516          73.00       304.28
 1241.76        2976.50           2520          61.00       251.96
 1241.79        2976.75           2523          64.00       265.04
 1241.83        2977.00           2527          74.00       308.63
 1241.86        2977.25           2530          66.00       273.76
 1241.89        2977.50           2534          75.00       312.99
 1241.92        2977.75           2537          71.00       295.56
 1241.95        2978.00           2541          69.00       286.84
 1241.98        2978.25           2544          68.00       282.48
 1242.01        2978.50           2548          62.00       256.32
 1242.04        2978.75           2552          59.00       243.25
 1242.07        2979.00           2555          66.00       273.76
 1242.10        2979.25           2559          66.00       273.76
 1242.13        2979.50           2562          66.00       273.76
 1242.16        2979.75           2566          65.00       269.40
 1242.19        2980.00           2569          62.00       256.32
 1242.22        2980.25           2573          65.00       269.40
 1242.25        2980.50           2577          60.00       247.60
 1242.28        2980.75           2580          67.00       278.12
 1242.31        2981.00           2584          64.00       265.04
 1242.35        2981.25           2587          58.00       238.89
 1242.38        2981.50           2591          58.00       238.89
 1242.41        2981.75           2594          65.00       269.40
 1242.44        2982.00           2598          56.00       230.17
 1242.47        2982.25           2601          62.00       256.32
 1242.50        2982.50           2605          58.00       238.89
 1242.53        2982.75           2609          64.00       265.04
 1242.56        2983.00           2612          61.00       251.96
 1242.59        2983.25           2616          57.00       234.53
 1242.62        2983.50           2619          58.00       238.89
 1242.65        2983.75           2623          55.00       225.81
 1242.68        2984.00           2626          59.00       243.25
HS scan finished at 20:42:54
end
