************************************************************
  HS Scan of (1) Internal mercury lamp
************************************************************
Integration time is 0.2294 seconds per sample
dh140817Reading 51.44 .94 3.29pr1000
************************************************************
Dead Time -------------------------  3.4E-08 
Number of Cycles Used -------------  4 
Starting Wavelength (Angstroms) ---  2950 
Final Wavelength (Angstoms) -------  2984 
Wavelength Increment (Angstroms) --  .25 
Filter Wheel #1 Position ---------- (1) Ground quartz diffuser (ND=2.32)
Filter Wheel #2 Position ---------- (1) Neutral Density 0.494



************************************************************
HS scan start time = 01:21:58
Dark Count =  1.6 


Time (GMT)  Wavelength (Ang)  Step Number  Raw Counts  Counts/Second

   82.86        2950.00           2144         169.00       729.75
   83.05        2950.25           2147         188.00       812.58
   83.08        2950.50           2151         168.00       725.39
   83.12        2950.75           2155         176.00       760.26
   83.15        2951.00           2158         181.00       782.06
   83.18        2951.25           2162         185.00       799.50
   83.21        2951.50           2165         176.00       760.26
   83.24        2951.75           2169         175.00       755.90
   83.27        2952.00           2172         187.00       808.22
   83.30        2952.25           2176         188.00       812.58
   83.33        2952.50           2179         178.00       768.98
   83.36        2952.75           2183         178.00       768.98
   83.39        2953.00           2186         195.00       843.09
   83.42        2953.25           2190         189.00       816.94
   83.45        2953.50           2193         197.00       851.81
   83.48        2953.75           2197         183.00       790.78
   83.51        2954.00           2200         188.00       812.58
   83.54        2954.25           2204         192.00       830.01
   83.57        2954.50           2208         204.00       882.33
   83.60        2954.75           2211         206.00       891.05
   83.64        2955.00           2215         195.00       843.09
   83.67        2955.25           2218         199.00       860.53
   83.70        2955.50           2222         224.00       969.52
   83.73        2955.75           2225         209.00       904.13
   83.76        2956.00           2229         207.00       895.41
   83.79        2956.25           2232         194.00       838.73
   83.82        2956.50           2236         199.00       860.53
   83.85        2956.75           2239         207.00       895.41
   83.88        2957.00           2243         217.00       939.00
   83.91        2957.25           2246         217.00       939.00
   83.94        2957.50           2250         206.00       891.05
   83.97        2957.75           2254         231.00      1000.03
   84.00        2958.00           2257         216.00       934.64
   84.03        2958.25           2261         234.00      1013.11
   84.06        2958.50           2264         233.00      1008.75
   84.09        2958.75           2268         241.00      1043.63
   84.12        2959.00           2271         244.00      1056.71
   84.15        2959.25           2275         238.00      1030.55
   84.19        2959.50           2278         244.00      1056.71
   84.22        2959.75           2282         247.00      1069.79
   84.25        2960.00           2285         259.00      1122.10
   84.28        2960.25           2289         262.00      1135.18
   84.31        2960.50           2293         270.00      1170.06
   84.34        2960.75           2296         282.00      1222.37
   84.37        2961.00           2300         341.00      1479.59
   84.40        2961.25           2303         633.00      2752.66
   84.43        2961.50           2307        2439.00     10628.95
   84.46        2961.75           2310        4758.00     20748.72
   84.49        2962.00           2314        8592.00     37495.03
   84.52        2962.25           2317       11499.00     50205.07
   84.55        2962.50           2321       15034.00     65675.70
   84.58        2962.75           2324       18057.00     78918.54
   84.61        2963.00           2328       22674.00     99167.28
   84.64        2963.25           2331       26069.00    114074.60
   84.67        2963.50           2335       30647.00    134200.30
   84.71        2963.75           2339       35565.00    155851.60
   84.74        2964.00           2342       38617.00    169303.90
   84.77        2964.25           2346       43053.00    188878.60
   84.80        2964.50           2349       46257.00    203033.20
   84.83        2964.75           2353       50459.00    221617.40
   84.86        2965.00           2356       53579.00    235431.50
   84.89        2965.25           2360       57724.00    253804.10
   84.92        2965.50           2363       61103.00    268798.50
   84.95        2965.75           2367       65251.00    287226.40
   84.98        2966.00           2370       68137.00    300061.40
   85.01        2966.25           2374       71023.00    312907.70
   85.04        2966.50           2378       72887.00    321210.80
   85.07        2966.75           2381       73156.00    322409.50
   85.10        2967.00           2385       73295.00    323028.90
   85.13        2967.25           2388       73197.00    322592.20
   85.16        2967.50           2392       73294.00    323024.40
   85.19        2967.75           2395       72639.00    320105.80
   85.23        2968.00           2399       70113.00    308855.90
   85.26        2968.25           2402       67708.00    298152.80
   85.29        2968.50           2406       63802.00    280786.40
   85.32        2968.75           2409       60423.00    265779.80
   85.35        2969.00           2413       56248.00    247259.20
   85.38        2969.25           2417       52000.00    228438.70
   85.41        2969.50           2420       49214.00    216108.70
   85.44        2969.75           2424       45034.00    197628.60
   85.47        2970.00           2427       41875.00    183677.90
   85.50        2970.25           2431       37508.00    164414.30
   85.53        2970.50           2434       34225.00    149949.10
   85.56        2970.75           2438       29417.00    128790.30
   85.59        2971.00           2441       26090.00    114166.80
   85.62        2971.25           2445       21693.00     94862.58
   85.65        2971.50           2449       17542.00     76661.63
   85.68        2971.75           2452       14498.00     63328.90
   85.71        2972.00           2456       10298.00     44952.70
   85.75        2972.25           2459        7166.00     31264.26
   85.78        2972.50           2463        3587.00     15637.78
   85.81        2972.75           2466        1645.00      7165.65
   85.84        2973.00           2470         558.00      2425.66
   85.87        2973.25           2473         356.00      1544.98
   85.90        2973.50           2477         295.00      1279.04
   85.93        2973.75           2481         290.00      1257.25
   85.96        2974.00           2484         281.00      1218.01
   85.99        2974.25           2488         282.00      1222.37
   86.02        2974.50           2491         263.00      1139.54
   86.05        2974.75           2495         290.00      1257.25
   86.08        2975.00           2498         248.00      1074.15
   86.11        2975.25           2502         242.00      1047.99
   86.14        2975.50           2505         253.00      1095.94
   86.17        2975.75           2509         260.00      1126.46
   86.20        2976.00           2512         224.00       969.52
   86.23        2976.25           2516         228.00       986.96
   86.27        2976.50           2520         234.00      1013.11
   86.30        2976.75           2523         234.00      1013.11
   86.33        2977.00           2527         222.00       960.80
   86.36        2977.25           2530         216.00       934.64
   86.39        2977.50           2534         235.00      1017.47
   86.42        2977.75           2537         222.00       960.80
   86.45        2978.00           2541         199.00       860.53
   86.48        2978.25           2544         199.00       860.53
   86.51        2978.50           2548         211.00       912.84
   86.54        2978.75           2552         196.00       847.45
   86.57        2979.00           2555         197.00       851.81
   86.60        2979.25           2559         203.00       877.97
   86.63        2979.50           2562         193.00       834.37
   86.66        2979.75           2566         190.00       821.30
   86.69        2980.00           2569         200.00       864.89
   86.72        2980.25           2573         194.00       838.73
   86.75        2980.50           2577         188.00       812.58
   86.78        2980.75           2580         203.00       877.97
   86.82        2981.00           2584         179.00       773.34
   86.85        2981.25           2587         186.00       803.86
   86.88        2981.50           2591         179.00       773.34
   86.91        2981.75           2594         194.00       838.73
   86.94        2982.00           2598         192.00       830.01
   86.97        2982.25           2601         205.00       886.69
   87.00        2982.50           2605         170.00       734.11
   87.03        2982.75           2609         183.00       790.78
   87.06        2983.00           2612         170.00       734.11
   87.09        2983.25           2616         190.00       821.30
   87.12        2983.50           2619         187.00       808.22
   87.15        2983.75           2623         165.00       712.31
   87.18        2984.00           2626         169.00       729.75
HS scan finished at 01:27:24
end
************************************************************
  HS Scan of (1) Internal mercury lamp
************************************************************
Integration time is 0.2294 seconds per sample
dh140817Reading 51.44 .94 3.76pr1000
************************************************************
Dead Time -------------------------  3.4E-08 
Number of Cycles Used -------------  4 
Starting Wavelength (Angstroms) ---  2950 
Final Wavelength (Angstoms) -------  2984 
Wavelength Increment (Angstroms) --  .25 
Filter Wheel #1 Position ---------- (1) Ground quartz diffuser (ND=2.32)
Filter Wheel #2 Position ---------- (1) Neutral Density 0.494



************************************************************
HS scan start time = 20:37:21
Dark Count =  4.8 


Time (GMT)  Wavelength (Ang)  Step Number  Raw Counts  Counts/Second

 1238.25        2950.00           2144          81.00       332.17
 1238.44        2950.25           2147          78.00       319.10
 1238.47        2950.50           2151          78.00       319.10
 1238.50        2950.75           2155          82.00       336.53
 1238.53        2951.00           2158          77.00       314.74
 1238.56        2951.25           2162          76.00       310.38
 1238.59        2951.50           2165          95.00       393.20
 1238.62        2951.75           2169          77.00       314.74
 1238.65        2952.00           2172          91.00       375.77
 1238.69        2952.25           2176          86.00       353.97
 1238.72        2952.50           2179          77.00       314.74
 1238.75        2952.75           2183         110.00       458.59
 1238.78        2953.00           2186          86.00       353.97
 1238.81        2953.25           2190          82.00       336.53
 1238.84        2953.50           2193          89.00       367.05
 1238.87        2953.75           2197          87.00       358.33
 1238.90        2954.00           2200          91.00       375.77
 1238.93        2954.25           2204          86.00       353.97
 1238.96        2954.50           2208          91.00       375.77
 1238.99        2954.75           2211          91.00       375.77
 1239.02        2955.00           2215          92.00       380.13
 1239.05        2955.25           2218          95.00       393.20
 1239.08        2955.50           2222          91.00       375.77
 1239.11        2955.75           2225          90.00       371.41
 1239.14        2956.00           2229          83.00       340.89
 1239.17        2956.25           2232          88.00       362.69
 1239.21        2956.50           2236          93.00       384.49
 1239.24        2956.75           2239          99.00       410.64
 1239.27        2957.00           2243         112.00       467.31
 1239.30        2957.25           2246         100.00       415.00
 1239.33        2957.50           2250          93.00       384.49
 1239.36        2957.75           2254          99.00       410.64
 1239.39        2958.00           2257          98.00       406.28
 1239.42        2958.25           2261         112.00       467.31
 1239.45        2958.50           2264         123.00       515.27
 1239.48        2958.75           2268         107.00       445.52
 1239.51        2959.00           2271         109.00       454.24
 1239.54        2959.25           2275         125.00       523.98
 1239.57        2959.50           2278         133.00       558.86
 1239.60        2959.75           2282         151.00       637.33
 1239.63        2960.00           2285         137.00       576.30
 1239.66        2960.25           2289         123.00       515.27
 1239.69        2960.50           2293         139.00       585.02
 1239.73        2960.75           2296         123.00       515.27
 1239.76        2961.00           2300         178.00       755.03
 1239.79        2961.25           2303         397.00      1709.78
 1239.82        2961.50           2307        1343.00      5834.64
 1239.85        2961.75           2310        2545.00     11077.41
 1239.88        2962.00           2314        4346.00     18936.34
 1239.91        2962.25           2317        5693.00     24816.92
 1239.94        2962.50           2321        7562.00     32980.29
 1239.97        2962.75           2324        8823.00     38490.62
 1240.00        2963.00           2328       10656.00     46504.17
 1240.03        2963.25           2331       12200.00     53257.65
 1240.06        2963.50           2335       14296.00     62430.55
 1240.09        2963.75           2339       16041.00     70071.71
 1240.12        2964.00           2342       17603.00     76914.93
 1240.15        2964.25           2346       19539.00     85401.06
 1240.18        2964.50           2349       20812.00     90983.72
 1240.21        2964.75           2353       22719.00     99350.72
 1240.25        2965.00           2356       24337.00    106453.50
 1240.28        2965.25           2360       26341.00    115255.50
 1240.31        2965.50           2363       27336.00    119627.70
 1240.34        2965.75           2367       29116.00    127452.60
 1240.37        2966.00           2370       30759.00    134678.90
 1240.40        2966.25           2374       32136.00    140738.10
 1240.43        2966.50           2378       33179.00    145329.20
 1240.46        2966.75           2381       33550.00    146962.70
 1240.49        2967.00           2385       33442.00    146487.10
 1240.52        2967.25           2388       33545.00    146940.70
 1240.55        2967.50           2392       33536.00    146901.00
 1240.58        2967.75           2395       33291.00    145822.40
 1240.61        2968.00           2399       32422.00    141996.90
 1240.64        2968.25           2402       31412.00    137552.00
 1240.67        2968.50           2406       29462.00    128974.10
 1240.70        2968.75           2409       28150.00    123205.50
 1240.73        2969.00           2413       26192.00    114600.90
 1240.77        2969.25           2417       24171.00    105724.60
 1240.80        2969.50           2420       22770.00     99574.55
 1240.83        2969.75           2424       20462.00     89448.61
 1240.86        2970.00           2427       18872.00     82476.81
 1240.89        2970.25           2431       16819.00     73479.78
 1240.92        2970.50           2434       15200.00     66388.56
 1240.95        2970.75           2438       13276.00     57965.92
 1240.98        2971.00           2441       11889.00     51897.08
 1241.01        2971.25           2445        9934.00     43347.19
 1241.04        2971.50           2449        8077.00     35230.49
 1241.07        2971.75           2452        6777.00     29551.04
 1241.10        2972.00           2456        4790.00     20874.45
 1241.13        2972.25           2459        3403.00     14820.89
 1241.16        2972.50           2463        1695.00      7369.76
 1241.19        2972.75           2466         784.00      3397.08
 1241.22        2973.00           2470         260.00      1112.51
 1241.25        2973.25           2473         167.00       707.08
 1241.28        2973.50           2477         137.00       576.30
 1241.32        2973.75           2481         149.00       628.61
 1241.35        2974.00           2484         144.00       606.81
 1241.38        2974.25           2488         142.00       598.09
 1241.41        2974.50           2491         127.00       532.70
 1241.44        2974.75           2495         148.00       624.25
 1241.47        2975.00           2498         149.00       628.61
 1241.50        2975.25           2502         107.00       445.52
 1241.53        2975.50           2505         116.00       484.75
 1241.56        2975.75           2509         138.00       580.66
 1241.59        2976.00           2512         143.00       602.45
 1241.62        2976.25           2516         133.00       558.86
 1241.65        2976.50           2520         123.00       515.27
 1241.68        2976.75           2523          98.00       406.28
 1241.71        2977.00           2527          94.00       388.85
 1241.74        2977.25           2530          95.00       393.20
 1241.77        2977.50           2534         113.00       471.67
 1241.80        2977.75           2537          88.00       362.69
 1241.84        2978.00           2541         115.00       480.39
 1241.87        2978.25           2544          93.00       384.49
 1241.90        2978.50           2548          86.00       353.97
 1241.93        2978.75           2552          90.00       371.41
 1241.96        2979.00           2555          99.00       410.64
 1241.99        2979.25           2559          93.00       384.49
 1242.02        2979.50           2562          92.00       380.13
 1242.05        2979.75           2566          89.00       367.05
 1242.08        2980.00           2569          88.00       362.69
 1242.11        2980.25           2573          92.00       380.13
 1242.14        2980.50           2577          90.00       371.41
 1242.17        2980.75           2580          79.00       323.46
 1242.20        2981.00           2584          90.00       371.41
 1242.23        2981.25           2587          86.00       353.97
 1242.26        2981.50           2591          87.00       358.33
 1242.29        2981.75           2594          91.00       375.77
 1242.32        2982.00           2598          92.00       380.13
 1242.36        2982.25           2601          93.00       384.49
 1242.39        2982.50           2605          87.00       358.33
 1242.42        2982.75           2609          86.00       353.97
 1242.45        2983.00           2612          85.00       349.61
 1242.48        2983.25           2616          86.00       353.97
 1242.51        2983.50           2619          75.00       306.02
 1242.54        2983.75           2623          85.00       349.61
 1242.57        2984.00           2626          81.00       332.17
HS scan finished at 20:42:48
end
