************************************************************
  HS Scan of (1) Internal mercury lamp
************************************************************
Integration time is 0.2294 seconds per sample
dh130817Reading 51.44 .94 3.39pr1000
************************************************************
Dead Time -------------------------  3.4E-08 
Number of Cycles Used -------------  4 
Starting Wavelength (Angstroms) ---  2950 
Final Wavelength (Angstoms) -------  2984 
Wavelength Increment (Angstroms) --  .25 
Filter Wheel #1 Position ---------- (1) Ground quartz diffuser (ND=2.32)
Filter Wheel #2 Position ---------- (1) Neutral Density 0.494



************************************************************
HS scan start time = 01:20:50
Dark Count =  1.9 


Time (GMT)  Wavelength (Ang)  Step Number  Raw Counts  Counts/Second

   81.74        2950.00           2144         154.00       663.05
   81.93        2950.25           2147         161.00       693.56
   81.96        2950.50           2151         141.00       606.38
   81.99        2950.75           2155         149.00       641.25
   82.02        2951.00           2158         142.00       610.74
   82.05        2951.25           2162         152.00       654.33
   82.08        2951.50           2165         158.00       680.49
   82.11        2951.75           2169         160.00       689.21
   82.14        2952.00           2172         143.00       615.10
   82.17        2952.25           2176         150.00       645.61
   82.20        2952.50           2179         147.00       632.53
   82.23        2952.75           2183         165.00       711.00
   82.27        2953.00           2186         166.00       715.36
   82.30        2953.25           2190         165.00       711.00
   82.33        2953.50           2193         169.00       728.44
   82.36        2953.75           2197         160.00       689.21
   82.39        2954.00           2200         152.00       654.33
   82.42        2954.25           2204         158.00       680.49
   82.45        2954.50           2208         161.00       693.56
   82.48        2954.75           2211         160.00       689.21
   82.51        2955.00           2215         161.00       693.56
   82.54        2955.25           2218         178.00       767.67
   82.57        2955.50           2222         174.00       750.24
   82.60        2955.75           2225         156.00       671.77
   82.63        2956.00           2229         160.00       689.21
   82.66        2956.25           2232         172.00       741.52
   82.69        2956.50           2236         174.00       750.24
   82.72        2956.75           2239         167.00       719.72
   82.75        2957.00           2243         191.00       824.35
   82.78        2957.25           2246         180.00       776.39
   82.82        2957.50           2250         184.00       793.83
   82.85        2957.75           2254         187.00       806.91
   82.88        2958.00           2257         184.00       793.83
   82.91        2958.25           2261         200.00       863.58
   82.94        2958.50           2264         188.00       811.27
   82.97        2958.75           2268         186.00       802.55
   83.00        2959.00           2271         194.00       837.43
   83.03        2959.25           2275         194.00       837.43
   83.06        2959.50           2278         212.00       915.90
   83.09        2959.75           2282         206.00       889.74
   83.12        2960.00           2285         210.00       907.18
   83.15        2960.25           2289         212.00       915.90
   83.18        2960.50           2293         246.00      1064.12
   83.21        2960.75           2296         232.00      1003.09
   83.24        2961.00           2300         318.00      1378.01
   83.27        2961.25           2303         709.00      3082.71
   83.31        2961.50           2307        2450.00     10675.63
   83.34        2961.75           2310        4332.00     18887.89
   83.37        2962.00           2314        7505.00     32743.93
   83.40        2962.25           2317       10072.00     43963.23
   83.43        2962.50           2321       13531.00     59094.64
   83.46        2962.75           2324       16230.00     70912.26
   83.49        2963.00           2328       20184.00     88242.12
   83.52        2963.25           2331       23034.00    100746.00
   83.55        2963.50           2335       26422.00    115624.10
   83.58        2963.75           2339       29864.00    130754.80
   83.61        2964.00           2342       32532.00    142493.80
   83.64        2964.25           2346       36348.00    159300.40
   83.67        2964.50           2349       39454.00    172994.00
   83.70        2964.75           2353       42567.00    186731.50
   83.73        2965.00           2356       45090.00    197874.80
   83.76        2965.25           2360       49014.00    215222.60
   83.79        2965.50           2363       51018.00    224090.20
   83.82        2965.75           2367       54247.00    238389.50
   83.86        2966.00           2370       56626.00    248933.70
   83.89        2966.25           2374       59836.00    263173.00
   83.92        2966.50           2378       61610.00    271048.30
   83.95        2966.75           2381       61981.00    272695.90
   83.98        2967.00           2385       61968.00    272638.10
   84.01        2967.25           2388       62111.00    273273.20
   84.04        2967.50           2392       61974.00    272664.80
   84.07        2967.75           2395       61872.00    272211.80
   84.10        2968.00           2399       59946.00    263661.30
   84.13        2968.25           2402       57922.00    254681.00
   84.16        2968.50           2406       54286.00    238562.30
   84.19        2968.75           2409       51703.00    227122.50
   84.22        2969.00           2413       48337.00    212228.20
   84.25        2969.25           2417       45206.00    198387.30
   84.28        2969.50           2420       42572.00    186753.60
   84.31        2969.75           2424       38724.00    169774.50
   84.34        2970.00           2427       35955.00    157568.60
   84.38        2970.25           2431       32249.00    141248.20
   84.41        2970.50           2434       29474.00    129039.60
   84.44        2970.75           2438       25699.00    112447.80
   84.47        2971.00           2441       23142.00    101220.00
   84.50        2971.25           2445       18983.00     82976.13
   84.53        2971.50           2449       15017.00     65599.95
   84.56        2971.75           2452       12347.00     53913.47
   84.59        2972.00           2456        8735.00     38118.68
   84.62        2972.25           2459        6271.00     27353.68
   84.65        2972.50           2463        3372.00     14698.28
   84.68        2972.75           2466        1688.00      7351.88
   84.71        2973.00           2470         529.00      2297.91
   84.74        2973.25           2473         284.00      1229.78
   84.77        2973.50           2477         269.00      1164.39
   84.80        2973.75           2481         261.00      1129.51
   84.83        2974.00           2484         234.00      1011.80
   84.86        2974.25           2488         221.00       955.13
   84.90        2974.50           2491         205.00       885.38
   84.93        2974.75           2495         213.00       920.26
   84.96        2975.00           2498         215.00       928.97
   84.99        2975.25           2502         209.00       902.82
   85.02        2975.50           2505         199.00       859.22
   85.05        2975.75           2509         206.00       889.74
   85.08        2976.00           2512         202.00       872.30
   85.11        2976.25           2516         204.00       881.02
   85.14        2976.50           2520         193.00       833.07
   85.17        2976.75           2523         196.00       846.14
   85.20        2977.00           2527         180.00       776.39
   85.23        2977.25           2530         186.00       802.55
   85.26        2977.50           2534         186.00       802.55
   85.29        2977.75           2537         194.00       837.43
   85.32        2978.00           2541         190.00       819.99
   85.35        2978.25           2544         182.00       785.11
   85.38        2978.50           2548         181.00       780.75
   85.42        2978.75           2552         177.00       763.32
   85.45        2979.00           2555         176.00       758.96
   85.48        2979.25           2559         175.00       754.60
   85.51        2979.50           2562         171.00       737.16
   85.54        2979.75           2566         169.00       728.44
   85.57        2980.00           2569         169.00       728.44
   85.60        2980.25           2573         159.00       684.85
   85.63        2980.50           2577         166.00       715.36
   85.66        2980.75           2580         168.00       724.08
   85.69        2981.00           2584         161.00       693.56
   85.72        2981.25           2587         151.00       649.97
   85.75        2981.50           2591         158.00       680.49
   85.78        2981.75           2594         164.00       706.64
   85.81        2982.00           2598         157.00       676.13
   85.84        2982.25           2601         154.00       663.05
   85.87        2982.50           2605         159.00       684.85
   85.90        2982.75           2609         159.00       684.85
   85.94        2983.00           2612         164.00       706.64
   85.97        2983.25           2616         153.00       658.69
   86.00        2983.50           2619         149.00       641.25
   86.03        2983.75           2623         151.00       649.97
   86.06        2984.00           2626         144.00       619.46
HS scan finished at 01:26:17
end
************************************************************
  HS Scan of (1) Internal mercury lamp
************************************************************
Integration time is 0.2294 seconds per sample
dh130817Reading 51.44 .94 3.64pr1000
************************************************************
Dead Time -------------------------  3.4E-08 
Number of Cycles Used -------------  4 
Starting Wavelength (Angstroms) ---  2950 
Final Wavelength (Angstoms) -------  2984 
Wavelength Increment (Angstroms) --  .25 
Filter Wheel #1 Position ---------- (1) Ground quartz diffuser (ND=2.32)
Filter Wheel #2 Position ---------- (1) Neutral Density 0.494



************************************************************
HS scan start time = 20:37:19
Dark Count =  3.4 


Time (GMT)  Wavelength (Ang)  Step Number  Raw Counts  Counts/Second

 1238.21        2950.00           2144         154.00       656.51
 1238.40        2950.25           2147         166.00       708.82
 1238.43        2950.50           2151         154.00       656.51
 1238.46        2950.75           2155         160.00       682.67
 1238.49        2951.00           2158         176.00       752.42
 1238.52        2951.25           2162         144.00       612.92
 1238.56        2951.50           2165         155.00       660.87
 1238.59        2951.75           2169         162.00       691.39
 1238.62        2952.00           2172         157.00       669.59
 1238.65        2952.25           2176         159.00       678.31
 1238.68        2952.50           2179         168.00       717.54
 1238.71        2952.75           2183         161.00       687.03
 1238.74        2953.00           2186         154.00       656.51
 1238.77        2953.25           2190         160.00       682.67
 1238.80        2953.50           2193         162.00       691.39
 1238.83        2953.75           2197         158.00       673.95
 1238.86        2954.00           2200         170.00       726.26
 1238.89        2954.25           2204         165.00       704.46
 1238.92        2954.50           2208         183.00       782.93
 1238.95        2954.75           2211         169.00       721.90
 1238.98        2955.00           2215         165.00       704.46
 1239.01        2955.25           2218         169.00       721.90
 1239.04        2955.50           2222         172.00       734.98
 1239.08        2955.75           2225         181.00       774.21
 1239.11        2956.00           2229         170.00       726.26
 1239.14        2956.25           2232         175.00       748.06
 1239.17        2956.50           2236         185.00       791.65
 1239.20        2956.75           2239         178.00       761.14
 1239.23        2957.00           2243         191.00       817.81
 1239.26        2957.25           2246         186.00       796.01
 1239.29        2957.50           2250         188.00       804.73
 1239.32        2957.75           2254         190.00       813.45
 1239.35        2958.00           2257         218.00       935.51
 1239.38        2958.25           2261         193.00       826.53
 1239.41        2958.50           2264         197.00       843.96
 1239.44        2958.75           2268         195.00       835.25
 1239.47        2959.00           2271         204.00       874.48
 1239.50        2959.25           2275         221.00       948.59
 1239.53        2959.50           2278         212.00       909.36
 1239.56        2959.75           2282         221.00       948.59
 1239.60        2960.00           2285         214.00       918.08
 1239.63        2960.25           2289         216.00       926.79
 1239.66        2960.50           2293         230.00       987.83
 1239.69        2960.75           2296         263.00      1131.69
 1239.72        2961.00           2300         271.00      1166.57
 1239.75        2961.25           2303         431.00      1864.11
 1239.78        2961.50           2307        1526.00      6638.81
 1239.81        2961.75           2310        3389.00     14765.91
 1239.84        2962.00           2314        6701.00     29225.19
 1239.87        2962.25           2317        9362.00     40852.70
 1239.90        2962.50           2321       12791.00     55849.63
 1239.93        2962.75           2324       15305.00     66854.50
 1239.96        2963.00           2328       19146.00     83684.15
 1239.99        2963.25           2331       22046.00     96403.52
 1240.02        2963.50           2335       25957.00    113574.60
 1240.05        2963.75           2339       29546.00    129349.70
 1240.09        2964.00           2342       32011.00    140194.10
 1240.12        2964.25           2346       36074.00    158086.30
 1240.15        2964.50           2349       39057.00    171236.40
 1240.18        2964.75           2353       42663.00    187148.70
 1240.21        2965.00           2356       45532.00    199821.20
 1240.24        2965.25           2360       48914.00    214773.60
 1240.27        2965.50           2363       51536.00    226376.50
 1240.30        2965.75           2367       55268.00    242907.20
 1240.33        2966.00           2370       58022.00    255117.90
 1240.36        2966.25           2374       61801.00    271889.80
 1240.39        2966.50           2378       63642.00    280067.50
 1240.42        2966.75           2381       64300.00    282991.40
 1240.45        2967.00           2385       64344.00    283187.00
 1240.48        2967.25           2388       65057.00    286356.00
 1240.51        2967.50           2392       64742.00    284955.90
 1240.54        2967.75           2395       64378.00    283338.10
 1240.57        2968.00           2399       62147.00    273426.40
 1240.61        2968.25           2402       59872.00    263326.20
 1240.64        2968.50           2406       56818.00    249778.40
 1240.67        2968.75           2409       54032.00    237430.40
 1240.70        2969.00           2413       50776.00    223012.40
 1240.73        2969.25           2417       47228.00    207317.60
 1240.76        2969.50           2420       44379.00    194727.00
 1240.79        2969.75           2424       40192.00    176243.00
 1240.82        2970.00           2427       36957.00    161977.70
 1240.85        2970.25           2431       33163.00    145265.00
 1240.88        2970.50           2434       30523.00    133646.90
 1240.91        2970.75           2438       26705.00    116861.00
 1240.94        2971.00           2441       23772.00    103979.00
 1240.97        2971.25           2445       19615.00     85740.43
 1241.00        2971.50           2449       15978.00     69801.91
 1241.03        2971.75           2452       13254.00     57875.76
 1241.06        2972.00           2456        9864.00     43047.27
 1241.09        2972.25           2459        7165.00     31252.02
 1241.12        2972.50           2463        3788.00     16507.08
 1241.16        2972.75           2466        1948.00      8479.34
 1241.19        2973.00           2470         591.00      2561.69
 1241.22        2973.25           2473         312.00      1345.31
 1241.25        2973.50           2477         256.00      1101.17
 1241.28        2973.75           2481         244.00      1048.86
 1241.31        2974.00           2484         230.00       987.83
 1241.34        2974.25           2488         216.00       926.79
 1241.37        2974.50           2491         226.00       970.39
 1241.40        2974.75           2495         242.00      1040.14
 1241.43        2975.00           2498         221.00       948.59
 1241.46        2975.25           2502         212.00       909.36
 1241.49        2975.50           2505         230.00       987.83
 1241.52        2975.75           2509         200.00       857.04
 1241.55        2976.00           2512         208.00       891.92
 1241.58        2976.25           2516         205.00       878.84
 1241.61        2976.50           2520         185.00       791.65
 1241.64        2976.75           2523         202.00       865.76
 1241.68        2977.00           2527         183.00       782.93
 1241.71        2977.25           2530         203.00       870.12
 1241.74        2977.50           2534         192.00       822.17
 1241.77        2977.75           2537         185.00       791.65
 1241.80        2978.00           2541         182.00       778.57
 1241.83        2978.25           2544         177.00       756.78
 1241.86        2978.50           2548         183.00       782.93
 1241.89        2978.75           2552         175.00       748.06
 1241.92        2979.00           2555         166.00       708.82
 1241.95        2979.25           2559         175.00       748.06
 1241.98        2979.50           2562         166.00       708.82
 1242.01        2979.75           2566         171.00       730.62
 1242.04        2980.00           2569         169.00       721.90
 1242.07        2980.25           2573         167.00       713.18
 1242.10        2980.50           2577         166.00       708.82
 1242.13        2980.75           2580         182.00       778.57
 1242.16        2981.00           2584         173.00       739.34
 1242.20        2981.25           2587         156.00       665.23
 1242.23        2981.50           2591         167.00       713.18
 1242.26        2981.75           2594         151.00       643.43
 1242.29        2982.00           2598         149.00       634.71
 1242.32        2982.25           2601         163.00       695.74
 1242.35        2982.50           2605         146.00       621.63
 1242.38        2982.75           2609         149.00       634.71
 1242.41        2983.00           2612         147.00       625.99
 1242.44        2983.25           2616         160.00       682.67
 1242.47        2983.50           2619         147.00       625.99
 1242.50        2983.75           2623         156.00       665.23
 1242.53        2984.00           2626         155.00       660.87
HS scan finished at 20:42:45
end
