************************************************************
  HS Scan of (1) Internal mercury lamp
************************************************************
Integration time is 0.2294 seconds per sample
dh170818Reading 51.44 .94 3.27pr1000
************************************************************
Dead Time -------------------------  3.4E-08 
Number of Cycles Used -------------  4 
Starting Wavelength (Angstroms) ---  2950 
Final Wavelength (Angstoms) -------  2984 
Wavelength Increment (Angstroms) --  .25 
Filter Wheel #1 Position ---------- (1) Ground quartz diffuser (ND=2.32)
Filter Wheel #2 Position ---------- (1) Neutral Density 0.494



************************************************************
HS scan start time = 01:12:05
Dark Count =  1.2 


Time (GMT)  Wavelength (Ang)  Step Number  Raw Counts  Counts/Second

   72.97        2950.00           2144          57.00       243.25
   73.17        2950.25           2147          58.00       247.60
   73.20        2950.50           2151          60.00       256.32
   73.23        2950.75           2155          59.00       251.96
   73.26        2951.00           2158          55.00       234.53
   73.29        2951.25           2162          64.00       273.76
   73.32        2951.50           2165          59.00       251.96
   73.35        2951.75           2169          62.00       265.04
   73.38        2952.00           2172          58.00       247.60
   73.41        2952.25           2176          62.00       265.04
   73.44        2952.50           2179          59.00       251.96
   73.47        2952.75           2183          62.00       265.04
   73.50        2953.00           2186          65.00       278.12
   73.53        2953.25           2190          61.00       260.68
   73.56        2953.50           2193          61.00       260.68
   73.61        2953.75           2197          63.00       269.40
   73.64        2954.00           2200          59.00       251.96
   73.67        2954.25           2204          59.00       251.96
   73.70        2954.50           2208          62.00       265.04
   73.73        2954.75           2211          58.00       247.60
   73.76        2955.00           2215          58.00       247.60
   73.79        2955.25           2218          58.00       247.60
   73.82        2955.50           2222          65.00       278.12
   73.85        2955.75           2225          67.00       286.84
   73.88        2956.00           2229          67.00       286.84
   73.91        2956.25           2232          64.00       273.76
   73.95        2956.50           2236          58.00       247.60
   73.98        2956.75           2239          65.00       278.12
   74.01        2957.00           2243          64.00       273.76
   74.04        2957.25           2246          66.00       282.48
   74.07        2957.50           2250          69.00       295.56
   74.10        2957.75           2254          70.00       299.92
   74.13        2958.00           2257          70.00       299.92
   74.16        2958.25           2261          72.00       308.63
   74.19        2958.50           2264          77.00       330.43
   74.22        2958.75           2268          69.00       295.56
   74.25        2959.00           2271          73.00       312.99
   74.28        2959.25           2275          73.00       312.99
   74.31        2959.50           2278          81.00       347.87
   74.34        2959.75           2282          73.00       312.99
   74.37        2960.00           2285          87.00       374.02
   74.40        2960.25           2289          88.00       378.38
   74.43        2960.50           2293          84.00       360.95
   74.47        2960.75           2296          80.00       343.51
   74.50        2961.00           2300         112.00       483.01
   74.53        2961.25           2303         285.00      1237.19
   74.56        2961.50           2307         916.00      3988.34
   74.59        2961.75           2310        1617.00      7045.28
   74.62        2962.00           2314        2550.00     11114.93
   74.65        2962.25           2317        3410.00     14867.15
   74.68        2962.50           2321        4599.00     20056.39
   74.71        2962.75           2324        5479.00     23898.23
   74.74        2963.00           2328        6804.00     29684.70
   74.77        2963.25           2331        7620.00     33249.42
   74.80        2963.50           2335        8865.00     38689.92
   74.83        2963.75           2339       10045.00     43848.24
   74.86        2964.00           2342       11124.00     48566.62
   74.89        2964.25           2346       12517.00     54660.34
   74.92        2964.50           2349       13664.00     59679.83
   74.95        2964.75           2353       14573.00     63658.99
   74.99        2965.00           2356       15421.00     67372.11
   75.02        2965.25           2360       16678.00     72877.83
   75.05        2965.50           2363       17545.00     76676.54
   75.08        2965.75           2367       18603.00     81313.43
   75.11        2966.00           2370       19377.00     84706.56
   75.14        2966.25           2374       20034.00     87587.39
   75.17        2966.50           2378       20665.00     90354.75
   75.20        2966.75           2381       20699.00     90503.88
   75.23        2967.00           2385       20616.00     90139.83
   75.26        2967.25           2388       20577.00     89968.78
   75.29        2967.50           2392       20515.00     89696.85
   75.32        2967.75           2395       20301.00     88758.30
   75.35        2968.00           2399       19729.00     86249.96
   75.38        2968.25           2402       18744.00     81931.50
   75.41        2968.50           2406       17566.00     76768.56
   75.44        2968.75           2409       16884.00     73780.31
   75.47        2969.00           2413       15739.00     68764.78
   75.51        2969.25           2417       14619.00     63860.39
   75.54        2969.50           2420       13690.00     59793.62
   75.57        2969.75           2424       12395.00     54126.55
   75.60        2970.00           2427       11393.00     49743.17
   75.63        2970.25           2431       10153.00     44320.44
   75.66        2970.50           2434        9463.00     41303.83
   75.69        2970.75           2438        8164.00     35626.39
   75.72        2971.00           2441        7217.00     31488.80
   75.75        2971.25           2445        6141.00     26788.99
   75.78        2971.50           2449        5008.00     21841.85
   75.81        2971.75           2452        4102.00     17887.07
   75.84        2972.00           2456        2837.00     12367.01
   75.87        2972.25           2459        1969.00      8580.53
   75.90        2972.50           2463        1080.00      4703.46
   75.93        2972.75           2466         534.00      2322.76
   75.96        2973.00           2470         182.00       788.16
   75.99        2973.25           2473         130.00       561.48
   76.03        2973.50           2477          96.00       413.26
   76.06        2973.75           2481         112.00       483.01
   76.09        2974.00           2484          89.00       382.74
   76.12        2974.25           2488          82.00       352.23
   76.15        2974.50           2491          83.00       356.59
   76.18        2974.75           2495          78.00       334.79
   76.21        2975.00           2498          79.00       339.15
   76.24        2975.25           2502          87.00       374.02
   76.27        2975.50           2505          83.00       356.59
   76.30        2975.75           2509          69.00       295.56
   76.33        2976.00           2512          83.00       356.59
   76.36        2976.25           2516          77.00       330.43
   76.39        2976.50           2520          69.00       295.56
   76.42        2976.75           2523          74.00       317.35
   76.45        2977.00           2527          71.00       304.28
   76.48        2977.25           2530          68.00       291.20
   76.51        2977.50           2534          67.00       286.84
   76.54        2977.75           2537          65.00       278.12
   76.58        2978.00           2541          65.00       278.12
   76.61        2978.25           2544          68.00       291.20
   76.64        2978.50           2548          65.00       278.12
   76.67        2978.75           2552          69.00       295.56
   76.70        2979.00           2555          64.00       273.76
   76.73        2979.25           2559          61.00       260.68
   76.76        2979.50           2562          63.00       269.40
   76.79        2979.75           2566          64.00       273.76
   76.82        2980.00           2569          69.00       295.56
   76.85        2980.25           2573          56.00       238.89
   76.88        2980.50           2577          62.00       265.04
   76.91        2980.75           2580          57.00       243.25
   76.94        2981.00           2584          56.00       238.89
   76.97        2981.25           2587          59.00       251.96
   77.00        2981.50           2591          63.00       269.40
   77.03        2981.75           2594          61.00       260.68
   77.07        2982.00           2598          64.00       273.76
   77.10        2982.25           2601          64.00       273.76
   77.13        2982.50           2605          66.00       282.48
   77.16        2982.75           2609          65.00       278.12
   77.19        2983.00           2612          52.00       221.45
   77.22        2983.25           2616          59.00       251.96
   77.25        2983.50           2619          61.00       260.68
   77.28        2983.75           2623          59.00       251.96
   77.31        2984.00           2626          53.00       225.81
HS scan finished at 01:17:32
end
************************************************************
  HS Scan of (1) Internal mercury lamp
************************************************************
Integration time is 0.2294 seconds per sample
dh170818Reading 51.44 .94 3.66pr1000
************************************************************
Dead Time -------------------------  3.4E-08 
Number of Cycles Used -------------  4 
Starting Wavelength (Angstroms) ---  2950 
Final Wavelength (Angstoms) -------  2984 
Wavelength Increment (Angstroms) --  .25 
Filter Wheel #1 Position ---------- (1) Ground quartz diffuser (ND=2.32)
Filter Wheel #2 Position ---------- (1) Neutral Density 0.494



************************************************************
HS scan start time = 20:07:26
Dark Count =  4.1 


Time (GMT)  Wavelength (Ang)  Step Number  Raw Counts  Counts/Second

 1208.33        2950.00           2144          80.00       330.87
 1208.52        2950.25           2147          91.00       378.82
 1208.55        2950.50           2151          95.00       396.26
 1208.58        2950.75           2155          91.00       378.82
 1208.61        2951.00           2158          92.00       383.18
 1208.64        2951.25           2162         114.00       479.08
 1208.67        2951.50           2165         123.00       518.32
 1208.70        2951.75           2169         101.00       422.41
 1208.73        2952.00           2172          99.00       413.69
 1208.76        2952.25           2176         102.00       426.77
 1208.79        2952.50           2179         113.00       474.72
 1208.82        2952.75           2183         103.00       431.13
 1208.86        2953.00           2186          99.00       413.69
 1208.89        2953.25           2190          98.00       409.33
 1208.92        2953.50           2193         101.00       422.41
 1208.95        2953.75           2197         102.00       426.77
 1208.98        2954.00           2200          97.00       404.98
 1209.01        2954.25           2204          98.00       409.33
 1209.04        2954.50           2208          98.00       409.33
 1209.07        2954.75           2211         102.00       426.77
 1209.10        2955.00           2215         112.00       470.37
 1209.13        2955.25           2218         100.00       418.05
 1209.16        2955.50           2222         143.00       605.51
 1209.19        2955.75           2225         121.00       509.60
 1209.22        2956.00           2229         118.00       496.52
 1209.25        2956.25           2232         103.00       431.13
 1209.28        2956.50           2236          98.00       409.33
 1209.31        2956.75           2239         117.00       492.16
 1209.34        2957.00           2243         122.00       513.96
 1209.38        2957.25           2246         106.00       444.21
 1209.41        2957.50           2250         132.00       557.55
 1209.44        2957.75           2254         118.00       496.52
 1209.47        2958.00           2257         113.00       474.72
 1209.50        2958.25           2261         138.00       583.71
 1209.53        2958.50           2264         115.00       483.44
 1209.56        2958.75           2268         123.00       518.32
 1209.59        2959.00           2271         123.00       518.32
 1209.62        2959.25           2275         115.00       483.44
 1209.65        2959.50           2278         133.00       561.91
 1209.68        2959.75           2282         140.00       592.43
 1209.71        2960.00           2285         158.00       670.90
 1209.74        2960.25           2289         151.00       640.38
 1209.77        2960.50           2293         145.00       614.22
 1209.80        2960.75           2296         156.00       662.18
 1209.83        2961.00           2300         187.00       797.32
 1209.86        2961.25           2303         443.00      1913.38
 1209.90        2961.50           2307        1583.00      6884.35
 1209.93        2961.75           2310        3078.00     13405.85
 1209.96        2962.00           2314        5352.00     23331.06
 1209.99        2962.25           2317        7319.00     31921.72
 1210.02        2962.50           2321        9929.00     43328.39
 1210.05        2962.75           2324       12117.00     52897.59
 1210.08        2963.00           2328       14827.00     64758.39
 1210.11        2963.25           2331       17162.00     74985.62
 1210.14        2963.50           2335       19693.00     86079.38
 1210.17        2963.75           2339       22203.00     97089.38
 1210.20        2964.00           2342       24717.00    108125.20
 1210.23        2964.25           2346       27640.00    120966.90
 1210.26        2964.50           2349       29780.00    130375.70
 1210.29        2964.75           2353       32478.00    142246.50
 1210.32        2965.00           2356       34458.00    150964.30
 1210.35        2965.25           2360       37077.00    162503.50
 1210.38        2965.50           2363       38935.00    170695.30
 1210.42        2965.75           2367       41497.00    181998.50
 1210.45        2966.00           2370       43546.00    191044.70
 1210.48        2966.25           2374       45679.00    200467.60
 1210.51        2966.50           2378       46853.00    205656.60
 1210.54        2966.75           2381       47321.00    207725.70
 1210.57        2967.00           2385       47438.00    208243.00
 1210.60        2967.25           2388       47372.00    207951.10
 1210.63        2967.50           2392       47202.00    207199.60
 1210.66        2967.75           2395       47020.00    206394.90
 1210.69        2968.00           2399       45735.00    200715.10
 1210.72        2968.25           2402       44046.00    193253.00
 1210.75        2968.50           2406       41470.00    181879.30
 1210.78        2968.75           2409       39598.00    173619.50
 1210.81        2969.00           2413       37383.00    163852.30
 1210.84        2969.25           2417       34782.00    152391.30
 1210.87        2969.50           2420       32751.00    143448.10
 1210.90        2969.75           2424       30001.00    131347.70
 1210.93        2970.00           2427       27721.00    121322.90
 1210.97        2970.25           2431       24766.00    108340.40
 1211.00        2970.50           2434       22812.00     99761.97
 1211.03        2970.75           2438       20286.00     88679.80
 1211.06        2971.00           2441       17955.00     78460.56
 1211.09        2971.25           2445       14963.00     65353.87
 1211.12        2971.50           2449       12035.00     52538.85
 1211.15        2971.75           2452        9998.00     43630.07
 1211.18        2972.00           2456        7164.00     31244.60
 1211.21        2972.25           2459        5183.00     22593.20
 1211.24        2972.50           2463        2831.00     12328.18
 1211.27        2972.75           2466        1425.00      6195.29
 1211.30        2973.00           2470         453.00      1956.97
 1211.33        2973.25           2473         223.00       954.26
 1211.36        2973.50           2477         170.00       723.21
 1211.39        2973.75           2481         149.00       631.66
 1211.42        2974.00           2484         157.00       666.54
 1211.45        2974.25           2488         144.00       609.86
 1211.49        2974.50           2491         163.00       692.69
 1211.52        2974.75           2495         151.00       640.38
 1211.55        2975.00           2498         143.00       605.51
 1211.58        2975.25           2502         143.00       605.51
 1211.61        2975.50           2505         130.00       548.83
 1211.64        2975.75           2509         141.00       596.79
 1211.67        2976.00           2512         136.00       574.99
 1211.70        2976.25           2516         162.00       688.33
 1211.73        2976.50           2520         127.00       535.76
 1211.76        2976.75           2523         154.00       653.46
 1211.79        2977.00           2527         136.00       574.99
 1211.82        2977.25           2530         136.00       574.99
 1211.85        2977.50           2534         121.00       509.60
 1211.88        2977.75           2537         126.00       531.40
 1211.91        2978.00           2541         125.00       527.04
 1211.94        2978.25           2544         113.00       474.72
 1211.97        2978.50           2548         130.00       548.83
 1212.01        2978.75           2552         126.00       531.40
 1212.04        2979.00           2555         116.00       487.80
 1212.07        2979.25           2559         131.00       553.19
 1212.10        2979.50           2562         130.00       548.83
 1212.13        2979.75           2566         104.00       435.49
 1212.16        2980.00           2569          99.00       413.69
 1212.19        2980.25           2573         128.00       540.11
 1212.22        2980.50           2577         101.00       422.41
 1212.25        2980.75           2580         110.00       461.65
 1212.28        2981.00           2584         133.00       561.91
 1212.31        2981.25           2587         111.00       466.01
 1212.34        2981.50           2591         111.00       466.01
 1212.37        2981.75           2594         100.00       418.05
 1212.40        2982.00           2598         116.00       487.80
 1212.43        2982.25           2601          94.00       391.90
 1212.46        2982.50           2605          95.00       396.26
 1212.49        2982.75           2609          93.00       387.54
 1212.53        2983.00           2612          91.00       378.82
 1212.56        2983.25           2616         104.00       435.49
 1212.59        2983.50           2619         112.00       470.37
 1212.62        2983.75           2623          83.00       343.94
 1212.65        2984.00           2626          89.00       370.10
HS scan finished at 20:12:52
end
