************************************************************
  HS Scan of (1) Internal mercury lamp
************************************************************
Integration time is 0.2294 seconds per sample
dh110818Reading 51.44 .94 3.19pr1000
************************************************************
Dead Time -------------------------  3.4E-08 
Number of Cycles Used -------------  4 
Starting Wavelength (Angstroms) ---  2950 
Final Wavelength (Angstoms) -------  2984 
Wavelength Increment (Angstroms) --  .25 
Filter Wheel #1 Position ---------- (1) Ground quartz diffuser (ND=2.32)
Filter Wheel #2 Position ---------- (1) Neutral Density 0.494



************************************************************
HS scan start time = 01:13:14
Dark Count =  1.4 


Time (GMT)  Wavelength (Ang)  Step Number  Raw Counts  Counts/Second

   74.13        2950.00           2144          66.00       281.61
   74.33        2950.25           2147          63.00       268.53
   74.36        2950.50           2151          73.00       312.12
   74.39        2950.75           2155          67.00       285.97
   74.42        2951.00           2158          65.00       277.25
   74.45        2951.25           2162          73.00       312.12
   74.48        2951.50           2165          72.00       307.76
   74.51        2951.75           2169          72.00       307.76
   74.54        2952.00           2172          76.00       325.20
   74.57        2952.25           2176          70.00       299.04
   74.60        2952.50           2179          70.00       299.04
   74.63        2952.75           2183          65.00       277.25
   74.66        2953.00           2186          77.00       329.56
   74.69        2953.25           2190          66.00       281.61
   74.73        2953.50           2193          74.00       316.48
   74.76        2953.75           2197          74.00       316.48
   74.79        2954.00           2200          75.00       320.84
   74.82        2954.25           2204          73.00       312.12
   74.85        2954.50           2208          70.00       299.04
   74.88        2954.75           2211          82.00       351.36
   74.91        2955.00           2215          71.00       303.40
   74.94        2955.25           2218          77.00       329.56
   74.97        2955.50           2222          74.00       316.48
   75.00        2955.75           2225          73.00       312.12
   75.03        2956.00           2229          85.00       364.43
   75.06        2956.25           2232          81.00       347.00
   75.09        2956.50           2236          82.00       351.36
   75.12        2956.75           2239          84.00       360.07
   75.15        2957.00           2243          82.00       351.36
   75.18        2957.25           2246          88.00       377.51
   75.21        2957.50           2250          80.00       342.64
   75.25        2957.75           2254          84.00       360.07
   75.28        2958.00           2257          81.00       347.00
   75.31        2958.25           2261          80.00       342.64
   75.34        2958.50           2264          83.00       355.71
   75.37        2958.75           2268          92.00       394.95
   75.40        2959.00           2271          94.00       403.67
   75.43        2959.25           2275          95.00       408.03
   75.46        2959.50           2278          86.00       368.79
   75.49        2959.75           2282          94.00       403.67
   75.52        2960.00           2285          94.00       403.67
   75.55        2960.25           2289         115.00       495.21
   75.58        2960.50           2293          99.00       425.46
   75.61        2960.75           2296          98.00       421.10
   75.64        2961.00           2300         146.00       630.35
   75.67        2961.25           2303         286.00      1240.68
   75.70        2961.50           2307         853.00      3712.76
   75.73        2961.75           2310        1657.00      7218.86
   75.77        2962.00           2314        3033.00     13221.29
   75.80        2962.25           2317        3980.00     17353.74
   75.83        2962.50           2321        5467.00     23844.96
   75.86        2962.75           2324        6660.00     29054.85
   75.89        2963.00           2328        8296.00     36202.34
   75.92        2963.25           2331        9526.00     41578.35
   75.95        2963.50           2335       11247.00     49103.71
   75.98        2963.75           2339       12661.00     55289.54
   76.01        2964.00           2342       14117.00     61661.83
   76.04        2964.25           2346       15824.00     69136.18
   76.07        2964.50           2349       17088.00     74673.22
   76.10        2964.75           2353       18547.00     81067.07
   76.13        2965.00           2356       19488.00     85192.35
   76.17        2965.25           2360       21249.00     92915.56
   76.21        2965.50           2363       22663.00     99119.88
   76.24        2965.75           2367       24226.00    105981.00
   76.27        2966.00           2370       25209.00    110297.80
   76.30        2966.25           2374       26400.00    115529.60
   76.33        2966.50           2378       27079.00    118513.20
   76.36        2966.75           2381       27441.00    120104.10
   76.39        2967.00           2385       28171.00    123312.80
   76.42        2967.25           2388       28371.00    124192.00
   76.45        2967.50           2392       28040.00    122736.90
   76.48        2967.75           2395       28066.00    122851.20
   76.51        2968.00           2399       26834.00    117436.60
   76.55        2968.25           2402       27130.00    118737.30
   76.58        2968.50           2406       25082.00    109740.00
   76.61        2968.75           2409       23885.00    104483.90
   76.64        2969.00           2413       22251.00     97311.85
   76.67        2969.25           2417       20746.00     90709.14
   76.70        2969.50           2420       19549.00     85459.81
   76.73        2969.75           2424       17732.00     77495.12
   76.76        2970.00           2427       16381.00     71575.90
   76.79        2970.25           2431       14399.00     62896.35
   76.82        2970.50           2434       13344.00     58278.40
   76.85        2970.75           2438       11603.00     50660.86
   76.88        2971.00           2441       10590.00     46230.41
   76.91        2971.25           2445        8697.00     37954.79
   76.94        2971.50           2449        6784.00     29596.47
   76.97        2971.75           2452        5536.00     24146.24
   77.00        2972.00           2456        4040.00     17615.61
   77.03        2972.25           2459        3009.00     13116.57
   77.07        2972.50           2463        1574.00      6856.87
   77.10        2972.75           2466         825.00      3590.67
   77.13        2973.00           2470         276.00      1197.08
   77.16        2973.25           2473         137.00       591.12
   77.19        2973.50           2477         135.00       582.40
   77.22        2973.75           2481         121.00       521.37
   77.25        2974.00           2484         119.00       512.65
   77.28        2974.25           2488         101.00       434.18
   77.31        2974.50           2491          97.00       416.75
   77.34        2974.75           2495          99.00       425.46
   77.37        2975.00           2498         131.00       564.96
   77.40        2975.25           2502         109.00       469.06
   77.43        2975.50           2505          98.00       421.10
   77.46        2975.75           2509          97.00       416.75
   77.49        2976.00           2512         114.00       490.85
   77.52        2976.25           2516          98.00       421.10
   77.55        2976.50           2520          95.00       408.03
   77.59        2976.75           2523          87.00       373.15
   77.62        2977.00           2527          98.00       421.10
   77.65        2977.25           2530          85.00       364.43
   77.68        2977.50           2534          85.00       364.43
   77.71        2977.75           2537          78.00       333.92
   77.74        2978.00           2541          77.00       329.56
   77.77        2978.25           2544          78.00       333.92
   77.80        2978.50           2548          85.00       364.43
   77.83        2978.75           2552          85.00       364.43
   77.86        2979.00           2555          78.00       333.92
   77.89        2979.25           2559          80.00       342.64
   77.92        2979.50           2562          78.00       333.92
   77.95        2979.75           2566          74.00       316.48
   77.98        2980.00           2569          83.00       355.71
   78.01        2980.25           2573          76.00       325.20
   78.04        2980.50           2577          76.00       325.20
   78.07        2980.75           2580          82.00       351.36
   78.11        2981.00           2584          83.00       355.71
   78.14        2981.25           2587          66.00       281.61
   78.17        2981.50           2591          72.00       307.76
   78.20        2981.75           2594          74.00       316.48
   78.23        2982.00           2598          69.00       294.68
   78.26        2982.25           2601          73.00       312.12
   78.29        2982.50           2605          71.00       303.40
   78.32        2982.75           2609          75.00       320.84
   78.35        2983.00           2612          77.00       329.56
   78.38        2983.25           2616          73.00       312.12
   78.41        2983.50           2619          65.00       277.25
   78.44        2983.75           2623          73.00       312.12
   78.47        2984.00           2626          76.00       325.20
HS scan finished at 01:18:42
end
************************************************************
  HS Scan of (1) Internal mercury lamp
************************************************************
Integration time is 0.2294 seconds per sample
dh110818Reading 51.44 .94 3.47pr1000
************************************************************
Dead Time -------------------------  3.4E-08 
Number of Cycles Used -------------  4 
Starting Wavelength (Angstroms) ---  2950 
Final Wavelength (Angstoms) -------  2984 
Wavelength Increment (Angstroms) --  .25 
Filter Wheel #1 Position ---------- (1) Ground quartz diffuser (ND=2.32)
Filter Wheel #2 Position ---------- (1) Neutral Density 0.494



************************************************************
HS scan start time = 20:37:31
Dark Count =  2.7 


Time (GMT)  Wavelength (Ang)  Step Number  Raw Counts  Counts/Second

 1238.42        2950.00           2144          52.00       214.91
 1238.62        2950.25           2147          60.00       249.78
 1238.65        2950.50           2151          58.00       241.07
 1238.68        2950.75           2155          56.00       232.35
 1238.71        2951.00           2158          53.00       219.27
 1238.74        2951.25           2162          58.00       241.07
 1238.77        2951.50           2165          63.00       262.86
 1238.80        2951.75           2169          61.00       254.14
 1238.83        2952.00           2172          63.00       262.86
 1238.86        2952.25           2176          66.00       275.94
 1238.89        2952.50           2179          63.00       262.86
 1238.92        2952.75           2183          68.00       284.66
 1238.95        2953.00           2186          67.00       280.30
 1238.98        2953.25           2190          57.00       236.71
 1239.01        2953.50           2193          58.00       241.07
 1239.04        2953.75           2197          69.00       289.02
 1239.07        2954.00           2200          75.00       315.17
 1239.10        2954.25           2204          67.00       280.30
 1239.13        2954.50           2208          65.00       271.58
 1239.17        2954.75           2211          62.00       258.50
 1239.20        2955.00           2215          69.00       289.02
 1239.23        2955.25           2218          64.00       267.22
 1239.26        2955.50           2222          69.00       289.02
 1239.29        2955.75           2225          70.00       293.38
 1239.32        2956.00           2229          71.00       297.74
 1239.35        2956.25           2232          67.00       280.30
 1239.38        2956.50           2236          69.00       289.02
 1239.41        2956.75           2239          77.00       323.89
 1239.44        2957.00           2243          73.00       306.45
 1239.47        2957.25           2246          66.00       275.94
 1239.50        2957.50           2250          71.00       297.74
 1239.53        2957.75           2254          80.00       336.97
 1239.56        2958.00           2257          81.00       341.33
 1239.59        2958.25           2261          85.00       358.77
 1239.62        2958.50           2264          80.00       336.97
 1239.65        2958.75           2268          93.00       393.64
 1239.69        2959.00           2271          87.00       367.49
 1239.72        2959.25           2275         107.00       454.67
 1239.75        2959.50           2278          91.00       384.92
 1239.78        2959.75           2282          94.00       398.00
 1239.81        2960.00           2285         106.00       450.31
 1239.84        2960.25           2289         123.00       524.42
 1239.87        2960.50           2293         134.00       572.37
 1239.90        2960.75           2296         138.00       589.81
 1239.93        2961.00           2300         148.00       633.41
 1239.96        2961.25           2303         269.00      1160.90
 1239.99        2961.50           2307        1051.00      4570.46
 1240.02        2961.75           2310        2187.00      9524.88
 1240.05        2962.00           2314        4026.00     17548.83
 1240.08        2962.25           2317        5714.00     24917.79
 1240.11        2962.50           2321        7930.00     34597.34
 1240.14        2962.75           2324        9581.00     41813.11
 1240.18        2963.00           2328       11950.00     52173.12
 1240.21        2963.25           2331       13968.00     61003.91
 1240.24        2963.50           2335       16636.00     72687.27
 1240.27        2963.75           2339       19357.00     84612.29
 1240.30        2964.00           2342       20899.00     91374.55
 1240.33        2964.25           2346       23122.00    101128.70
 1240.36        2964.50           2349       25238.00    110419.40
 1240.39        2964.75           2353       27729.00    121364.20
 1240.42        2965.00           2356       30806.00    134895.00
 1240.45        2965.25           2360       32031.00    140285.20
 1240.48        2965.50           2363       34276.00    150168.90
 1240.51        2965.75           2367       38633.00    169369.70
 1240.54        2966.00           2370       40423.00    177265.30
 1240.57        2966.25           2374       46738.00    205154.50
 1240.60        2966.50           2378       49807.00    218727.40
 1240.63        2966.75           2381       50985.00    223940.50
 1240.66        2967.00           2385       51622.00    226760.30
 1240.69        2967.25           2388       52131.00    229013.90
 1240.73        2967.50           2392       52370.00    230072.20
 1240.76        2967.75           2395       52377.00    230103.20
 1240.79        2968.00           2399       51962.00    228265.60
 1240.82        2968.25           2402       50322.00    221006.30
 1240.85        2968.50           2406       47943.00    210482.20
 1240.88        2968.75           2409       45676.00    200460.60
 1240.91        2969.00           2413       42339.00    185721.40
 1240.94        2969.25           2417       39205.00    171892.30
 1240.97        2969.50           2420       37078.00    162514.10
 1241.00        2969.75           2424       33866.00    148363.40
 1241.03        2970.00           2427       31736.00    138987.00
 1241.06        2970.25           2431       28375.00    124203.90
 1241.09        2970.50           2434       25980.00    113678.70
 1241.12        2970.75           2438       22613.00     98894.75
 1241.15        2971.00           2441       20328.00     88870.12
 1241.18        2971.25           2445       17077.00     74619.33
 1241.21        2971.50           2449       14147.00     61787.47
 1241.25        2971.75           2452       11943.00     52142.49
 1241.28        2972.00           2456        8705.00     37984.07
 1241.31        2972.25           2459        6323.00     27577.28
 1241.34        2972.50           2463        3336.00     14537.70
 1241.37        2972.75           2466        1690.00      7357.12
 1241.40        2973.00           2470         552.00      2394.70
 1241.43        2973.25           2473         289.00      1248.09
 1241.46        2973.50           2477         192.00       825.22
 1241.49        2973.75           2481         189.00       812.14
 1241.52        2974.00           2484         185.00       794.70
 1241.55        2974.25           2488         177.00       759.83
 1241.58        2974.50           2491         166.00       711.87
 1241.61        2974.75           2495         163.00       698.80
 1241.64        2975.00           2498         169.00       724.95
 1241.67        2975.25           2502         154.00       659.56
 1241.70        2975.50           2505         157.00       672.64
 1241.73        2975.75           2509         144.00       615.97
 1241.77        2976.00           2512         144.00       615.97
 1241.80        2976.25           2516         137.00       585.45
 1241.83        2976.50           2520         142.00       607.25
 1241.86        2976.75           2523         157.00       672.64
 1241.89        2977.00           2527         144.00       615.97
 1241.92        2977.25           2530         155.00       663.92
 1241.95        2977.50           2534         141.00       602.89
 1241.98        2977.75           2537         161.00       690.08
 1242.01        2978.00           2541         119.00       506.98
 1242.04        2978.25           2544         154.00       659.56
 1242.07        2978.50           2548         126.00       537.50
 1242.10        2978.75           2552         132.00       563.66
 1242.13        2979.00           2555         137.00       585.45
 1242.16        2979.25           2559         134.00       572.37
 1242.19        2979.50           2562         115.00       489.55
 1242.22        2979.75           2566         147.00       629.05
 1242.25        2980.00           2569         123.00       524.42
 1242.29        2980.25           2573         134.00       572.37
 1242.32        2980.50           2577         107.00       454.67
 1242.35        2980.75           2580         125.00       533.14
 1242.38        2981.00           2584         127.00       541.86
 1242.41        2981.25           2587         126.00       537.50
 1242.44        2981.50           2591         123.00       524.42
 1242.47        2981.75           2594         105.00       445.95
 1242.50        2982.00           2598         103.00       437.23
 1242.53        2982.25           2601         124.00       528.78
 1242.56        2982.50           2605         108.00       459.03
 1242.59        2982.75           2609         122.00       520.06
 1242.62        2983.00           2612         104.00       441.59
 1242.65        2983.25           2616         122.00       520.06
 1242.68        2983.50           2619         102.00       432.87
 1242.71        2983.75           2623         118.00       502.62
 1242.74        2984.00           2626          99.00       419.80
HS scan finished at 20:42:58
end
