************************************************************
  HS Scan of (1) Internal mercury lamp
************************************************************
Integration time is 0.2294 seconds per sample
dh120817Reading 51.44 .94 3.54pr1000
************************************************************
Dead Time -------------------------  3.4E-08 
Number of Cycles Used -------------  4 
Starting Wavelength (Angstroms) ---  2950 
Final Wavelength (Angstoms) -------  2984 
Wavelength Increment (Angstroms) --  .25 
Filter Wheel #1 Position ---------- (1) Ground quartz diffuser (ND=2.32)
Filter Wheel #2 Position ---------- (1) Neutral Density 0.494



************************************************************
HS scan start time = 01:17:42
Dark Count =  3.1 


Time (GMT)  Wavelength (Ang)  Step Number  Raw Counts  Counts/Second

   78.60        2950.00           2144         118.00       500.88
   78.80        2950.25           2147         145.00       618.58
   78.83        2950.50           2151         118.00       500.88
   78.86        2950.75           2155         115.00       487.80
   78.89        2951.00           2158         117.00       496.52
   78.92        2951.25           2162         127.00       540.11
   78.95        2951.50           2165         104.00       439.85
   78.98        2951.75           2169         120.00       509.60
   79.01        2952.00           2172         110.00       466.01
   79.04        2952.25           2176         130.00       553.19
   79.07        2952.50           2179         140.00       596.79
   79.10        2952.75           2183         118.00       500.88
   79.13        2953.00           2186         135.00       574.99
   79.16        2953.25           2190         138.00       588.07
   79.19        2953.50           2193         122.00       518.32
   79.22        2953.75           2197         173.00       740.65
   79.25        2954.00           2200         132.00       561.91
   79.29        2954.25           2204         168.00       718.85
   79.32        2954.50           2208         131.00       557.55
   79.35        2954.75           2211         137.00       583.71
   79.38        2955.00           2215         119.00       505.24
   79.41        2955.25           2218         133.00       566.27
   79.44        2955.50           2222         148.00       631.66
   79.47        2955.75           2225         122.00       518.32
   79.50        2956.00           2229         133.00       566.27
   79.53        2956.25           2232         160.00       683.97
   79.56        2956.50           2236         133.00       566.27
   79.59        2956.75           2239         123.00       522.68
   79.62        2957.00           2243         129.00       548.83
   79.65        2957.25           2246         126.00       535.76
   79.68        2957.50           2250         144.00       614.22
   79.71        2957.75           2254         134.00       570.63
   79.74        2958.00           2257         140.00       596.79
   79.77        2958.25           2261         140.00       596.79
   79.81        2958.50           2264         168.00       718.85
   79.84        2958.75           2268         142.00       605.51
   79.87        2959.00           2271         149.00       636.02
   79.90        2959.25           2275         140.00       596.79
   79.93        2959.50           2278         146.00       622.94
   79.96        2959.75           2282         165.00       705.77
   79.99        2960.00           2285         148.00       631.66
   80.02        2960.25           2289         161.00       688.33
   80.05        2960.50           2293         162.00       692.69
   80.08        2960.75           2296         169.00       723.21
   80.11        2961.00           2300         192.00       823.48
   80.14        2961.25           2303         290.00      1250.71
   80.17        2961.50           2307         936.00      4067.26
   80.20        2961.75           2310        2124.00      9248.33
   80.23        2962.00           2314        4290.00     18699.33
   80.26        2962.25           2317        6306.00     27501.29
   80.29        2962.50           2321        9062.00     39542.67
   80.33        2962.75           2324       11076.00     48348.38
   80.36        2963.00           2328       13772.00     60144.23
   80.39        2963.25           2331       15632.00     68287.84
   80.42        2963.50           2335       17982.00     78583.27
   80.45        2963.75           2339       20471.00     89495.54
   80.48        2964.00           2342       22399.00     97953.84
   80.51        2964.25           2346       25148.00    110022.40
   80.54        2964.50           2349       27454.00    120153.80
   80.57        2964.75           2353       30730.00    134558.90
   80.60        2965.00           2356       32431.00    142044.00
   80.63        2965.25           2360       35140.00    153972.70
   80.66        2965.50           2363       36950.00    161948.10
   80.69        2965.75           2367       39346.00    172512.40
   80.72        2966.00           2370       41318.00    181212.90
   80.75        2966.25           2374       43692.00    191693.90
   80.78        2966.50           2378       44863.00    196866.50
   80.81        2966.75           2381       45165.00    198200.80
   80.85        2967.00           2385       45224.00    198461.50
   80.88        2967.25           2388       45382.00    199159.70
   80.91        2967.50           2392       45139.00    198085.90
   80.94        2967.75           2395       45008.00    197507.10
   80.97        2968.00           2399       43598.00    191278.70
   81.00        2968.25           2402       41805.00    183362.40
   81.03        2968.50           2406       39511.00    173240.20
   81.06        2968.75           2409       37539.00    164544.40
   81.09        2969.00           2413       34997.00    153342.70
   81.12        2969.25           2417       32608.00    142823.10
   81.15        2969.50           2420       30973.00    135627.90
   81.18        2969.75           2424       28074.00    122878.90
   81.21        2970.00           2427       26030.00    113896.60
   81.24        2970.25           2431       23367.00    102202.40
   81.27        2970.50           2434       21027.00     91934.27
   81.30        2970.75           2438       18206.00     79565.00
   81.33        2971.00           2441       16453.00     71883.85
   81.37        2971.25           2445       14071.00     61453.03
   81.40        2971.50           2449       11332.00     49468.06
   81.43        2971.75           2452        9242.00     40329.45
   81.46        2972.00           2456        6651.00     29008.11
   81.49        2972.25           2459        4838.00     21091.41
   81.52        2972.50           2463        2619.00     11407.65
   81.55        2972.75           2466        1325.00      5763.55
   81.58        2973.00           2470         396.00      1712.83
   81.61        2973.25           2473         212.00       910.66
   81.64        2973.50           2477         171.00       731.93
   81.67        2973.75           2481         168.00       718.85
   81.70        2974.00           2484         168.00       718.85
   81.73        2974.25           2488         159.00       679.61
   81.76        2974.50           2491         161.00       688.33
   81.79        2974.75           2495         165.00       705.77
   81.82        2975.00           2498         149.00       636.02
   81.85        2975.25           2502         148.00       631.66
   81.89        2975.50           2505         140.00       596.79
   81.92        2975.75           2509         151.00       644.74
   81.95        2976.00           2512         132.00       561.91
   81.98        2976.25           2516         146.00       622.94
   82.01        2976.50           2520         157.00       670.90
   82.04        2976.75           2523         144.00       614.22
   82.07        2977.00           2527         131.00       557.55
   82.10        2977.25           2530         133.00       566.27
   82.13        2977.50           2534         129.00       548.83
   82.16        2977.75           2537         139.00       592.43
   82.19        2978.00           2541         123.00       522.68
   82.22        2978.25           2544         139.00       592.43
   82.25        2978.50           2548         138.00       588.07
   82.28        2978.75           2552         127.00       540.11
   82.31        2979.00           2555         109.00       461.65
   82.34        2979.25           2559         139.00       592.43
   82.37        2979.50           2562         126.00       535.76
   82.40        2979.75           2566         118.00       500.88
   82.44        2980.00           2569         120.00       509.60
   82.47        2980.25           2573         110.00       466.01
   82.50        2980.50           2577         158.00       675.26
   82.53        2980.75           2580         132.00       561.91
   82.56        2981.00           2584         109.00       461.65
   82.59        2981.25           2587         105.00       444.21
   82.62        2981.50           2591         103.00       435.49
   82.65        2981.75           2594         127.00       540.11
   82.68        2982.00           2598          99.00       418.05
   82.71        2982.25           2601         115.00       487.80
   82.74        2982.50           2605         110.00       466.01
   82.77        2982.75           2609         111.00       470.37
   82.80        2983.00           2612         103.00       435.49
   82.83        2983.25           2616         119.00       505.24
   82.86        2983.50           2619         122.00       518.32
   82.89        2983.75           2623         102.00       431.13
   82.92        2984.00           2626         103.00       435.49
HS scan finished at 01:23:09
end
************************************************************
  HS Scan of (1) Internal mercury lamp
************************************************************
Integration time is 0.2294 seconds per sample
dh120817Reading 51.44 .94 3.64pr1000
************************************************************
Dead Time -------------------------  3.4E-08 
Number of Cycles Used -------------  4 
Starting Wavelength (Angstroms) ---  2950 
Final Wavelength (Angstoms) -------  2984 
Wavelength Increment (Angstroms) --  .25 
Filter Wheel #1 Position ---------- (1) Ground quartz diffuser (ND=2.32)
Filter Wheel #2 Position ---------- (1) Neutral Density 0.494



************************************************************
HS scan start time = 20:37:20
Dark Count =  4.3 


Time (GMT)  Wavelength (Ang)  Step Number  Raw Counts  Counts/Second

 1238.23        2950.00           2144         125.00       526.16
 1238.43        2950.25           2147         126.00       530.52
 1238.46        2950.50           2151         127.00       534.88
 1238.49        2950.75           2155         165.00       700.54
 1238.52        2951.00           2158         133.00       561.04
 1238.55        2951.25           2162         128.00       539.24
 1238.58        2951.50           2165         159.00       674.38
 1238.61        2951.75           2169         155.00       656.95
 1238.64        2952.00           2172         133.00       561.04
 1238.67        2952.25           2176         138.00       582.84
 1238.70        2952.50           2179         139.00       587.20
 1238.73        2952.75           2183         128.00       539.24
 1238.76        2953.00           2186         150.00       635.15
 1238.79        2953.25           2190         154.00       652.59
 1238.82        2953.50           2193         151.00       639.51
 1238.86        2953.75           2197         160.00       678.74
 1238.89        2954.00           2200         135.00       569.76
 1238.92        2954.25           2204         153.00       648.23
 1238.95        2954.50           2208         142.00       600.27
 1238.98        2954.75           2211         138.00       582.84
 1239.01        2955.00           2215         143.00       604.63
 1239.04        2955.25           2218         146.00       617.71
 1239.07        2955.50           2222         152.00       643.87
 1239.10        2955.75           2225         145.00       613.35
 1239.13        2956.00           2229         142.00       600.27
 1239.17        2956.25           2232         151.00       639.51
 1239.20        2956.50           2236         150.00       635.15
 1239.23        2956.75           2239         157.00       665.66
 1239.26        2957.00           2243         179.00       761.57
 1239.29        2957.25           2246         147.00       622.07
 1239.32        2957.50           2250         152.00       643.87
 1239.35        2957.75           2254         149.00       630.79
 1239.38        2958.00           2257         148.00       626.43
 1239.41        2958.25           2261         151.00       639.51
 1239.44        2958.50           2264         159.00       674.38
 1239.47        2958.75           2268         160.00       678.74
 1239.50        2959.00           2271         160.00       678.74
 1239.53        2959.25           2275         169.00       717.98
 1239.57        2959.50           2278         171.00       726.70
 1239.60        2959.75           2282         188.00       800.81
 1239.63        2960.00           2285         167.00       709.26
 1239.66        2960.25           2289         176.00       748.49
 1239.69        2960.50           2293         192.00       818.24
 1239.72        2960.75           2296         201.00       857.48
 1239.75        2961.00           2300         271.00      1162.64
 1239.78        2961.25           2303         529.00      2287.45
 1239.81        2961.50           2307        1909.00      8305.31
 1239.84        2961.75           2310        3595.00     15660.91
 1239.87        2962.00           2314        6303.00     27482.95
 1239.90        2962.25           2317        8675.00     37845.97
 1239.93        2962.50           2321       11619.00     50718.16
 1239.96        2962.75           2324       13734.00     59972.64
 1239.99        2963.00           2328       17121.00     74805.10
 1240.02        2963.25           2331       19394.00     84767.50
 1240.05        2963.50           2335       22163.00     96912.96
 1240.09        2963.75           2339       24977.00    109266.10
 1240.12        2964.00           2342       27740.00    121405.50
 1240.15        2964.25           2346       30466.00    133392.20
 1240.18        2964.50           2349       32977.00    144442.20
 1240.21        2964.75           2353       36023.00    157857.60
 1240.24        2965.00           2356       38307.00    167925.10
 1240.27        2965.25           2360       40989.00    179755.70
 1240.30        2965.50           2363       43123.00    189175.80
 1240.33        2965.75           2367       46467.00    203949.50
 1240.36        2966.00           2370       48487.00    212881.00
 1240.39        2966.25           2374       50973.00    223880.40
 1240.42        2966.50           2378       52235.00    229467.30
 1240.45        2966.75           2381       52605.00    231105.70
 1240.48        2967.00           2385       52519.00    230724.80
 1240.51        2967.25           2388       52522.00    230738.10
 1240.54        2967.50           2392       52492.00    230605.30
 1240.57        2967.75           2395       52109.00    228909.40
 1240.61        2968.00           2399       50858.00    223371.40
 1240.64        2968.25           2402       49035.00    215304.90
 1240.67        2968.50           2406       46007.00    201916.30
 1240.70        2968.75           2409       44167.00    193786.60
 1240.73        2969.00           2413       41216.00    180757.40
 1240.76        2969.25           2417       38217.00    167528.30
 1240.79        2969.50           2420       36069.00    158060.30
 1240.82        2969.75           2424       32599.00    142778.20
 1240.85        2970.00           2427       30590.00    133937.70
 1240.88        2970.25           2431       27409.00    119950.70
 1240.91        2970.50           2434       24970.00    109235.40
 1240.95        2970.75           2438       22113.00     96693.56
 1240.98        2971.00           2441       19569.00     85534.79
 1241.01        2971.25           2445       16456.00     71891.73
 1241.04        2971.50           2449       13084.00     57127.86
 1241.07        2971.75           2452       10843.00     47324.12
 1241.10        2972.00           2456        8104.00     35350.66
 1241.13        2972.25           2459        5770.00     25155.34
 1241.16        2972.50           2463        2866.00     12480.01
 1241.19        2972.75           2466        1368.00      5945.84
 1241.22        2973.00           2470         434.00      1873.27
 1241.25        2973.25           2473         269.00      1153.93
 1241.28        2973.50           2477         211.00       901.07
 1241.32        2973.75           2481         189.00       805.17
 1241.35        2974.00           2484         189.00       805.17
 1241.38        2974.25           2488         187.00       796.45
 1241.41        2974.50           2491         179.00       761.57
 1241.44        2974.75           2495         169.00       717.98
 1241.47        2975.00           2498         186.00       792.09
 1241.50        2975.25           2502         171.00       726.70
 1241.53        2975.50           2505         165.00       700.54
 1241.57        2975.75           2509         170.00       722.34
 1241.60        2976.00           2512         173.00       735.42
 1241.63        2976.25           2516         165.00       700.54
 1241.66        2976.50           2520         177.00       752.85
 1241.69        2976.75           2523         173.00       735.42
 1241.72        2977.00           2527         154.00       652.59
 1241.75        2977.25           2530         154.00       652.59
 1241.78        2977.50           2534         151.00       639.51
 1241.81        2977.75           2537         149.00       630.79
 1241.84        2978.00           2541         142.00       600.27
 1241.87        2978.25           2544         149.00       630.79
 1241.90        2978.50           2548         141.00       595.91
 1241.93        2978.75           2552         155.00       656.95
 1241.96        2979.00           2555         148.00       626.43
 1241.99        2979.25           2559         150.00       635.15
 1242.03        2979.50           2562         140.00       591.56
 1242.06        2979.75           2566         152.00       643.87
 1242.09        2980.00           2569         131.00       552.32
 1242.12        2980.25           2573         148.00       626.43
 1242.15        2980.50           2577         133.00       561.04
 1242.18        2980.75           2580         139.00       587.20
 1242.21        2981.00           2584         157.00       665.66
 1242.24        2981.25           2587         138.00       582.84
 1242.27        2981.50           2591         166.00       704.90
 1242.30        2981.75           2594         147.00       622.07
 1242.33        2982.00           2598         139.00       587.20
 1242.36        2982.25           2601         150.00       635.15
 1242.39        2982.50           2605         148.00       626.43
 1242.42        2982.75           2609         143.00       604.63
 1242.45        2983.00           2612         127.00       534.88
 1242.48        2983.25           2616         140.00       591.56
 1242.51        2983.50           2619         147.00       622.07
 1242.55        2983.75           2623         131.00       552.32
 1242.58        2984.00           2626         125.00       526.16
HS scan finished at 20:42:48
end
