************************************************************
  HS Scan of (1) Internal mercury lamp
************************************************************
Integration time is 0.2294 seconds per sample
dh130818Reading 51.44 .94 3.5pr1000
************************************************************
Dead Time -------------------------  3.4E-08 
Number of Cycles Used -------------  4 
Starting Wavelength (Angstroms) ---  2950 
Final Wavelength (Angstoms) -------  2984 
Wavelength Increment (Angstroms) --  .25 
Filter Wheel #1 Position ---------- (1) Ground quartz diffuser (ND=2.32)
Filter Wheel #2 Position ---------- (1) Neutral Density 0.494



************************************************************
HS scan start time = 01:21:01
Dark Count =  2.5 


Time (GMT)  Wavelength (Ang)  Step Number  Raw Counts  Counts/Second

   81.92        2950.00           2144         124.00       529.65
   82.11        2950.25           2147         136.00       581.96
   82.14        2950.50           2151         117.00       499.14
   82.17        2950.75           2155         139.00       595.04
   82.20        2951.00           2158         122.00       520.93
   82.23        2951.25           2162         150.00       643.00
   82.27        2951.50           2165         154.00       660.43
   82.30        2951.75           2169         144.00       616.84
   82.33        2952.00           2172         140.00       599.40
   82.36        2952.25           2176         128.00       547.09
   82.39        2952.50           2179         166.00       712.75
   82.42        2952.75           2183         142.00       608.12
   82.45        2953.00           2186         137.00       586.32
   82.48        2953.25           2190         129.00       551.45
   82.51        2953.50           2193         134.00       573.25
   82.54        2953.75           2197         156.00       669.15
   82.57        2954.00           2200         133.00       568.89
   82.60        2954.25           2204         135.00       577.61
   82.63        2954.50           2208         139.00       595.04
   82.66        2954.75           2211         128.00       547.09
   82.69        2955.00           2215         154.00       660.43
   82.72        2955.25           2218         142.00       608.12
   82.75        2955.50           2222         133.00       568.89
   82.79        2955.75           2225         170.00       730.18
   82.82        2956.00           2229         168.00       721.46
   82.85        2956.25           2232         141.00       603.76
   82.88        2956.50           2236         142.00       608.12
   82.91        2956.75           2239         144.00       616.84
   82.94        2957.00           2243         154.00       660.43
   82.97        2957.25           2246         151.00       647.36
   83.00        2957.50           2250         154.00       660.43
   83.03        2957.75           2254         166.00       712.75
   83.06        2958.00           2257         149.00       638.64
   83.09        2958.25           2261         148.00       634.28
   83.12        2958.50           2264         159.00       682.23
   83.15        2958.75           2268         156.00       669.15
   83.18        2959.00           2271         164.00       704.03
   83.21        2959.25           2275         162.00       695.31
   83.24        2959.50           2278         173.00       743.26
   83.27        2959.75           2282         166.00       712.75
   83.31        2960.00           2285         181.00       778.14
   83.34        2960.25           2289         185.00       795.58
   83.37        2960.50           2293         190.00       817.37
   83.40        2960.75           2296         202.00       869.69
   83.43        2961.00           2300         268.00      1157.41
   83.46        2961.25           2303         586.00      2543.81
   83.49        2961.50           2307        2056.00      8954.34
   83.52        2961.75           2310        4082.00     17794.11
   83.55        2962.00           2314        7289.00     31797.66
   83.58        2962.25           2317        9799.00     42767.03
   83.61        2962.50           2321       13397.00     58505.54
   83.64        2962.75           2324       16078.00     70243.85
   83.67        2963.00           2328       19960.00     87257.18
   83.70        2963.25           2331       22939.00    100326.40
   83.73        2963.50           2335       26653.00    116636.40
   83.76        2963.75           2339       30273.00    132551.10
   83.79        2964.00           2342       32838.00    143838.20
   83.82        2964.25           2346       37035.00    162325.40
   83.86        2964.50           2349       39750.00    174297.10
   83.89        2964.75           2353       43519.00    190932.50
   83.92        2965.00           2356       46380.00    203572.90
   83.95        2965.25           2360       49588.00    217759.30
   83.98        2965.50           2363       51853.00    227783.90
   84.01        2965.75           2367       55171.00    242481.30
   84.04        2966.00           2370       58287.00    256297.40
   84.07        2966.25           2374       61511.00    270606.00
   84.10        2966.50           2378       63335.00    278707.50
   84.13        2966.75           2381       63694.00    280302.60
   84.16        2967.00           2385       63832.00    280915.80
   84.19        2967.25           2388       63742.00    280515.80
   84.22        2967.50           2392       63883.00    281142.40
   84.25        2967.75           2395       63772.00    280649.10
   84.28        2968.00           2399       62369.00    274416.40
   84.31        2968.25           2402       59977.00    263796.10
   84.34        2968.50           2406       56366.00    247778.30
   84.38        2968.75           2409       54067.00    237589.40
   84.41        2969.00           2413       50226.00    220582.30
   84.44        2969.25           2417       46843.00    205619.50
   84.47        2969.50           2420       44151.00    193723.90
   84.50        2969.75           2424       40228.00    176405.80
   84.53        2970.00           2427       37369.00    163797.60
   84.56        2970.25           2431       33172.00    145308.50
   84.59        2970.50           2434       30221.00    132322.40
   84.62        2970.75           2438       26431.00    115661.00
   84.65        2971.00           2441       23517.00    102863.50
   84.68        2971.25           2445       19657.00     85928.54
   84.71        2971.50           2449       15770.00     68894.85
   84.74        2971.75           2452       12609.00     55057.20
   84.77        2972.00           2456        8955.00     39077.61
   84.80        2972.25           2459        6468.00     28211.44
   84.83        2972.50           2463        3536.00     15411.30
   84.86        2972.75           2466        1787.00      7781.05
   84.90        2973.00           2470         561.00      2434.81
   84.93        2973.25           2473         307.00      1327.44
   84.96        2973.50           2477         222.00       956.88
   84.99        2973.75           2481         203.00       874.05
   85.02        2974.00           2484         203.00       874.05
   85.05        2974.25           2488         200.00       860.97
   85.08        2974.50           2491         184.00       791.22
   85.11        2974.75           2495         178.00       765.06
   85.14        2975.00           2498         171.00       734.54
   85.17        2975.25           2502         177.00       760.70
   85.20        2975.50           2505         167.00       717.11
   85.23        2975.75           2509         160.00       686.59
   85.26        2976.00           2512         156.00       669.15
   85.29        2976.25           2516         172.00       738.90
   85.32        2976.50           2520         164.00       704.03
   85.35        2976.75           2523         154.00       660.43
   85.38        2977.00           2527         162.00       695.31
   85.42        2977.25           2530         155.00       664.79
   85.45        2977.50           2534         158.00       677.87
   85.48        2977.75           2537         149.00       638.64
   85.51        2978.00           2541         130.00       555.81
   85.54        2978.25           2544         158.00       677.87
   85.57        2978.50           2548         160.00       686.59
   85.60        2978.75           2552         130.00       555.81
   85.63        2979.00           2555         135.00       577.61
   85.66        2979.25           2559         140.00       599.40
   85.69        2979.50           2562         127.00       542.73
   85.72        2979.75           2566         151.00       647.36
   85.75        2980.00           2569         149.00       638.64
   85.78        2980.25           2573         145.00       621.20
   85.81        2980.50           2577         126.00       538.37
   85.84        2980.75           2580         118.00       503.50
   85.87        2981.00           2584         134.00       573.25
   85.90        2981.25           2587         119.00       507.86
   85.94        2981.50           2591         139.00       595.04
   85.97        2981.75           2594         134.00       573.25
   86.00        2982.00           2598         127.00       542.73
   86.03        2982.25           2601         121.00       516.57
   86.06        2982.50           2605         110.00       468.62
   86.09        2982.75           2609         137.00       586.32
   86.12        2983.00           2612         142.00       608.12
   86.15        2983.25           2616         125.00       534.01
   86.18        2983.50           2619         111.00       472.98
   86.21        2983.75           2623         124.00       529.65
   86.24        2984.00           2626         147.00       629.92
HS scan finished at 01:26:28
end
