************************************************************
  HS Scan of (1) Internal mercury lamp
************************************************************
Integration time is 0.2294 seconds per sample
dh150817Reading 51.44 .94 3.62pr1000
************************************************************
Dead Time -------------------------  3.4E-08 
Number of Cycles Used -------------  4 
Starting Wavelength (Angstroms) ---  2950 
Final Wavelength (Angstoms) -------  2984 
Wavelength Increment (Angstroms) --  .25 
Filter Wheel #1 Position ---------- (1) Ground quartz diffuser (ND=2.32)
Filter Wheel #2 Position ---------- (1) Neutral Density 0.494



************************************************************
HS scan start time = 02:40:14
Dark Count =  3.8 


Time (GMT)  Wavelength (Ang)  Step Number  Raw Counts  Counts/Second

  161.13        2950.00           2144          97.00       406.28
  161.33        2950.25           2147          98.00       410.64
  161.36        2950.50           2151          97.00       406.28
  161.39        2950.75           2155         101.00       423.72
  161.42        2951.00           2158          93.00       388.85
  161.45        2951.25           2162          95.00       397.56
  161.48        2951.50           2165          90.00       375.77
  161.51        2951.75           2169          89.00       371.41
  161.54        2952.00           2172          96.00       401.92
  161.57        2952.25           2176         104.00       436.80
  161.60        2952.50           2179          96.00       401.92
  161.63        2952.75           2183          86.00       358.33
  161.66        2953.00           2186          97.00       406.28
  161.69        2953.25           2190          95.00       397.56
  161.73        2953.50           2193          93.00       388.85
  161.76        2953.75           2197         100.00       419.36
  161.79        2954.00           2200          94.00       393.20
  161.82        2954.25           2204          96.00       401.92
  161.85        2954.50           2208          90.00       375.77
  161.88        2954.75           2211          90.00       375.77
  161.91        2955.00           2215          94.00       393.20
  161.94        2955.25           2218          92.00       384.49
  161.97        2955.50           2222         117.00       493.47
  162.00        2955.75           2225         118.00       497.83
  162.03        2956.00           2229         104.00       436.80
  162.06        2956.25           2232         123.00       519.63
  162.09        2956.50           2236         123.00       519.63
  162.12        2956.75           2239         106.00       445.52
  162.15        2957.00           2243         148.00       628.61
  162.18        2957.25           2246         109.00       458.59
  162.21        2957.50           2250         142.00       602.45
  162.24        2957.75           2254         109.00       458.59
  162.28        2958.00           2257         111.00       467.31
  162.31        2958.25           2261         116.00       489.11
  162.34        2958.50           2264         104.00       436.80
  162.37        2958.75           2268         133.00       563.22
  162.40        2959.00           2271         134.00       567.58
  162.43        2959.25           2275         144.00       611.17
  162.46        2959.50           2278         157.00       667.84
  162.49        2959.75           2282         170.00       724.52
  162.52        2960.00           2285         124.00       523.98
  162.55        2960.25           2289         125.00       528.34
  162.58        2960.50           2293         156.00       663.48
  162.61        2960.75           2296         144.00       611.17
  162.64        2961.00           2300         173.00       737.59
  162.67        2961.25           2303         424.00      1831.85
  162.70        2961.50           2307        1611.00      7007.77
  162.73        2961.75           2310        3029.00     13193.36
  162.76        2962.00           2314        4891.00     21319.72
  162.80        2962.25           2317        6432.00     28048.53
  162.83        2962.50           2321        8372.00     36523.97
  162.86        2962.75           2324        9873.00     43084.87
  162.89        2963.00           2328       11821.00     51603.98
  162.92        2963.25           2331       13272.00     57952.79
  162.95        2963.50           2335       15684.00     68512.51
  162.98        2963.75           2339       18088.00     79044.75
  163.01        2964.00           2342       19511.00     85282.68
  163.04        2964.25           2346       21598.00     94436.12
  163.07        2964.50           2349       22933.00    100294.30
  163.10        2964.75           2353       25082.00    109729.50
  163.13        2965.00           2356       26733.00    116982.20
  163.16        2965.25           2360       29106.00    127413.00
  163.19        2965.50           2363       30203.00    132237.50
  163.22        2965.75           2367       32302.00    141473.10
  163.25        2966.00           2370       33821.00    148160.40
  163.28        2966.25           2374       35502.00    155564.30
  163.32        2966.50           2378       36824.00    161389.70
  163.35        2966.75           2381       36881.00    161640.90
  163.38        2967.00           2385       36795.00    161261.90
  163.41        2967.25           2388       36690.00    160799.10
  163.44        2967.50           2392       36758.00    161098.80
  163.47        2967.75           2395       36556.00    160208.60
  163.50        2968.00           2399       35385.00    155048.90
  163.53        2968.25           2402       33940.00    148684.40
  163.56        2968.50           2406       32173.00    140905.30
  163.59        2968.75           2409       30562.00    133816.70
  163.62        2969.00           2413       28025.00    122660.40
  163.65        2969.25           2417       25785.00    112817.30
  163.68        2969.50           2420       24603.00    107625.90
  163.71        2969.75           2424       22379.00     97863.00
  163.74        2970.00           2427       20923.00     91474.99
  163.77        2970.25           2431       18450.00     80631.38
  163.81        2970.50           2434       16623.00     72625.50
  163.84        2970.75           2438       14390.00     62846.45
  163.87        2971.00           2441       12908.00     56359.86
  163.90        2971.25           2445       10912.00     47628.07
  163.93        2971.50           2449        8698.00     37948.67
  163.96        2971.75           2452        7383.00     32202.64
  163.99        2972.00           2456        5348.00     23314.90
  164.02        2972.25           2459        3692.00     16086.39
  164.05        2972.50           2463        1727.00      7513.69
  164.08        2972.75           2466         762.00      3305.52
  164.11        2973.00           2470         259.00      1112.51
  164.14        2973.25           2473         161.00       685.28
  164.17        2973.50           2477         160.00       680.92
  164.20        2973.75           2481         138.00       585.02
  164.23        2974.00           2484         140.00       593.73
  164.26        2974.25           2488         130.00       550.14
  164.29        2974.50           2491         131.00       554.50
  164.33        2974.75           2495         139.00       589.38
  164.36        2975.00           2498         143.00       606.81
  164.39        2975.25           2502         139.00       589.38
  164.42        2975.50           2505         168.00       715.80
  164.45        2975.75           2509         116.00       489.11
  164.48        2976.00           2512         120.00       506.55
  164.51        2976.25           2516         126.00       532.70
  164.54        2976.50           2520         126.00       532.70
  164.57        2976.75           2523         151.00       641.69
  164.60        2977.00           2527         107.00       449.88
  164.63        2977.25           2530         105.00       441.16
  164.66        2977.50           2534         119.00       502.19
  164.69        2977.75           2537         106.00       445.52
  164.72        2978.00           2541         102.00       428.08
  164.75        2978.25           2544         125.00       528.34
  164.78        2978.50           2548         122.00       515.27
  164.81        2978.75           2552          98.00       410.64
  164.85        2979.00           2555         102.00       428.08
  164.88        2979.25           2559          94.00       393.20
  164.91        2979.50           2562         101.00       423.72
  164.94        2979.75           2566         103.00       432.44
  164.97        2980.00           2569          91.00       380.13
  165.00        2980.25           2573         102.00       428.08
  165.03        2980.50           2577          90.00       375.77
  165.06        2980.75           2580         101.00       423.72
  165.09        2981.00           2584          90.00       375.77
  165.12        2981.25           2587          94.00       393.20
  165.15        2981.50           2591          89.00       371.41
  165.18        2981.75           2594          97.00       406.28
  165.21        2982.00           2598         106.00       445.52
  165.24        2982.25           2601          91.00       380.13
  165.27        2982.50           2605          92.00       384.49
  165.30        2982.75           2609          92.00       384.49
  165.33        2983.00           2612          98.00       410.64
  165.36        2983.25           2616         102.00       428.08
  165.40        2983.50           2619          86.00       358.33
  165.43        2983.75           2623         106.00       445.52
  165.46        2984.00           2626          82.00       340.89
HS scan finished at 02:45:41
end
************************************************************
  HS Scan of (1) Internal mercury lamp
************************************************************
Integration time is 0.2294 seconds per sample
dh150817Reading 51.44 .94 3.72pr1000
************************************************************
Dead Time -------------------------  3.4E-08 
Number of Cycles Used -------------  4 
Starting Wavelength (Angstroms) ---  2950 
Final Wavelength (Angstoms) -------  2984 
Wavelength Increment (Angstroms) --  .25 
Filter Wheel #1 Position ---------- (1) Ground quartz diffuser (ND=2.32)
Filter Wheel #2 Position ---------- (1) Neutral Density 0.494



************************************************************
HS scan start time = 20:07:24
Dark Count =  6.1 


Time (GMT)  Wavelength (Ang)  Step Number  Raw Counts  Counts/Second

 1208.30        2950.00           2144         142.00       592.43
 1208.49        2950.25           2147         140.00       583.71
 1208.52        2950.50           2151         170.00       714.49
 1208.55        2950.75           2155         158.00       662.18
 1208.58        2951.00           2158         152.00       636.02
 1208.61        2951.25           2162         135.00       561.91
 1208.64        2951.50           2165         150.00       627.30
 1208.67        2951.75           2169         129.00       535.76
 1208.70        2952.00           2172         142.00       592.43
 1208.73        2952.25           2176         145.00       605.51
 1208.76        2952.50           2179         161.00       675.26
 1208.79        2952.75           2183         140.00       583.71
 1208.82        2953.00           2186         133.00       553.19
 1208.86        2953.25           2190         161.00       675.26
 1208.89        2953.50           2193         129.00       535.76
 1208.92        2953.75           2197         140.00       583.71
 1208.95        2954.00           2200         142.00       592.43
 1208.98        2954.25           2204         153.00       640.38
 1209.01        2954.50           2208         149.00       622.94
 1209.04        2954.75           2211         168.00       705.77
 1209.07        2955.00           2215         146.00       609.86
 1209.10        2955.25           2218         143.00       596.79
 1209.13        2955.50           2222         163.00       683.97
 1209.16        2955.75           2225         137.00       570.63
 1209.19        2956.00           2229         146.00       609.86
 1209.22        2956.25           2232         151.00       631.66
 1209.25        2956.50           2236         187.00       788.60
 1209.28        2956.75           2239         151.00       631.66
 1209.31        2957.00           2243         158.00       662.18
 1209.34        2957.25           2246         158.00       662.18
 1209.38        2957.50           2250         157.00       657.82
 1209.41        2957.75           2254         166.00       697.05
 1209.44        2958.00           2257         162.00       679.61
 1209.47        2958.25           2261         166.00       697.05
 1209.50        2958.50           2264         171.00       718.85
 1209.53        2958.75           2268         171.00       718.85
 1209.56        2959.00           2271         164.00       688.33
 1209.59        2959.25           2275         182.00       766.80
 1209.62        2959.50           2278         166.00       697.05
 1209.65        2959.75           2282         164.00       688.33
 1209.68        2960.00           2285         192.00       810.40
 1209.71        2960.25           2289         193.00       814.76
 1209.74        2960.50           2293         203.00       858.35
 1209.77        2960.75           2296         195.00       823.48
 1209.80        2961.00           2300         255.00      1085.04
 1209.83        2961.25           2303         455.00      1956.97
 1209.86        2961.50           2307        1579.00      6858.18
 1209.90        2961.75           2310        3248.00     14138.88
 1209.93        2962.00           2314        6015.00     26217.35
 1209.96        2962.25           2317        8424.00     36741.17
 1209.99        2962.50           2321       11784.00     51432.06
 1210.02        2962.75           2324       14073.00     61448.65
 1210.05        2963.00           2328       17024.00     74372.23
 1210.08        2963.25           2331       19295.00     84325.55
 1210.11        2963.50           2335       22474.00     98269.81
 1210.14        2963.75           2339       26038.00    113918.60
 1210.17        2964.00           2342       28660.00    125441.90
 1210.20        2964.25           2346       31930.00    139825.80
 1210.23        2964.50           2349       34124.00    149484.50
 1210.26        2964.75           2353       37298.00    163468.80
 1210.29        2965.00           2356       39760.00    174325.30
 1210.32        2965.25           2360       42362.00    185807.90
 1210.35        2965.50           2363       45088.00    197847.40
 1210.38        2965.75           2367       48360.00    212311.30
 1210.42        2966.00           2370       50508.00    221814.30
 1210.45        2966.25           2374       53028.00    232971.00
 1210.48        2966.50           2378       54230.00    238295.60
 1210.51        2966.75           2381       54888.00    241211.20
 1210.54        2967.00           2385       54823.00    240923.20
 1210.57        2967.25           2388       54967.00    241561.30
 1210.60        2967.50           2392       54887.00    241206.80
 1210.63        2967.75           2395       54598.00    239926.10
 1210.66        2968.00           2399       53179.00    233639.80
 1210.69        2968.25           2402       51475.00    226094.50
 1210.72        2968.50           2406       48742.00    214000.90
 1210.75        2968.75           2409       46735.00    205126.10
 1210.78        2969.00           2413       43509.00    190872.40
 1210.81        2969.25           2417       40300.00    176707.60
 1210.84        2969.50           2420       38056.00    166810.50
 1210.87        2969.75           2424       35072.00    153659.90
 1210.90        2970.00           2427       32607.00    142805.50
 1210.94        2970.25           2431       29429.00    128823.30
 1210.97        2970.50           2434       27287.00    119406.60
 1211.00        2970.75           2438       23857.00    104340.30
 1211.03        2971.00           2441       20909.00     91403.50
 1211.06        2971.25           2445       17679.00     77242.26
 1211.09        2971.50           2449       14398.00     62871.40
 1211.12        2971.75           2452       12290.00     53645.71
 1211.15        2972.00           2456        9340.00     40744.73
 1211.18        2972.25           2459        7079.00     30864.55
 1211.21        2972.50           2463        4056.00     17664.92
 1211.24        2972.75           2466        2055.00      8934.27
 1211.27        2973.00           2470         592.00      2554.28
 1211.30        2973.25           2473         280.00      1194.03
 1211.33        2973.50           2477         231.00       980.42
 1211.36        2973.75           2481         213.00       901.95
 1211.39        2974.00           2484         208.00       880.15
 1211.42        2974.25           2488         201.00       849.63
 1211.46        2974.50           2491         202.00       853.99
 1211.49        2974.75           2495         195.00       823.48
 1211.52        2975.00           2498         185.00       779.88
 1211.55        2975.25           2502         179.00       753.72
 1211.58        2975.50           2505         190.00       801.68
 1211.61        2975.75           2509         174.00       731.93
 1211.64        2976.00           2512         161.00       675.26
 1211.67        2976.25           2516         175.00       736.29
 1211.70        2976.50           2520         171.00       718.85
 1211.73        2976.75           2523         171.00       718.85
 1211.76        2977.00           2527         165.00       692.69
 1211.79        2977.25           2530         158.00       662.18
 1211.82        2977.50           2534         182.00       766.80
 1211.85        2977.75           2537         155.00       649.10
 1211.88        2978.00           2541         167.00       701.41
 1211.91        2978.25           2544         168.00       705.77
 1211.94        2978.50           2548         165.00       692.69
 1211.97        2978.75           2552         147.00       614.22
 1212.01        2979.00           2555         146.00       609.86
 1212.04        2979.25           2559         165.00       692.69
 1212.07        2979.50           2562         149.00       622.94
 1212.10        2979.75           2566         147.00       614.22
 1212.13        2980.00           2569         161.00       675.26
 1212.16        2980.25           2573         140.00       583.71
 1212.19        2980.50           2577         146.00       609.86
 1212.22        2980.75           2580         144.00       601.15
 1212.25        2981.00           2584         171.00       718.85
 1212.28        2981.25           2587         149.00       622.94
 1212.31        2981.50           2591         150.00       627.30
 1212.34        2981.75           2594         143.00       596.79
 1212.37        2982.00           2598         137.00       570.63
 1212.40        2982.25           2601         159.00       666.54
 1212.43        2982.50           2605         169.00       710.13
 1212.46        2982.75           2609         124.00       513.96
 1212.50        2983.00           2612         130.00       540.11
 1212.53        2983.25           2616         140.00       583.71
 1212.56        2983.50           2619         171.00       718.85
 1212.59        2983.75           2623         136.00       566.27
 1212.62        2984.00           2626         154.00       644.74
HS scan finished at 20:12:50
end
