************************************************************
  HS Scan of (1) Internal mercury lamp
************************************************************
Integration time is 0.2294 seconds per sample
dh160818Reading 51.44 .94 3.68pr1000
************************************************************
Dead Time -------------------------  3.4E-08 
Number of Cycles Used -------------  4 
Starting Wavelength (Angstroms) ---  2950 
Final Wavelength (Angstoms) -------  2984 
Wavelength Increment (Angstroms) --  .25 
Filter Wheel #1 Position ---------- (1) Ground quartz diffuser (ND=2.32)
Filter Wheel #2 Position ---------- (1) Neutral Density 0.494



************************************************************
HS scan start time = 01:34:17
Dark Count =  3.7 


Time (GMT)  Wavelength (Ang)  Step Number  Raw Counts  Counts/Second

   95.18        2950.00           2144          62.00       254.14
   95.38        2950.25           2147          67.00       275.94
   95.41        2950.50           2151          62.00       254.14
   95.44        2950.75           2155          67.00       275.94
   95.47        2951.00           2158          70.00       289.02
   95.50        2951.25           2162          67.00       275.94
   95.53        2951.50           2165          66.00       271.58
   95.56        2951.75           2169          65.00       267.22
   95.59        2952.00           2172          69.00       284.66
   95.62        2952.25           2176          73.00       302.10
   95.65        2952.50           2179          66.00       271.58
   95.68        2952.75           2183          63.00       258.50
   95.71        2953.00           2186          69.00       284.66
   95.74        2953.25           2190          68.00       280.30
   95.78        2953.50           2193          72.00       297.74
   95.81        2953.75           2197          67.00       275.94
   95.84        2954.00           2200          69.00       284.66
   95.87        2954.25           2204          65.00       267.22
   95.90        2954.50           2208          67.00       275.94
   95.93        2954.75           2211          69.00       284.66
   95.96        2955.00           2215          72.00       297.74
   95.99        2955.25           2218          77.00       319.53
   96.02        2955.50           2222          76.00       315.17
   96.05        2955.75           2225          74.00       306.45
   96.08        2956.00           2229          72.00       297.74
   96.11        2956.25           2232          82.00       341.33
   96.14        2956.50           2236          87.00       363.13
   96.17        2956.75           2239          74.00       306.45
   96.20        2957.00           2243          71.00       293.38
   96.23        2957.25           2246          83.00       345.69
   96.26        2957.50           2250          86.00       358.77
   96.30        2957.75           2254          81.00       336.97
   96.33        2958.00           2257          82.00       341.33
   96.36        2958.25           2261          80.00       332.61
   96.39        2958.50           2264          90.00       376.20
   96.42        2958.75           2268          90.00       376.20
   96.45        2959.00           2271          91.00       380.56
   96.48        2959.25           2275          87.00       363.13
   96.52        2959.50           2278          97.00       406.72
   96.55        2959.75           2282          90.00       376.20
   96.58        2960.00           2285          95.00       398.00
   96.61        2960.25           2289         100.00       419.80
   96.64        2960.50           2293         103.00       432.87
   96.67        2960.75           2296         111.00       467.75
   96.70        2961.00           2300         176.00       751.11
   96.73        2961.25           2303         442.00      1910.76
   96.76        2961.50           2307        1420.00      6175.23
   96.79        2961.75           2310        2383.00     10375.50
   96.82        2962.00           2314        3864.00     16837.45
   96.85        2962.25           2317        5149.00     22446.51
   96.88        2962.50           2321        6868.00     29953.33
   96.91        2962.75           2324        8263.00     36048.08
   96.94        2963.00           2328       10012.00     43693.02
   96.97        2963.25           2331       11278.00     49229.24
   97.00        2963.50           2335       12954.00     56561.60
   97.04        2963.75           2339       14789.00     64593.76
   97.07        2964.00           2342       16173.00     70654.71
   97.10        2964.25           2346       17920.00     78308.93
   97.13        2964.50           2349       19457.00     85046.34
   97.16        2964.75           2353       21373.00     93449.46
   97.19        2965.00           2356       22727.00     99390.66
   97.22        2965.25           2360       24699.00    108047.90
   97.25        2965.50           2363       26137.00    114364.10
   97.28        2965.75           2367       27952.00    122340.00
   97.31        2966.00           2370       29123.00    127488.20
   97.34        2966.25           2374       30222.00    132321.50
   97.37        2966.50           2378       30404.00    133122.10
   97.40        2966.75           2381       31843.00    139453.50
   97.43        2967.00           2385       32277.00    141363.50
   97.46        2967.25           2388       32287.00    141407.50
   97.49        2967.50           2392       32405.00    141926.90
   97.52        2967.75           2395       31675.00    138714.10
   97.56        2968.00           2399       30215.00    132290.70
   97.59        2968.25           2402       29129.00    127514.60
   97.62        2968.50           2406       27647.00    120999.40
   97.65        2968.75           2409       26518.00    116038.00
   97.68        2969.00           2413       24714.00    108113.80
   97.71        2969.25           2417       23360.00    102169.00
   97.74        2969.50           2420       22083.00     96564.57
   97.77        2969.75           2424       19946.00     87190.53
   97.80        2970.00           2427       18499.00     80846.60
   97.83        2970.25           2431       16733.00     73107.83
   97.86        2970.50           2434       15472.00     67584.50
   97.89        2970.75           2438       13532.00     59091.14
   97.92        2971.00           2441       12302.00     53708.71
   97.95        2971.25           2445       10039.00     43811.07
   97.98        2971.50           2449        7848.00     34234.68
   98.01        2971.75           2452        6311.00     27520.51
   98.04        2972.00           2456        4434.00     19325.25
   98.08        2972.25           2459        3075.00     13394.50
   98.11        2972.50           2463        1542.00      6707.28
   98.14        2972.75           2466         740.00      3210.03
   98.17        2973.00           2470         266.00      1143.46
   98.20        2973.25           2473         148.00       629.05
   98.23        2973.50           2477         139.00       589.81
   98.26        2973.75           2481         127.00       537.50
   98.29        2974.00           2484         128.00       541.86
   98.32        2974.25           2488         125.00       528.78
   98.35        2974.50           2491         154.00       655.20
   98.38        2974.75           2495         126.00       533.14
   98.41        2975.00           2498         129.00       546.22
   98.44        2975.25           2502         137.00       581.09
   98.47        2975.50           2505         146.00       620.33
   98.50        2975.75           2509         124.00       524.42
   98.53        2976.00           2512         106.00       445.95
   98.56        2976.25           2516         105.00       441.59
   98.60        2976.50           2520         128.00       541.86
   98.63        2976.75           2523         134.00       568.01
   98.66        2977.00           2527         122.00       515.70
   98.69        2977.25           2530          97.00       406.72
   98.72        2977.50           2534         102.00       428.52
   98.75        2977.75           2537         141.00       598.53
   98.78        2978.00           2541          99.00       415.44
   98.81        2978.25           2544         116.00       489.55
   98.84        2978.50           2548          97.00       406.72
   98.87        2978.75           2552         105.00       441.59
   98.90        2979.00           2555          98.00       411.08
   98.93        2979.25           2559         111.00       467.75
   98.96        2979.50           2562         119.00       502.62
   98.99        2979.75           2566          98.00       411.08
   99.02        2980.00           2569          97.00       406.72
   99.05        2980.25           2573         114.00       480.83
   99.09        2980.50           2577         141.00       598.53
   99.12        2980.75           2580         107.00       450.31
   99.15        2981.00           2584          91.00       380.56
   99.18        2981.25           2587          95.00       398.00
   99.22        2981.50           2591         112.00       472.11
   99.25        2981.75           2594          93.00       389.28
   99.28        2982.00           2598          91.00       380.56
   99.31        2982.25           2601         109.00       459.03
   99.34        2982.50           2605          90.00       376.20
   99.38        2982.75           2609          84.00       350.05
   99.41        2983.00           2612          92.00       384.92
   99.44        2983.25           2616          99.00       415.44
   99.47        2983.50           2619          89.00       371.84
   99.50        2983.75           2623          84.00       350.05
   99.53        2984.00           2626          99.00       415.44
HS scan finished at 01:39:45
end
************************************************************
  HS Scan of (1) Internal mercury lamp
************************************************************
Integration time is 0.2294 seconds per sample
dh160818Reading 51.44 .94 3.62pr1000
************************************************************
Dead Time -------------------------  3.4E-08 
Number of Cycles Used -------------  4 
Starting Wavelength (Angstroms) ---  2950 
Final Wavelength (Angstoms) -------  2984 
Wavelength Increment (Angstroms) --  .25 
Filter Wheel #1 Position ---------- (1) Ground quartz diffuser (ND=2.32)
Filter Wheel #2 Position ---------- (1) Neutral Density 0.494



************************************************************
HS scan start time = 20:07:26
Dark Count =  4.1 


Time (GMT)  Wavelength (Ang)  Step Number  Raw Counts  Counts/Second

 1208.34        2950.00           2144          37.00       143.42
 1208.53        2950.25           2147          47.00       187.01
 1208.56        2950.50           2151          44.00       173.93
 1208.59        2950.75           2155          50.00       200.09
 1208.62        2951.00           2158          43.00       169.57
 1208.66        2951.25           2162          43.00       169.57
 1208.69        2951.50           2165          45.00       178.29
 1208.72        2951.75           2169          44.00       173.93
 1208.75        2952.00           2172          44.00       173.93
 1208.78        2952.25           2176          44.00       173.93
 1208.81        2952.50           2179          50.00       200.09
 1208.84        2952.75           2183          49.00       195.73
 1208.87        2953.00           2186          49.00       195.73
 1208.90        2953.25           2190          49.00       195.73
 1208.94        2953.50           2193          55.00       221.88
 1208.98        2953.75           2197          50.00       200.09
 1209.01        2954.00           2200          53.00       213.17
 1209.04        2954.25           2204          49.00       195.73
 1209.07        2954.50           2208          47.00       187.01
 1209.10        2954.75           2211          45.00       178.29
 1209.13        2955.00           2215          54.00       217.53
 1209.16        2955.25           2218          45.00       178.29
 1209.19        2955.50           2222          56.00       226.24
 1209.22        2955.75           2225          50.00       200.09
 1209.25        2956.00           2229          52.00       208.81
 1209.28        2956.25           2232          50.00       200.09
 1209.31        2956.50           2236          51.00       204.45
 1209.34        2956.75           2239          49.00       195.73
 1209.37        2957.00           2243          50.00       200.09
 1209.40        2957.25           2246          54.00       217.53
 1209.44        2957.50           2250          60.00       243.68
 1209.47        2957.75           2254          49.00       195.73
 1209.50        2958.00           2257          50.00       200.09
 1209.53        2958.25           2261          52.00       208.81
 1209.56        2958.50           2264          61.00       248.04
 1209.59        2958.75           2268          50.00       200.09
 1209.62        2959.00           2271          55.00       221.88
 1209.65        2959.25           2275          63.00       256.76
 1209.68        2959.50           2278          58.00       234.96
 1209.71        2959.75           2282          62.00       252.40
 1209.74        2960.00           2285          53.00       213.17
 1209.77        2960.25           2289          54.00       217.53
 1209.80        2960.50           2293          70.00       287.27
 1209.83        2960.75           2296          59.00       239.32
 1209.86        2961.00           2300          77.00       317.79
 1209.89        2961.25           2303         137.00       579.35
 1209.92        2961.50           2307         510.00      2205.48
 1209.96        2961.75           2310         959.00      4163.19
 1209.99        2962.00           2314        1686.00      7333.56
 1210.02        2962.25           2317        2081.00      9056.41
 1210.05        2962.50           2321        2780.00     12105.68
 1210.08        2962.75           2324        3307.00     14405.05
 1210.11        2963.00           2328        4490.00     19567.94
 1210.14        2963.25           2331        4966.00     21645.83
 1210.17        2963.50           2335        5797.00     25274.11
 1210.20        2963.75           2339        6522.00     28440.30
 1210.23        2964.00           2342        7278.00     31742.61
 1210.26        2964.25           2346        7993.00     34866.51
 1210.29        2964.50           2349        8759.00     38213.96
 1210.32        2964.75           2353        9362.00     40849.64
 1210.35        2965.00           2356       10263.00     44788.73
 1210.38        2965.25           2360       10946.00     47775.45
 1210.41        2965.50           2363       11346.00     49524.91
 1210.44        2965.75           2367       11990.00     52341.98
 1210.48        2966.00           2370       12358.00     53951.98
 1210.51        2966.25           2374       13104.00     57216.26
 1210.54        2966.50           2378       13598.00     59378.26
 1210.57        2966.75           2381       13758.00     60078.58
 1210.60        2967.00           2385       13630.00     59518.32
 1210.63        2967.25           2388       13387.00     58454.78
 1210.66        2967.50           2392       13616.00     59457.05
 1210.69        2967.75           2395       13551.00     59172.55
 1210.72        2968.00           2399       13369.00     58375.99
 1210.75        2968.25           2402       12866.00     56174.76
 1210.78        2968.50           2406       12427.00     54253.87
 1210.81        2968.75           2409       11318.00     49402.44
 1210.84        2969.00           2413       10481.00     45741.97
 1210.87        2969.25           2417       10205.00     44535.14
 1210.90        2969.50           2420        9328.00     40701.01
 1210.93        2969.75           2424        8882.00     38751.55
 1210.96        2970.00           2427        8548.00     37291.81
 1211.00        2970.25           2431        7614.00     33210.54
 1211.03        2970.50           2434        6825.00     29763.76
 1211.06        2970.75           2438        5753.00     25081.98
 1211.09        2971.00           2441        5322.00     23200.08
 1211.12        2971.25           2445        4697.00     20471.52
 1211.15        2971.50           2449        3698.00     16111.26
 1211.18        2971.75           2452        3226.00     14051.61
 1211.21        2972.00           2456        2404.00     10465.36
 1211.24        2972.25           2459        1796.00      7813.32
 1211.27        2972.50           2463         920.00      3993.13
 1211.30        2972.75           2466         496.00      2144.45
 1211.33        2973.00           2470         171.00       727.57
 1211.36        2973.25           2473          86.00       357.02
 1211.39        2973.50           2477          70.00       287.27
 1211.42        2973.75           2481          68.00       278.56
 1211.45        2974.00           2484          61.00       248.04
 1211.48        2974.25           2488          69.00       282.91
 1211.52        2974.50           2491          63.00       256.76
 1211.55        2974.75           2495          53.00       213.17
 1211.58        2975.00           2498          57.00       230.60
 1211.61        2975.25           2502          60.00       243.68
 1211.64        2975.50           2505          54.00       217.53
 1211.67        2975.75           2509          49.00       195.73
 1211.70        2976.00           2512          54.00       217.53
 1211.73        2976.25           2516          46.00       182.65
 1211.76        2976.50           2520          47.00       187.01
 1211.79        2976.75           2523          47.00       187.01
 1211.82        2977.00           2527          50.00       200.09
 1211.85        2977.25           2530          47.00       187.01
 1211.88        2977.50           2534          53.00       213.17
 1211.91        2977.75           2537          44.00       173.93
 1211.94        2978.00           2541          55.00       221.88
 1211.97        2978.25           2544          55.00       221.88
 1212.00        2978.50           2548          56.00       226.24
 1212.04        2978.75           2552          54.00       217.53
 1212.07        2979.00           2555          53.00       213.17
 1212.10        2979.25           2559          53.00       213.17
 1212.13        2979.50           2562          47.00       187.01
 1212.16        2979.75           2566          47.00       187.01
 1212.19        2980.00           2569          47.00       187.01
 1212.22        2980.25           2573          46.00       182.65
 1212.25        2980.50           2577          46.00       182.65
 1212.28        2980.75           2580          39.00       152.14
 1212.31        2981.00           2584          45.00       178.29
 1212.34        2981.25           2587          46.00       182.65
 1212.37        2981.50           2591          42.00       165.21
 1212.40        2981.75           2594          42.00       165.21
 1212.43        2982.00           2598          43.00       169.57
 1212.46        2982.25           2601          48.00       191.37
 1212.49        2982.50           2605          43.00       169.57
 1212.52        2982.75           2609          50.00       200.09
 1212.55        2983.00           2612          41.00       160.86
 1212.59        2983.25           2616          39.00       152.14
 1212.62        2983.50           2619          45.00       178.29
 1212.65        2983.75           2623          44.00       173.93
 1212.68        2984.00           2626          46.00       182.65
HS scan finished at 20:12:54
end
