************************************************************
  HS Scan of (1) Internal mercury lamp
************************************************************
Integration time is 0.2294 seconds per sample
dh090817Reading 51.44 .94 3.45pr1000
************************************************************
Dead Time -------------------------  3.4E-08 
Number of Cycles Used -------------  4 
Starting Wavelength (Angstroms) ---  2950 
Final Wavelength (Angstoms) -------  2984 
Wavelength Increment (Angstroms) --  .25 
Filter Wheel #1 Position ---------- (1) Ground quartz diffuser (ND=2.32)
Filter Wheel #2 Position ---------- (1) Neutral Density 0.494



************************************************************
HS scan start time = 01:35:34
Dark Count =  2.2 


Time (GMT)  Wavelength (Ang)  Step Number  Raw Counts  Counts/Second

   96.46        2950.00           2144         170.00       731.49
   96.65        2950.25           2147         161.00       692.26
   96.68        2950.50           2151         169.00       727.13
   96.71        2950.75           2155         174.00       748.93
   96.75        2951.00           2158         157.00       674.82
   96.78        2951.25           2162         168.00       722.77
   96.81        2951.50           2165         163.00       700.98
   96.84        2951.75           2169         172.00       740.21
   96.87        2952.00           2172         157.00       674.82
   96.90        2952.25           2176         158.00       679.18
   96.93        2952.50           2179         162.00       696.62
   96.96        2952.75           2183         177.00       762.01
   96.99        2953.00           2186         162.00       696.62
   97.02        2953.25           2190         174.00       748.93
   97.05        2953.50           2193         176.00       757.65
   97.08        2953.75           2197         168.00       722.77
   97.11        2954.00           2200         175.00       753.29
   97.14        2954.25           2204         178.00       766.37
   97.17        2954.50           2208         174.00       748.93
   97.20        2954.75           2211         186.00       801.24
   97.23        2955.00           2215         181.00       779.45
   97.26        2955.25           2218         194.00       836.12
   97.30        2955.50           2222         198.00       853.56
   97.33        2955.75           2225         194.00       836.12
   97.36        2956.00           2229         179.00       770.73
   97.39        2956.25           2232         199.00       857.92
   97.42        2956.50           2236         179.00       770.73
   97.46        2956.75           2239         192.00       827.40
   97.49        2957.00           2243         200.00       862.27
   97.52        2957.25           2246         194.00       836.12
   97.55        2957.50           2250         206.00       888.43
   97.58        2957.75           2254         211.00       910.23
   97.61        2958.00           2257         204.00       879.71
   97.64        2958.25           2261         222.00       958.18
   97.67        2958.50           2264         214.00       923.31
   97.70        2958.75           2268         213.00       918.95
   97.73        2959.00           2271         209.00       901.51
   97.76        2959.25           2275         215.00       927.67
   97.79        2959.50           2278         224.00       966.90
   97.82        2959.75           2282         241.00      1041.01
   97.85        2960.00           2285         240.00      1036.65
   97.88        2960.25           2289         256.00      1106.41
   97.91        2960.50           2293         256.00      1106.41
   97.94        2960.75           2296         294.00      1272.07
   97.98        2961.00           2300         300.00      1298.23
   98.01        2961.25           2303         572.00      2484.08
   98.04        2961.50           2307        2443.00     10643.78
   98.07        2961.75           2310        4949.00     21579.91
   98.10        2962.00           2314        8819.00     38484.50
   98.13        2962.25           2317       11727.00     51199.78
   98.16        2962.50           2321       15219.00     66483.16
   98.19        2962.75           2324       18023.00     78766.90
   98.22        2963.00           2328       22074.00     96531.66
   98.25        2963.25           2331       25114.00    109877.00
   98.28        2963.50           2335       28951.00    126738.50
   98.31        2963.75           2339       33348.00    146084.70
   98.34        2964.00           2342       36430.00    159660.40
   98.37        2964.25           2346       40910.00    179416.30
   98.40        2964.50           2349       44171.00    193813.50
   98.43        2964.75           2353       47724.00    209516.00
   98.46        2965.00           2356       50399.00    221349.20
   98.50        2965.25           2360       54517.00    239584.50
   98.53        2965.50           2363       57817.00    254214.00
   98.56        2965.75           2367       61811.00    271939.60
   98.59        2966.00           2370       64457.00    283694.50
   98.62        2966.25           2374       67973.00    299329.00
   98.65        2966.50           2378       69755.00    307259.50
   98.68        2966.75           2381       70254.00    309480.90
   98.71        2967.00           2385       70553.00    310812.20
   98.74        2967.25           2388       70650.00    311244.10
   98.77        2967.50           2392       70077.00    308692.90
   98.80        2967.75           2395       69749.00    307232.70
   98.83        2968.00           2399       67519.00    297309.30
   98.86        2968.25           2402       64849.00    285436.80
   98.89        2968.50           2406       61132.00    268924.60
   98.92        2968.75           2409       58389.00    256751.20
   98.95        2969.00           2413       54702.00    240404.30
   98.98        2969.25           2417       50333.00    221057.20
   99.02        2969.50           2420       46976.00    206208.80
   99.05        2969.75           2424       42917.00    188275.50
   99.08        2970.00           2427       39534.00    173345.60
   99.11        2970.25           2431       35577.00    155901.80
   99.14        2970.50           2434       32844.00    143865.90
   99.17        2970.75           2438       28132.00    123137.80
   99.20        2971.00           2441       24935.00    109090.90
   99.23        2971.25           2445       20750.00     90723.18
   99.26        2971.50           2449       16662.00     72803.35
   99.29        2971.75           2452       13755.00     60073.75
   99.32        2972.00           2456       10253.00     44753.32
   99.35        2972.25           2459        7335.00     31999.93
   99.38        2972.50           2463        3499.00     15251.15
   99.41        2972.75           2466        1551.00      6753.08
   99.44        2973.00           2470         473.00      2052.45
   99.47        2973.25           2473         314.00      1359.26
   99.50        2973.50           2477         268.00      1158.72
   99.53        2973.75           2481         280.00      1211.03
   99.57        2974.00           2484         279.00      1206.68
   99.60        2974.25           2488         242.00      1045.37
   99.63        2974.50           2491         238.00      1027.93
   99.66        2974.75           2495         242.00      1045.37
   99.69        2975.00           2498         230.00       993.06
   99.72        2975.25           2502         206.00       888.43
   99.75        2975.50           2505         216.00       932.03
   99.78        2975.75           2509         238.00      1027.93
   99.81        2976.00           2512         217.00       936.39
   99.84        2976.25           2516         225.00       971.26
   99.87        2976.50           2520         216.00       932.03
   99.90        2976.75           2523         212.00       914.59
   99.93        2977.00           2527         206.00       888.43
   99.96        2977.25           2530         186.00       801.24
   99.99        2977.50           2534         200.00       862.27
  100.02        2977.75           2537         206.00       888.43
  100.05        2978.00           2541         191.00       823.04
  100.09        2978.25           2544         188.00       809.96
  100.12        2978.50           2548         181.00       779.45
  100.15        2978.75           2552         185.00       796.88
  100.18        2979.00           2555         177.00       762.01
  100.21        2979.25           2559         181.00       779.45
  100.24        2979.50           2562         195.00       840.48
  100.27        2979.75           2566         174.00       748.93
  100.30        2980.00           2569         180.00       775.09
  100.33        2980.25           2573         176.00       757.65
  100.36        2980.50           2577         175.00       753.29
  100.39        2980.75           2580         179.00       770.73
  100.42        2981.00           2584         171.00       735.85
  100.45        2981.25           2587         165.00       709.69
  100.48        2981.50           2591         181.00       779.45
  100.51        2981.75           2594         160.00       687.90
  100.54        2982.00           2598         162.00       696.62
  100.57        2982.25           2601         169.00       727.13
  100.61        2982.50           2605         170.00       731.49
  100.64        2982.75           2609         157.00       674.82
  100.67        2983.00           2612         168.00       722.77
  100.70        2983.25           2616         161.00       692.26
  100.73        2983.50           2619         167.00       718.41
  100.76        2983.75           2623         165.00       709.69
  100.79        2984.00           2626         147.00       631.23
HS scan finished at 01:41:01
end
************************************************************
  HS Scan of (1) Internal mercury lamp
************************************************************
Integration time is 0.2294 seconds per sample
dh090817Reading 51.44 .94 3.29pr1000
************************************************************
Dead Time -------------------------  3.4E-08 
Number of Cycles Used -------------  4 
Starting Wavelength (Angstroms) ---  2950 
Final Wavelength (Angstoms) -------  2984 
Wavelength Increment (Angstroms) --  .25 
Filter Wheel #1 Position ---------- (1) Ground quartz diffuser (ND=2.32)
Filter Wheel #2 Position ---------- (1) Neutral Density 0.494



************************************************************
HS scan start time = 20:37:30
Dark Count =  1.5 


Time (GMT)  Wavelength (Ang)  Step Number  Raw Counts  Counts/Second

 1238.40        2950.00           2144         172.00       743.26
 1238.59        2950.25           2147         166.00       717.11
 1238.62        2950.50           2151         166.00       717.11
 1238.65        2950.75           2155         158.00       682.23
 1238.68        2951.00           2158         163.00       704.03
 1238.71        2951.25           2162         158.00       682.23
 1238.74        2951.50           2165         174.00       751.98
 1238.77        2951.75           2169         174.00       751.98
 1238.80        2952.00           2172         163.00       704.03
 1238.83        2952.25           2176         168.00       725.82
 1238.87        2952.50           2179         170.00       734.54
 1238.90        2952.75           2183         169.00       730.18
 1238.93        2953.00           2186         175.00       756.34
 1238.96        2953.25           2190         163.00       704.03
 1238.99        2953.50           2193         185.00       799.93
 1239.02        2953.75           2197         183.00       791.22
 1239.05        2954.00           2200         179.00       773.78
 1239.08        2954.25           2204         168.00       725.82
 1239.11        2954.50           2208         180.00       778.14
 1239.14        2954.75           2211         168.00       725.82
 1239.17        2955.00           2215         182.00       786.86
 1239.20        2955.25           2218         189.00       817.37
 1239.23        2955.50           2222         177.00       765.06
 1239.26        2955.75           2225         187.00       808.65
 1239.29        2956.00           2229         167.00       721.46
 1239.32        2956.25           2232         184.00       795.58
 1239.35        2956.50           2236         185.00       799.93
 1239.39        2956.75           2239         186.00       804.29
 1239.42        2957.00           2243         190.00       821.73
 1239.45        2957.25           2246         196.00       847.89
 1239.48        2957.50           2250         204.00       882.76
 1239.51        2957.75           2254         195.00       843.53
 1239.54        2958.00           2257         192.00       830.45
 1239.57        2958.25           2261         213.00       922.00
 1239.60        2958.50           2264         245.00      1061.50
 1239.63        2958.75           2268         214.00       926.36
 1239.66        2959.00           2271         196.00       847.89
 1239.69        2959.25           2275         218.00       943.80
 1239.72        2959.50           2278         254.00      1100.74
 1239.75        2959.75           2282         222.00       961.23
 1239.78        2960.00           2285         251.00      1087.66
 1239.81        2960.25           2289         219.00       948.16
 1239.85        2960.50           2293         234.00      1013.55
 1239.88        2960.75           2296         235.00      1017.91
 1239.91        2961.00           2300         299.00      1296.92
 1239.94        2961.25           2303         533.00      2317.10
 1239.97        2961.50           2307        2074.00      9037.21
 1240.00        2961.75           2310        4356.00     18994.39
 1240.03        2962.00           2314        7522.00     32819.95
 1240.06        2962.25           2317        9999.00     43645.81
 1240.09        2962.50           2321       13513.00     59017.61
 1240.13        2962.75           2324       16299.00     71216.26
 1240.16        2963.00           2328       20593.00     90037.63
 1240.19        2963.25           2331       23588.00    103179.60
 1240.22        2963.50           2335       27277.00    119382.90
 1240.25        2963.75           2339       30958.00    135569.00
 1240.28        2964.00           2342       33640.00    147373.50
 1240.31        2964.25           2346       38085.00    166958.60
 1240.34        2964.50           2349       41229.00    180827.20
 1240.37        2964.75           2353       45716.00    200642.60
 1240.40        2965.00           2356       48425.00    212619.10
 1240.43        2965.25           2360       51860.00    227819.30
 1240.46        2965.50           2363       54507.00    239543.30
 1240.49        2965.75           2367       58327.00    256479.30
 1240.52        2966.00           2370       60813.00    267511.50
 1240.55        2966.25           2374       64083.00    282035.50
 1240.58        2966.50           2378       65794.00    289640.90
 1240.61        2966.75           2381       66118.00    291081.50
 1240.65        2967.00           2385       66299.00    291886.30
 1240.68        2967.25           2388       66199.00    291441.60
 1240.71        2967.50           2392       65901.00    290116.60
 1240.74        2967.75           2395       65575.00    288667.20
 1240.77        2968.00           2399       63475.00    279334.00
 1240.80        2968.25           2402       60971.00    268212.90
 1240.83        2968.50           2406       57459.00    252629.30
 1240.86        2968.75           2409       55376.00    243394.30
 1240.89        2969.00           2413       51303.00    225353.50
 1240.92        2969.25           2417       47560.00    208793.90
 1240.95        2969.50           2420       45045.00    197677.70
 1240.98        2969.75           2424       41161.00    180527.10
 1241.01        2970.00           2427       38287.00    167849.30
 1241.04        2970.25           2431       34239.00    150011.20
 1241.07        2970.50           2434       31399.00    137509.30
 1241.10        2970.75           2438       27697.00    121228.80
 1241.13        2971.00           2441       25091.00    109779.10
 1241.17        2971.25           2445       21432.00     93717.94
 1241.20        2971.50           2449       17586.00     76854.90
 1241.23        2971.75           2452       14509.00     63377.49
 1241.26        2972.00           2456       10870.00     47454.46
 1241.29        2972.25           2459        8169.00     35646.93
 1241.32        2972.50           2463        4523.00     19723.33
 1241.35        2972.75           2466        2231.00      9722.05
 1241.38        2973.00           2470         664.00      2888.25
 1241.41        2973.25           2473         385.00      1671.85
 1241.44        2973.50           2477         272.00      1179.21
 1241.47        2973.75           2481         278.00      1205.37
 1241.50        2974.00           2484         272.00      1179.21
 1241.53        2974.25           2488         263.00      1139.97
 1241.56        2974.50           2491         259.00      1122.54
 1241.59        2974.75           2495         221.00       956.88
 1241.62        2975.00           2498         222.00       961.23
 1241.65        2975.25           2502         213.00       922.00
 1241.69        2975.50           2505         222.00       961.23
 1241.72        2975.75           2509         225.00       974.31
 1241.75        2976.00           2512         222.00       961.23
 1241.78        2976.25           2516         201.00       869.69
 1241.81        2976.50           2520         199.00       860.97
 1241.84        2976.75           2523         187.00       808.65
 1241.87        2977.00           2527         201.00       869.69
 1241.90        2977.25           2530         181.00       782.50
 1241.93        2977.50           2534         193.00       834.81
 1241.96        2977.75           2537         177.00       765.06
 1241.99        2978.00           2541         195.00       843.53
 1242.02        2978.25           2544         179.00       773.78
 1242.05        2978.50           2548         170.00       734.54
 1242.08        2978.75           2552         183.00       791.22
 1242.11        2979.00           2555         173.00       747.62
 1242.14        2979.25           2559         186.00       804.29
 1242.17        2979.50           2562         171.00       738.90
 1242.21        2979.75           2566         172.00       743.26
 1242.24        2980.00           2569         172.00       743.26
 1242.27        2980.25           2573         168.00       725.82
 1242.30        2980.50           2577         171.00       738.90
 1242.33        2980.75           2580         170.00       734.54
 1242.36        2981.00           2584         175.00       756.34
 1242.39        2981.25           2587         157.00       677.87
 1242.42        2981.50           2591         165.00       712.75
 1242.45        2981.75           2594         165.00       712.75
 1242.48        2982.00           2598         162.00       699.67
 1242.51        2982.25           2601         166.00       717.11
 1242.54        2982.50           2605         165.00       712.75
 1242.57        2982.75           2609         177.00       765.06
 1242.60        2983.00           2612         163.00       704.03
 1242.63        2983.25           2616         159.00       686.59
 1242.66        2983.50           2619         150.00       647.36
 1242.69        2983.75           2623         153.00       660.43
 1242.72        2984.00           2626         163.00       704.03
HS scan finished at 20:42:57
end
