************************************************************
  HS Scan of (1) Internal mercury lamp
************************************************************
Integration time is 0.2294 seconds per sample
dh090818Reading 51.44 .94 3.56pr1000
************************************************************
Dead Time -------------------------  3.4E-08 
Number of Cycles Used -------------  4 
Starting Wavelength (Angstroms) ---  2950 
Final Wavelength (Angstoms) -------  2984 
Wavelength Increment (Angstroms) --  .25 
Filter Wheel #1 Position ---------- (1) Ground quartz diffuser (ND=2.32)
Filter Wheel #2 Position ---------- (1) Neutral Density 0.494



************************************************************
HS scan start time = 01:35:34
Dark Count =  2.9 


Time (GMT)  Wavelength (Ang)  Step Number  Raw Counts  Counts/Second

   96.47        2950.00           2144          66.00       275.07
   96.67        2950.25           2147          69.00       288.15
   96.70        2950.50           2151          71.00       296.86
   96.73        2950.75           2155          69.00       288.15
   96.76        2951.00           2158          71.00       296.86
   96.79        2951.25           2162          65.00       270.71
   96.82        2951.50           2165          62.00       257.63
   96.85        2951.75           2169          69.00       288.15
   96.88        2952.00           2172          70.00       292.51
   96.91        2952.25           2176          68.00       283.79
   96.94        2952.50           2179          72.00       301.22
   96.97        2952.75           2183          68.00       283.79
   97.00        2953.00           2186          64.00       266.35
   97.03        2953.25           2190          70.00       292.51
   97.06        2953.50           2193          70.00       292.51
   97.09        2953.75           2197          71.00       296.86
   97.12        2954.00           2200          75.00       314.30
   97.16        2954.25           2204          70.00       292.51
   97.19        2954.50           2208          64.00       266.35
   97.22        2954.75           2211          73.00       305.58
   97.25        2955.00           2215          72.00       301.22
   97.28        2955.25           2218          73.00       305.58
   97.31        2955.50           2222          74.00       309.94
   97.34        2955.75           2225          73.00       305.58
   97.37        2956.00           2229          81.00       340.46
   97.40        2956.25           2232          73.00       305.58
   97.43        2956.50           2236          66.00       275.07
   97.46        2956.75           2239          72.00       301.22
   97.49        2957.00           2243          80.00       336.10
   97.52        2957.25           2246          74.00       309.94
   97.55        2957.50           2250          83.00       349.18
   97.58        2957.75           2254          73.00       305.58
   97.61        2958.00           2257          84.00       353.54
   97.64        2958.25           2261          88.00       370.97
   97.67        2958.50           2264          85.00       357.89
   97.71        2958.75           2268          83.00       349.18
   97.74        2959.00           2271          86.00       362.25
   97.77        2959.25           2275          92.00       388.41
   97.80        2959.50           2278          92.00       388.41
   97.83        2959.75           2282          92.00       388.41
   97.86        2960.00           2285         118.00       501.75
   97.89        2960.25           2289          91.00       384.05
   97.92        2960.50           2293         101.00       427.64
   97.95        2960.75           2296         112.00       475.60
   97.98        2961.00           2300         138.00       588.94
   98.01        2961.25           2303         236.00      1016.16
   98.04        2961.50           2307         893.00      3880.63
   98.07        2961.75           2310        1751.00      7622.29
   98.10        2962.00           2314        3148.00     13716.51
   98.13        2962.25           2317        4207.00     18337.93
   98.16        2962.50           2321        5702.00     24864.52
   98.19        2962.75           2324        6860.00     29921.88
   98.23        2963.00           2328        8540.00     37262.08
   98.26        2963.25           2331        9780.00     42682.21
   98.29        2963.50           2335       11429.00     49893.19
   98.32        2963.75           2339       12848.00     56101.24
   98.35        2964.00           2342       14376.00     62789.09
   98.38        2964.25           2346       16240.00     70951.69
   98.41        2964.50           2349       17329.00     75722.60
   98.44        2964.75           2353       18928.00     82730.65
   98.47        2965.00           2356       20059.00     87689.56
   98.50        2965.25           2360       21942.00     95949.39
   98.53        2965.50           2363       23078.00    100934.70
   98.56        2965.75           2367       24679.00    107963.60
   98.59        2966.00           2370       25977.00    113664.70
   98.62        2966.25           2374       27262.00    119310.80
   98.65        2966.50           2378       27910.00    122158.90
   98.68        2966.75           2381       28007.00    122585.30
   98.71        2967.00           2385       28023.00    122655.60
   98.75        2967.25           2388       28015.00    122620.50
   98.78        2967.50           2392       28111.00    123042.50
   98.81        2967.75           2395       27388.00    119864.60
   98.84        2968.00           2399       26852.00    117509.10
   98.87        2968.25           2402       25735.00    112601.60
   98.90        2968.50           2406       24331.00    106435.50
   98.93        2968.75           2409       23879.00    104450.90
   98.96        2969.00           2413       22018.00     96282.86
   98.99        2969.25           2417       19755.00     86356.49
   99.02        2969.50           2420       18789.00     82121.31
   99.05        2969.75           2424       17075.00     74609.69
   99.08        2970.00           2427       15698.00     68577.76
   99.11        2970.25           2431       14218.00     62097.41
   99.14        2970.50           2434       13107.00     57234.64
   99.17        2970.75           2438       11350.00     49547.66
   99.20        2971.00           2441        9893.00     43176.24
   99.23        2971.25           2445        8255.00     36016.61
   99.27        2971.50           2449        6560.00     28611.52
   99.30        2971.75           2452        5431.00     23681.22
   99.33        2972.00           2456        3863.00     16836.58
   99.36        2972.25           2459        2858.00     12451.22
   99.39        2972.50           2463        1500.00      6527.60
   99.42        2972.75           2466         701.00      3043.47
   99.45        2973.00           2470         209.00       898.46
   99.48        2973.25           2473         134.00       571.50
   99.51        2973.50           2477         108.00       458.16
   99.54        2973.75           2481         125.00       532.27
   99.57        2974.00           2484         101.00       427.64
   99.60        2974.25           2488          96.00       405.85
   99.63        2974.50           2491          95.00       401.49
   99.66        2974.75           2495          99.00       418.92
   99.69        2975.00           2498          91.00       384.05
   99.72        2975.25           2502         102.00       432.00
   99.75        2975.50           2505          94.00       397.13
   99.79        2975.75           2509          90.00       379.69
   99.82        2976.00           2512          83.00       349.18
   99.85        2976.25           2516          90.00       379.69
   99.88        2976.50           2520         108.00       458.16
   99.91        2976.75           2523          87.00       366.61
   99.94        2977.00           2527          83.00       349.18
   99.97        2977.25           2530          88.00       370.97
  100.00        2977.50           2534          80.00       336.10
  100.03        2977.75           2537          81.00       340.46
  100.06        2978.00           2541          85.00       357.89
  100.09        2978.25           2544          82.00       344.82
  100.12        2978.50           2548          85.00       357.89
  100.15        2978.75           2552          78.00       327.38
  100.18        2979.00           2555          76.00       318.66
  100.21        2979.25           2559          75.00       314.30
  100.24        2979.50           2562          74.00       309.94
  100.28        2979.75           2566          81.00       340.46
  100.31        2980.00           2569          78.00       327.38
  100.34        2980.25           2573          82.00       344.82
  100.37        2980.50           2577          72.00       301.22
  100.40        2980.75           2580          72.00       301.22
  100.43        2981.00           2584          73.00       305.58
  100.46        2981.25           2587          67.00       279.43
  100.49        2981.50           2591          70.00       292.51
  100.52        2981.75           2594          74.00       309.94
  100.55        2982.00           2598          76.00       318.66
  100.58        2982.25           2601          71.00       296.86
  100.61        2982.50           2605          68.00       283.79
  100.64        2982.75           2609          74.00       309.94
  100.67        2983.00           2612          66.00       275.07
  100.70        2983.25           2616          62.00       257.63
  100.73        2983.50           2619          73.00       305.58
  100.76        2983.75           2623          68.00       283.79
  100.79        2984.00           2626          71.00       296.86
HS scan finished at 01:41:01
end
************************************************************
  HS Scan of (1) Internal mercury lamp
************************************************************
Integration time is 0.2294 seconds per sample
dh090818Reading 51.44 .94 3.41pr1000
************************************************************
Dead Time -------------------------  3.4E-08 
Number of Cycles Used -------------  4 
Starting Wavelength (Angstroms) ---  2950 
Final Wavelength (Angstoms) -------  2984 
Wavelength Increment (Angstroms) --  .25 
Filter Wheel #1 Position ---------- (1) Ground quartz diffuser (ND=2.32)
Filter Wheel #2 Position ---------- (1) Neutral Density 0.494



************************************************************
HS scan start time = 20:37:26
Dark Count =  1.9 


Time (GMT)  Wavelength (Ang)  Step Number  Raw Counts  Counts/Second

 1238.33        2950.00           2144          68.00       288.15
 1238.53        2950.25           2147          60.00       253.27
 1238.56        2950.50           2151          67.00       283.79
 1238.59        2950.75           2155          72.00       305.58
 1238.62        2951.00           2158          68.00       288.15
 1238.65        2951.25           2162          67.00       283.79
 1238.68        2951.50           2165          66.00       279.43
 1238.71        2951.75           2169          59.00       248.91
 1238.74        2952.00           2172          70.00       296.86
 1238.77        2952.25           2176          66.00       279.43
 1238.80        2952.50           2179          66.00       279.43
 1238.83        2952.75           2183          73.00       309.94
 1238.86        2953.00           2186          70.00       296.86
 1238.89        2953.25           2190          81.00       344.82
 1238.92        2953.50           2193          74.00       314.30
 1238.95        2953.75           2197          74.00       314.30
 1238.98        2954.00           2200          78.00       331.74
 1239.01        2954.25           2204          74.00       314.30
 1239.05        2954.50           2208          76.00       323.02
 1239.08        2954.75           2211          72.00       305.58
 1239.11        2955.00           2215          78.00       331.74
 1239.14        2955.25           2218          80.00       340.46
 1239.17        2955.50           2222          78.00       331.74
 1239.20        2955.75           2225          73.00       309.94
 1239.23        2956.00           2229          88.00       375.33
 1239.26        2956.25           2232          74.00       314.30
 1239.29        2956.50           2236          88.00       375.33
 1239.32        2956.75           2239          75.00       318.66
 1239.35        2957.00           2243          88.00       375.33
 1239.38        2957.25           2246          84.00       357.89
 1239.41        2957.50           2250          79.00       336.10
 1239.44        2957.75           2254          80.00       340.46
 1239.47        2958.00           2257          85.00       362.25
 1239.50        2958.25           2261          82.00       349.18
 1239.53        2958.50           2264          86.00       366.61
 1239.56        2958.75           2268          85.00       362.25
 1239.60        2959.00           2271          88.00       375.33
 1239.63        2959.25           2275          95.00       405.85
 1239.66        2959.50           2278         101.00       432.00
 1239.69        2959.75           2282          99.00       423.28
 1239.72        2960.00           2285         101.00       432.00
 1239.75        2960.25           2289         100.00       427.64
 1239.78        2960.50           2293         125.00       536.63
 1239.81        2960.75           2296         138.00       593.30
 1239.84        2961.00           2300         140.00       602.02
 1239.87        2961.25           2303         273.00      1181.83
 1239.90        2961.50           2307        1040.00      4525.98
 1239.93        2961.75           2310        2053.00      8943.87
 1239.96        2962.00           2314        3645.00     15889.58
 1239.99        2962.25           2317        5033.00     21947.93
 1240.02        2962.50           2321        6634.00     28939.10
 1240.05        2962.75           2324        7494.00     32695.87
 1240.08        2963.00           2328        8764.00     38245.43
 1240.12        2963.25           2331       10084.00     44015.69
 1240.15        2963.50           2335       12818.00     55974.35
 1240.18        2963.75           2339       14104.00     61602.74
 1240.21        2964.00           2342       16284.00     71148.81
 1240.24        2964.25           2346       18210.00     79587.78
 1240.27        2964.50           2349       19652.00     85909.24
 1240.30        2964.75           2353       22361.00     97792.36
 1240.33        2965.00           2356       23705.00    103691.40
 1240.36        2965.25           2360       25513.00    111630.80
 1240.39        2965.50           2363       26670.00    116713.80
 1240.42        2965.75           2367       29159.00    127654.40
 1240.45        2966.00           2370       30936.00    135470.40
 1240.48        2966.25           2374       32615.00    142859.20
 1240.51        2966.50           2378       33331.00    146011.20
 1240.54        2966.75           2381       34503.00    151172.10
 1240.57        2967.00           2385       34930.00    153052.90
 1240.60        2967.25           2388       34980.00    153273.20
 1240.64        2967.50           2392       35749.00    156660.90
 1240.67        2967.75           2395       35917.00    157401.10
 1240.70        2968.00           2399       35162.00    154074.90
 1240.73        2968.25           2402       35119.00    153885.40
 1240.76        2968.50           2406       32579.00    142700.70
 1240.79        2968.75           2409       30574.00    133877.90
 1240.82        2969.00           2413       28889.00    126467.20
 1240.85        2969.25           2417       26995.00    118141.90
 1240.88        2969.50           2420       25207.00    110286.80
 1240.91        2969.75           2424       22774.00     99604.84
 1240.94        2970.00           2427       22692.00     99244.96
 1240.97        2970.25           2431       19785.00     86492.42
 1241.00        2970.50           2434       18160.00     79368.65
 1241.03        2970.75           2438       15923.00     69567.58
 1241.06        2971.00           2441       14298.00     62452.00
 1241.09        2971.25           2445       11959.00     52215.99
 1241.12        2971.50           2449       10235.00     44675.92
 1241.16        2971.75           2452        8504.00     37109.13
 1241.19        2972.00           2456        6231.00     27178.99
 1241.22        2972.25           2459        4641.00     20236.68
 1241.25        2972.50           2463        2238.00      9750.84
 1241.28        2972.75           2466        1138.00      4953.32
 1241.31        2973.00           2470         370.00      1604.71
 1241.34        2973.25           2473         225.00       972.57
 1241.37        2973.50           2477         181.00       780.75
 1241.40        2973.75           2481         156.00       671.77
 1241.43        2974.00           2484         186.00       802.55
 1241.46        2974.25           2488         181.00       780.75
 1241.49        2974.50           2491         183.00       789.47
 1241.52        2974.75           2495         164.00       706.64
 1241.55        2975.00           2498         170.00       732.80
 1241.58        2975.25           2502         162.00       697.92
 1241.61        2975.50           2505         158.00       680.49
 1241.64        2975.75           2509         153.00       658.69
 1241.68        2976.00           2512         162.00       697.92
 1241.71        2976.25           2516         146.00       628.17
 1241.74        2976.50           2520         148.00       636.89
 1241.77        2976.75           2523         150.00       645.61
 1241.80        2977.00           2527         154.00       663.05
 1241.83        2977.25           2530         148.00       636.89
 1241.86        2977.50           2534         163.00       702.28
 1241.89        2977.75           2537         171.00       737.16
 1241.92        2978.00           2541         153.00       658.69
 1241.95        2978.25           2544         145.00       623.81
 1241.98        2978.50           2548         141.00       606.38
 1242.01        2978.75           2552         172.00       741.52
 1242.04        2979.00           2555         156.00       671.77
 1242.07        2979.25           2559         130.00       558.42
 1242.10        2979.50           2562         151.00       649.97
 1242.13        2979.75           2566         144.00       619.46
 1242.16        2980.00           2569         125.00       536.63
 1242.20        2980.25           2573         122.00       523.55
 1242.23        2980.50           2577         135.00       580.22
 1242.26        2980.75           2580         124.00       532.27
 1242.29        2981.00           2584         142.00       610.74
 1242.32        2981.25           2587         129.00       554.06
 1242.35        2981.50           2591         152.00       654.33
 1242.38        2981.75           2594         120.00       514.83
 1242.41        2982.00           2598         121.00       519.19
 1242.44        2982.25           2601         137.00       588.94
 1242.47        2982.50           2605         129.00       554.06
 1242.50        2982.75           2609         150.00       645.61
 1242.53        2983.00           2612         114.00       488.67
 1242.56        2983.25           2616         133.00       571.50
 1242.59        2983.50           2619         111.00       475.60
 1242.62        2983.75           2623         136.00       584.58
 1242.65        2984.00           2626         102.00       436.36
HS scan finished at 20:42:53
end
