************************************************************
  HS Scan of (1) Internal mercury lamp
************************************************************
Integration time is 0.2294 seconds per sample
dh170817Reading 51.44 .94 3.41pr1000
************************************************************
Dead Time -------------------------  3.4E-08 
Number of Cycles Used -------------  4 
Starting Wavelength (Angstroms) ---  2950 
Final Wavelength (Angstoms) -------  2984 
Wavelength Increment (Angstroms) --  .25 
Filter Wheel #1 Position ---------- (1) Ground quartz diffuser (ND=2.32)
Filter Wheel #2 Position ---------- (1) Neutral Density 0.494



************************************************************
HS scan start time = 01:12:03
Dark Count =  2.2 


Time (GMT)  Wavelength (Ang)  Step Number  Raw Counts  Counts/Second

   72.94        2950.00           2144         164.00       705.34
   73.14        2950.25           2147         149.00       639.94
   73.17        2950.50           2151         158.00       679.18
   73.20        2950.75           2155         163.00       700.98
   73.23        2951.00           2158         161.00       692.26
   73.26        2951.25           2162         164.00       705.34
   73.29        2951.50           2165         173.00       744.57
   73.32        2951.75           2169         178.00       766.37
   73.35        2952.00           2172         171.00       735.85
   73.38        2952.25           2176         161.00       692.26
   73.41        2952.50           2179         170.00       731.49
   73.44        2952.75           2183         171.00       735.85
   73.47        2953.00           2186         176.00       757.65
   73.50        2953.25           2190         180.00       775.09
   73.53        2953.50           2193         173.00       744.57
   73.56        2953.75           2197         163.00       700.98
   73.59        2954.00           2200         181.00       779.45
   73.63        2954.25           2204         184.00       792.52
   73.66        2954.50           2208         179.00       770.73
   73.69        2954.75           2211         183.00       788.16
   73.72        2955.00           2215         182.00       783.80
   73.75        2955.25           2218         174.00       748.93
   73.78        2955.50           2222         189.00       814.32
   73.81        2955.75           2225         184.00       792.52
   73.84        2956.00           2229         186.00       801.24
   73.87        2956.25           2232         186.00       801.24
   73.90        2956.50           2236         199.00       857.92
   73.93        2956.75           2239         187.00       805.60
   73.96        2957.00           2243         194.00       836.12
   73.99        2957.25           2246         192.00       827.40
   74.02        2957.50           2250         206.00       888.43
   74.05        2957.75           2254         198.00       853.56
   74.08        2958.00           2257         192.00       827.40
   74.11        2958.25           2261         211.00       910.23
   74.15        2958.50           2264         214.00       923.31
   74.18        2958.75           2268         211.00       910.23
   74.21        2959.00           2271         232.00      1001.78
   74.24        2959.25           2275         216.00       932.03
   74.27        2959.50           2278         220.00       949.46
   74.30        2959.75           2282         224.00       966.90
   74.33        2960.00           2285         257.00      1110.77
   74.36        2960.25           2289         275.00      1189.24
   74.39        2960.50           2293         267.00      1154.36
   74.42        2960.75           2296         263.00      1136.92
   74.45        2961.00           2300         274.00      1184.88
   74.48        2961.25           2303         432.00      1873.70
   74.51        2961.50           2307        1565.00      6814.13
   74.54        2961.75           2310        3410.00     14862.78
   74.57        2962.00           2314        6486.00     28291.37
   74.60        2962.25           2317        9379.00     40932.26
   74.63        2962.50           2321       13661.00     59662.32
   74.67        2962.75           2324       16995.00     74262.25
   74.70        2963.00           2328       21135.00     92411.97
   74.73        2963.25           2331       23635.00    103382.80
   74.76        2963.50           2335       27592.00    120764.20
   74.79        2963.75           2339       31603.00    138403.90
   74.82        2964.00           2342       35560.00    155826.90
   74.85        2964.25           2346       39474.00    173080.90
   74.88        2964.50           2349       42090.00    184624.40
   74.91        2964.75           2353       47141.00    206938.30
   74.94        2965.00           2356       51429.00    225908.20
   74.97        2965.25           2360       55592.00    244348.60
   75.00        2965.50           2363       57797.00    254125.20
   75.03        2965.75           2367       61863.00    272170.50
   75.06        2966.00           2370       64361.00    283267.90
   75.09        2966.25           2374       67490.00    297180.30
   75.12        2966.50           2378       69565.00    306413.70
   75.15        2966.75           2381       70392.00    310095.30
   75.19        2967.00           2385       69479.00    306030.90
   75.22        2967.25           2388       70242.00    309427.50
   75.25        2967.50           2392       70204.00    309258.30
   75.28        2967.75           2395       71231.00    313831.30
   75.31        2968.00           2399       69173.00    304668.90
   75.34        2968.25           2402       64811.00    285267.90
   75.37        2968.50           2406       61847.00    272099.40
   75.40        2968.75           2409       59674.00    262452.80
   75.43        2969.00           2413       55895.00    245691.60
   75.46        2969.25           2417       51422.00    225877.20
   75.49        2969.50           2420       48425.00    212616.00
   75.52        2969.75           2424       44322.00    194480.50
   75.55        2970.00           2427       41028.00    179937.10
   75.58        2970.25           2431       36565.00    160255.30
   75.61        2970.50           2434       33163.00    145270.20
   75.64        2970.75           2438       29581.00    129508.90
   75.67        2971.00           2441       26223.00    114748.50
   75.70        2971.25           2445       22383.00     97887.59
   75.74        2971.50           2449       17922.00     78324.27
   75.77        2971.75           2452       14531.00     63470.74
   75.80        2972.00           2456       10932.00     47722.53
   75.83        2972.25           2459        7892.00     34433.49
   75.86        2972.50           2463        4355.00     18986.97
   75.89        2972.75           2466        2275.00      9910.93
   75.92        2973.00           2470         690.00      2998.56
   75.95        2973.25           2473         361.00      1564.16
   75.98        2973.50           2477         296.00      1280.79
   76.01        2973.75           2481         293.00      1267.71
   76.04        2974.00           2484         256.00      1106.41
   76.07        2974.25           2488         244.00      1054.09
   76.10        2974.50           2491         256.00      1106.41
   76.13        2974.75           2495         269.00      1163.08
   76.16        2975.00           2498         255.00      1102.05
   76.19        2975.25           2502         234.00      1010.50
   76.22        2975.50           2505         217.00       936.39
   76.26        2975.75           2509         217.00       936.39
   76.29        2976.00           2512         214.00       923.31
   76.32        2976.25           2516         210.00       905.87
   76.35        2976.50           2520         206.00       888.43
   76.38        2976.75           2523         199.00       857.92
   76.41        2977.00           2527         209.00       901.51
   76.44        2977.25           2530         201.00       866.63
   76.47        2977.50           2534         205.00       884.07
   76.50        2977.75           2537         192.00       827.40
   76.53        2978.00           2541         203.00       875.35
   76.56        2978.25           2544         192.00       827.40
   76.59        2978.50           2548         193.00       831.76
   76.62        2978.75           2552         188.00       809.96
   76.65        2979.00           2555         197.00       849.20
   76.68        2979.25           2559         183.00       788.16
   76.71        2979.50           2562         182.00       783.80
   76.74        2979.75           2566         192.00       827.40
   76.78        2980.00           2569         182.00       783.80
   76.81        2980.25           2573         169.00       727.13
   76.84        2980.50           2577         175.00       753.29
   76.87        2980.75           2580         173.00       744.57
   76.90        2981.00           2584         169.00       727.13
   76.93        2981.25           2587         168.00       722.77
   76.96        2981.50           2591         165.00       709.69
   76.99        2981.75           2594         177.00       762.01
   77.02        2982.00           2598         173.00       744.57
   77.05        2982.25           2601         171.00       735.85
   77.08        2982.50           2605         173.00       744.57
   77.11        2982.75           2609         169.00       727.13
   77.14        2983.00           2612         162.00       696.62
   77.17        2983.25           2616         170.00       731.49
   77.20        2983.50           2619         172.00       740.21
   77.23        2983.75           2623         168.00       722.77
   77.26        2984.00           2626         174.00       748.93
HS scan finished at 01:17:29
end
