************************************************************
  HS Scan of (1) Internal mercury lamp
************************************************************
Integration time is 0.2294 seconds per sample
dh080817Reading 51.44 .94 3.62pr1000
************************************************************
Dead Time -------------------------  3.4E-08 
Number of Cycles Used -------------  4 
Starting Wavelength (Angstroms) ---  2950 
Final Wavelength (Angstoms) -------  2984 
Wavelength Increment (Angstroms) --  .25 
Filter Wheel #1 Position ---------- (1) Ground quartz diffuser (ND=2.32)
Filter Wheel #2 Position ---------- (1) Neutral Density 0.494



************************************************************
HS scan start time = 02:41:17
Dark Count =  3.5 


Time (GMT)  Wavelength (Ang)  Step Number  Raw Counts  Counts/Second

  162.18        2950.00           2144         165.00       704.03
  162.38        2950.25           2147         170.00       725.82
  162.41        2950.50           2151         191.00       817.37
  162.44        2950.75           2155         168.00       717.11
  162.47        2951.00           2158         170.00       725.82
  162.50        2951.25           2162         179.00       765.06
  162.53        2951.50           2165         162.00       690.95
  162.56        2951.75           2169         172.00       734.54
  162.59        2952.00           2172         160.00       682.23
  162.62        2952.25           2176         168.00       717.11
  162.65        2952.50           2179         184.00       786.86
  162.68        2952.75           2183         174.00       743.26
  162.71        2953.00           2186         173.00       738.90
  162.74        2953.25           2190         170.00       725.82
  162.77        2953.50           2193         186.00       795.58
  162.80        2953.75           2197         188.00       804.29
  162.83        2954.00           2200         178.00       760.70
  162.86        2954.25           2204         192.00       821.73
  162.90        2954.50           2208         186.00       795.58
  162.93        2954.75           2211         198.00       847.89
  162.96        2955.00           2215         179.00       765.06
  162.99        2955.25           2218         199.00       852.25
  163.02        2955.50           2222         181.00       773.78
  163.05        2955.75           2225         194.00       830.45
  163.08        2956.00           2229         184.00       786.86
  163.11        2956.25           2232         197.00       843.53
  163.14        2956.50           2236         197.00       843.53
  163.17        2956.75           2239         222.00       952.52
  163.20        2957.00           2243         210.00       900.20
  163.23        2957.25           2246         205.00       878.40
  163.26        2957.50           2250         222.00       952.52
  163.29        2957.75           2254         208.00       891.48
  163.32        2958.00           2257         211.00       904.56
  163.35        2958.25           2261         214.00       917.64
  163.38        2958.50           2264         221.00       948.16
  163.42        2958.75           2268         224.00       961.23
  163.45        2959.00           2271         229.00       983.03
  163.48        2959.25           2275         223.00       956.88
  163.51        2959.50           2278         240.00      1030.99
  163.54        2959.75           2282         287.00      1235.88
  163.57        2960.00           2285         246.00      1057.14
  163.60        2960.25           2289         241.00      1035.35
  163.63        2960.50           2293         267.00      1148.69
  163.66        2960.75           2296         274.00      1179.21
  163.69        2961.00           2300         415.00      1793.92
  163.72        2961.25           2303        1107.00      4811.16
  163.75        2961.50           2307        3775.00     16449.91
  163.78        2961.75           2310        6579.00     28691.88
  163.81        2962.00           2314       10574.00     46151.26
  163.84        2962.25           2317       13409.00     58553.69
  163.87        2962.50           2321       17575.00     76797.91
  163.90        2962.75           2324       20900.00     91375.42
  163.94        2963.00           2328       25036.00    109528.80
  163.97        2963.25           2331       28653.00    125422.60
  164.00        2963.50           2335       33057.00    144797.90
  164.03        2963.75           2339       37265.00    163334.80
  164.06        2964.00           2342       40454.00    177398.50
  164.09        2964.25           2346       44953.00    197262.40
  164.12        2964.50           2349       48607.00    213415.20
  164.15        2964.75           2353       52634.00    231237.70
  164.19        2965.00           2356       55722.00    244919.00
  164.22        2965.25           2360       59945.00    263649.70
  164.25        2965.50           2363       63222.00    278201.00
  164.28        2965.75           2367       67308.00    296365.00
  164.31        2966.00           2370       70178.00    309136.80
  164.34        2966.25           2374       72817.00    320890.50
  164.37        2966.50           2378       74313.00    327557.60
  164.40        2966.75           2381       74528.00    328516.00
  164.43        2967.00           2385       74483.00    328315.40
  164.46        2967.25           2388       74732.00    329425.50
  164.49        2967.50           2392       74345.00    327700.20
  164.52        2967.75           2395       73465.00    323778.00
  164.55        2968.00           2399       70682.00    311380.80
  164.58        2968.25           2402       67574.00    297548.20
  164.61        2968.50           2406       63655.00    280124.80
  164.65        2968.75           2409       60481.00    266028.80
  164.68        2969.00           2413       56845.00    249897.70
  164.71        2969.25           2417       52972.00    232734.50
  164.74        2969.50           2420       49557.00    217617.70
  164.77        2969.75           2424       44751.00    196369.90
  164.80        2970.00           2427       41501.00    182018.80
  164.83        2970.25           2431       36849.00    161501.20
  164.86        2970.50           2434       33899.00    148505.10
  164.89        2970.75           2438       29669.00    129890.20
  164.92        2971.00           2441       26369.00    115384.20
  164.95        2971.25           2445       22208.00     97113.94
  164.98        2971.50           2449       17930.00     78353.62
  165.01        2971.75           2452       15057.00     65768.09
  165.04        2972.00           2456       10670.00     46571.07
  165.07        2972.25           2459        7522.00     32811.21
  165.10        2972.50           2463        3566.00     15537.85
  165.13        2972.75           2466        1620.00      7048.33
  165.17        2973.00           2470         550.00      2382.49
  165.20        2973.25           2473         350.00      1510.54
  165.23        2973.50           2477         295.00      1270.76
  165.26        2973.75           2481         267.00      1148.69
  165.29        2974.00           2484         276.00      1187.93
  165.32        2974.25           2488         282.00      1214.09
  165.35        2974.50           2491         247.00      1061.50
  165.38        2974.75           2495         226.00       969.95
  165.41        2975.00           2498         256.00      1100.74
  165.44        2975.25           2502         260.00      1118.18
  165.47        2975.50           2505         229.00       983.03
  165.50        2975.75           2509         212.00       908.92
  165.53        2976.00           2512         270.00      1161.77
  165.56        2976.25           2516         218.00       935.08
  165.59        2976.50           2520         219.00       939.44
  165.62        2976.75           2523         202.00       865.33
  165.65        2977.00           2527         220.00       943.80
  165.69        2977.25           2530         195.00       834.81
  165.72        2977.50           2534         211.00       904.56
  165.75        2977.75           2537         207.00       887.12
  165.78        2978.00           2541         195.00       834.81
  165.81        2978.25           2544         199.00       852.25
  165.84        2978.50           2548         197.00       843.53
  165.87        2978.75           2552         193.00       826.09
  165.90        2979.00           2555         192.00       821.73
  165.93        2979.25           2559         189.00       808.65
  165.96        2979.50           2562         183.00       782.50
  165.99        2979.75           2566         188.00       804.29
  166.02        2980.00           2569         189.00       808.65
  166.05        2980.25           2573         180.00       769.42
  166.08        2980.50           2577         197.00       843.53
  166.11        2980.75           2580         186.00       795.58
  166.14        2981.00           2584         180.00       769.42
  166.17        2981.25           2587         169.00       721.46
  166.21        2981.50           2591         174.00       743.26
  166.24        2981.75           2594         166.00       708.39
  166.27        2982.00           2598         172.00       734.54
  166.30        2982.25           2601         178.00       760.70
  166.33        2982.50           2605         170.00       725.82
  166.36        2982.75           2609         162.00       690.95
  166.39        2983.00           2612         172.00       734.54
  166.42        2983.25           2616         176.00       751.98
  166.45        2983.50           2619         170.00       725.82
  166.48        2983.75           2623         161.00       686.59
  166.51        2984.00           2626         168.00       717.11
HS scan finished at 02:46:44
end
************************************************************
  HS Scan of (1) Internal mercury lamp
************************************************************
Integration time is 0.2294 seconds per sample
dh080817Reading 51.44 .94 3.41pr1000
************************************************************
Dead Time -------------------------  3.4E-08 
Number of Cycles Used -------------  4 
Starting Wavelength (Angstroms) ---  2950 
Final Wavelength (Angstoms) -------  2984 
Wavelength Increment (Angstroms) --  .25 
Filter Wheel #1 Position ---------- (1) Ground quartz diffuser (ND=2.32)
Filter Wheel #2 Position ---------- (1) Neutral Density 0.494



************************************************************
HS scan start time = 20:37:31
Dark Count =  2.4 


Time (GMT)  Wavelength (Ang)  Step Number  Raw Counts  Counts/Second

 1238.41        2950.00           2144         183.00       787.29
 1238.61        2950.25           2147         188.00       809.09
 1238.64        2950.50           2151         185.00       796.01
 1238.67        2950.75           2155         186.00       800.37
 1238.70        2951.00           2158         188.00       809.09
 1238.73        2951.25           2162         179.00       769.85
 1238.76        2951.50           2165         185.00       796.01
 1238.79        2951.75           2169         192.00       826.53
 1238.82        2952.00           2172         191.00       822.17
 1238.86        2952.25           2176         178.00       765.50
 1238.89        2952.50           2179         187.00       804.73
 1238.92        2952.75           2183         193.00       830.89
 1238.95        2953.00           2186         191.00       822.17
 1238.98        2953.25           2190         206.00       887.56
 1239.01        2953.50           2193         198.00       852.68
 1239.04        2953.75           2197         189.00       813.45
 1239.07        2954.00           2200         190.00       817.81
 1239.10        2954.25           2204         193.00       830.89
 1239.13        2954.50           2208         203.00       874.48
 1239.16        2954.75           2211         192.00       826.53
 1239.19        2955.00           2215         199.00       857.04
 1239.22        2955.25           2218         196.00       843.96
 1239.25        2955.50           2222         206.00       887.56
 1239.28        2955.75           2225         237.00      1022.70
 1239.31        2956.00           2229         209.00       900.64
 1239.34        2956.25           2232         211.00       909.36
 1239.37        2956.50           2236         201.00       865.76
 1239.41        2956.75           2239         222.00       957.31
 1239.44        2957.00           2243         235.00      1013.98
 1239.47        2957.25           2246         210.00       905.00
 1239.50        2957.50           2250         208.00       896.28
 1239.53        2957.75           2254         250.00      1079.38
 1239.56        2958.00           2257         230.00       992.19
 1239.59        2958.25           2261         216.00       931.15
 1239.62        2958.50           2264         230.00       992.19
 1239.65        2958.75           2268         234.00      1009.62
 1239.68        2959.00           2271         252.00      1088.10
 1239.71        2959.25           2275         238.00      1027.06
 1239.74        2959.50           2278         246.00      1061.94
 1239.77        2959.75           2282         279.00      1205.80
 1239.80        2960.00           2285         244.00      1053.22
 1239.83        2960.25           2289         266.00      1149.13
 1239.86        2960.50           2293         268.00      1157.85
 1239.89        2960.75           2296         284.00      1227.60
 1239.93        2961.00           2300         333.00      1441.22
 1239.96        2961.25           2303         562.00      2439.61
 1239.99        2961.50           2307        2169.00      9447.67
 1240.02        2961.75           2310        4554.00     19854.73
 1240.05        2962.00           2314        8183.00     35704.17
 1240.08        2962.25           2317       11278.00     49234.92
 1240.11        2962.50           2321       15416.00     67344.96
 1240.14        2962.75           2324       18438.00     80584.91
 1240.17        2963.00           2328       22661.00     99106.71
 1240.20        2963.25           2331       26130.00    114339.00
 1240.23        2963.50           2335       30698.00    134421.10
 1240.26        2963.75           2339       35121.00    153892.10
 1240.29        2964.00           2342       38583.00    169150.50
 1240.32        2964.25           2346       43298.00    189957.00
 1240.35        2964.50           2349       46267.00    203073.90
 1240.38        2964.75           2353       50772.00    222999.10
 1240.41        2965.00           2356       53722.00    236061.50
 1240.45        2965.25           2360       58236.00    256071.60
 1240.48        2965.50           2363       62046.00    272982.30
 1240.51        2965.75           2367       65720.00    289307.90
 1240.54        2966.00           2370       68676.00    302456.20
 1240.57        2966.25           2374       72334.00    318743.50
 1240.60        2966.50           2378       75076.00    330964.10
 1240.63        2966.75           2381       76211.00    336025.60
 1240.66        2967.00           2385       76563.00    337595.70
 1240.69        2967.25           2388       76624.00    337867.80
 1240.72        2967.50           2392       76275.00    336311.10
 1240.75        2967.75           2395       76642.00    337948.10
 1240.78        2968.00           2399       74523.00    328498.60
 1240.81        2968.25           2402       72380.00    318948.40
 1240.84        2968.50           2406       68909.00    303493.10
 1240.87        2968.75           2409       65329.00    287569.60
 1240.90        2969.00           2413       60648.00    266775.00
 1240.93        2969.25           2417       56001.00    246160.70
 1240.97        2969.50           2420       52688.00    231481.70
 1241.00        2969.75           2424       47872.00    210169.60
 1241.03        2970.00           2427       45014.00    197536.80
 1241.06        2970.25           2431       40661.00    178316.70
 1241.09        2970.50           2434       36898.00    161722.00
 1241.12        2970.75           2438       32415.00    141976.60
 1241.15        2971.00           2441       28863.00    126350.70
 1241.18        2971.25           2445       24243.00    106051.30
 1241.21        2971.50           2449       19879.00     86902.42
 1241.24        2971.75           2452       16937.00     74007.26
 1241.27        2972.00           2456       12800.00     55893.39
 1241.30        2972.25           2459        9534.00     41608.95
 1241.33        2972.50           2463        5071.00     22111.65
 1241.36        2972.75           2466        2535.00     11044.25
 1241.39        2973.00           2470         808.00      3512.19
 1241.42        2973.25           2473         439.00      1903.35
 1241.45        2973.50           2477         322.00      1393.27
 1241.49        2973.75           2481         287.00      1240.68
 1241.52        2974.00           2484         289.00      1249.40
 1241.55        2974.25           2488         272.00      1175.29
 1241.58        2974.50           2491         267.00      1153.49
 1241.61        2974.75           2495         262.00      1131.69
 1241.64        2975.00           2498         276.00      1192.73
 1241.67        2975.25           2502         240.00      1035.78
 1241.70        2975.50           2505         249.00      1075.02
 1241.73        2975.75           2509         252.00      1088.10
 1241.76        2976.00           2512         239.00      1031.42
 1241.79        2976.25           2516         231.00       996.55
 1241.82        2976.50           2520         227.00       979.11
 1241.85        2976.75           2523         225.00       970.39
 1241.88        2977.00           2527         222.00       957.31
 1241.91        2977.25           2530         225.00       970.39
 1241.94        2977.50           2534         217.00       935.51
 1241.97        2977.75           2537         209.00       900.64
 1242.01        2978.00           2541         204.00       878.84
 1242.04        2978.25           2544         208.00       896.28
 1242.07        2978.50           2548         223.00       961.67
 1242.10        2978.75           2552         207.00       891.92
 1242.13        2979.00           2555         204.00       878.84
 1242.16        2979.25           2559         204.00       878.84
 1242.19        2979.50           2562         200.00       861.40
 1242.22        2979.75           2566         200.00       861.40
 1242.25        2980.00           2569         210.00       905.00
 1242.28        2980.25           2573         208.00       896.28
 1242.31        2980.50           2577         201.00       865.76
 1242.34        2980.75           2580         201.00       865.76
 1242.37        2981.00           2584         200.00       861.40
 1242.40        2981.25           2587         181.00       778.57
 1242.43        2981.50           2591         191.00       822.17
 1242.46        2981.75           2594         187.00       804.73
 1242.49        2982.00           2598         179.00       769.85
 1242.52        2982.25           2601         186.00       800.37
 1242.56        2982.50           2605         178.00       765.50
 1242.59        2982.75           2609         182.00       782.93
 1242.62        2983.00           2612         185.00       796.01
 1242.65        2983.25           2616         183.00       787.29
 1242.68        2983.50           2619         177.00       761.14
 1242.71        2983.75           2623         183.00       787.29
 1242.74        2984.00           2626         180.00       774.21
HS scan finished at 20:42:58
end
