************************************************************
  HS Scan of (1) Internal mercury lamp
************************************************************
Integration time is 0.2294 seconds per sample
dh100817Reading 51.44 .94 3.35pr1000
************************************************************
Dead Time -------------------------  3.4E-08 
Number of Cycles Used -------------  4 
Starting Wavelength (Angstroms) ---  2950 
Final Wavelength (Angstoms) -------  2984 
Wavelength Increment (Angstroms) --  .25 
Filter Wheel #1 Position ---------- (1) Ground quartz diffuser (ND=2.32)
Filter Wheel #2 Position ---------- (1) Neutral Density 0.494



************************************************************
HS scan start time = 01:13:21
Dark Count =  1.9 


Time (GMT)  Wavelength (Ang)  Step Number  Raw Counts  Counts/Second

   74.24        2950.00           2144         162.00       697.92
   74.44        2950.25           2147         168.00       724.08
   74.47        2950.50           2151         176.00       758.96
   74.50        2950.75           2155         168.00       724.08
   74.53        2951.00           2158         175.00       754.60
   74.56        2951.25           2162         163.00       702.28
   74.59        2951.50           2165         155.00       667.41
   74.62        2951.75           2169         171.00       737.16
   74.65        2952.00           2172         175.00       754.60
   74.68        2952.25           2176         162.00       697.92
   74.71        2952.50           2179         158.00       680.49
   74.74        2952.75           2183         161.00       693.56
   74.77        2953.00           2186         179.00       772.03
   74.80        2953.25           2190         181.00       780.75
   74.83        2953.50           2193         172.00       741.52
   74.86        2953.75           2197         163.00       702.28
   74.89        2954.00           2200         167.00       719.72
   74.92        2954.25           2204         173.00       745.88
   74.95        2954.50           2208         182.00       785.11
   74.99        2954.75           2211         178.00       767.67
   75.02        2955.00           2215         186.00       802.55
   75.05        2955.25           2218         176.00       758.96
   75.08        2955.50           2222         176.00       758.96
   75.11        2955.75           2225         181.00       780.75
   75.14        2956.00           2229         178.00       767.67
   75.17        2956.25           2232         173.00       745.88
   75.20        2956.50           2236         190.00       819.99
   75.23        2956.75           2239         187.00       806.91
   75.26        2957.00           2243         200.00       863.58
   75.29        2957.25           2246         211.00       911.54
   75.32        2957.50           2250         206.00       889.74
   75.35        2957.75           2254         201.00       867.94
   75.38        2958.00           2257         192.00       828.71
   75.41        2958.25           2261         221.00       955.13
   75.44        2958.50           2264         200.00       863.58
   75.47        2958.75           2268         217.00       937.69
   75.51        2959.00           2271         237.00      1024.88
   75.54        2959.25           2275         219.00       946.41
   75.57        2959.50           2278         234.00      1011.80
   75.60        2959.75           2282         234.00      1011.80
   75.63        2960.00           2285         234.00      1011.80
   75.66        2960.25           2289         249.00      1077.20
   75.69        2960.50           2293         242.00      1046.68
   75.72        2960.75           2296         268.00      1160.03
   75.75        2961.00           2300         329.00      1425.96
   75.78        2961.25           2303         769.00      3344.32
   75.81        2961.50           2307        2526.00     11007.17
   75.84        2961.75           2310        4961.00     21633.61
   75.87        2962.00           2314        9001.00     39281.28
   75.90        2962.25           2317       11798.00     51511.68
   75.93        2962.50           2321       15050.00     65744.45
   75.96        2962.75           2324       17903.00     78242.30
   76.00        2963.00           2328       21915.00     95835.30
   76.03        2963.25           2331       25227.00    110374.60
   76.06        2963.50           2335       29983.00    131278.20
   76.09        2963.75           2339       33802.00    148085.10
   76.12        2964.00           2342       36271.00    158961.00
   76.15        2964.25           2346       40459.00    177427.60
   76.18        2964.50           2349       43695.00    191712.40
   76.21        2964.75           2353       47333.00    207788.50
   76.24        2965.00           2356       50342.00    221098.30
   76.27        2965.25           2360       54440.00    239244.70
   76.30        2965.50           2363       57387.00    252308.20
   76.33        2965.75           2367       61273.00    269552.00
   76.36        2966.00           2370       63694.00    280305.20
   76.39        2966.25           2374       66592.00    293187.50
   76.42        2966.50           2378       67854.00    298801.00
   76.45        2966.75           2381       68760.00    302832.30
   76.48        2967.00           2385       68483.00    301599.60
   76.52        2967.25           2388       68859.00    303272.80
   76.55        2967.50           2392       68265.00    300629.60
   76.58        2967.75           2395       67596.00    297653.20
   76.61        2968.00           2399       65459.00    288149.70
   76.64        2968.25           2402       63167.00    277963.80
   76.67        2968.50           2406       59293.00    260763.40
   76.70        2968.75           2409       56424.00    248038.10
   76.73        2969.00           2413       52846.00    232183.60
   76.76        2969.25           2417       48959.00    214979.30
   76.79        2969.50           2420       46523.00    204207.60
   76.82        2969.75           2424       42252.00    185340.80
   76.85        2970.00           2427       39340.00    172491.20
   76.88        2970.25           2431       35336.00    154841.40
   76.91        2970.50           2434       32150.00    140812.50
   76.94        2970.75           2438       27855.00    121921.50
   76.97        2971.00           2441       24870.00    108806.80
   77.00        2971.25           2445       20980.00     91733.34
   77.04        2971.50           2449       17381.00     75954.83
   77.07        2971.75           2452       14537.00     63498.32
   77.10        2972.00           2456       10876.00     47478.94
   77.13        2972.25           2459        7801.00     34037.19
   77.16        2972.50           2463        4003.00     17451.94
   77.19        2972.75           2466        1918.00      8355.03
   77.22        2973.00           2470         616.00      2677.23
   77.25        2973.25           2473         361.00      1565.47
   77.28        2973.50           2477         301.00      1303.89
   77.31        2973.75           2481         268.00      1160.03
   77.34        2974.00           2484         279.00      1207.98
   77.37        2974.25           2488         262.00      1133.87
   77.40        2974.50           2491         244.00      1055.40
   77.43        2974.75           2495         255.00      1103.35
   77.46        2975.00           2498         221.00       955.13
   77.49        2975.25           2502         241.00      1042.32
   77.52        2975.50           2505         216.00       933.33
   77.55        2975.75           2509         217.00       937.69
   77.59        2976.00           2512         216.00       933.33
   77.62        2976.25           2516         221.00       955.13
   77.65        2976.50           2520         204.00       881.02
   77.68        2976.75           2523         203.00       876.66
   77.71        2977.00           2527         203.00       876.66
   77.74        2977.25           2530         215.00       928.97
   77.77        2977.50           2534         191.00       824.35
   77.80        2977.75           2537         187.00       806.91
   77.83        2978.00           2541         181.00       780.75
   77.86        2978.25           2544         178.00       767.67
   77.89        2978.50           2548         185.00       798.19
   77.92        2978.75           2552         188.00       811.27
   77.95        2979.00           2555         179.00       772.03
   77.98        2979.25           2559         195.00       841.79
   78.01        2979.50           2562         180.00       776.39
   78.04        2979.75           2566         169.00       728.44
   78.07        2980.00           2569         167.00       719.72
   78.11        2980.25           2573         176.00       758.96
   78.14        2980.50           2577         171.00       737.16
   78.17        2980.75           2580         180.00       776.39
   78.20        2981.00           2584         165.00       711.00
   78.23        2981.25           2587         157.00       676.13
   78.26        2981.50           2591         163.00       702.28
   78.29        2981.75           2594         170.00       732.80
   78.32        2982.00           2598         161.00       693.56
   78.35        2982.25           2601         150.00       645.61
   78.38        2982.50           2605         159.00       684.85
   78.41        2982.75           2609         161.00       693.56
   78.44        2983.00           2612         158.00       680.49
   78.47        2983.25           2616         154.00       663.05
   78.50        2983.50           2619         164.00       706.64
   78.53        2983.75           2623         154.00       663.05
   78.56        2984.00           2626         157.00       676.13
HS scan finished at 01:18:47
end
************************************************************
  HS Scan of (1) Internal mercury lamp
************************************************************
Integration time is 0.2294 seconds per sample
dh100817Reading 51.44 .94 3.7pr1000
************************************************************
Dead Time -------------------------  3.4E-08 
Number of Cycles Used -------------  4 
Starting Wavelength (Angstroms) ---  2950 
Final Wavelength (Angstoms) -------  2984 
Wavelength Increment (Angstroms) --  .25 
Filter Wheel #1 Position ---------- (1) Ground quartz diffuser (ND=2.32)
Filter Wheel #2 Position ---------- (1) Neutral Density 0.494



************************************************************
HS scan start time = 20:37:27
Dark Count =  5.5 


Time (GMT)  Wavelength (Ang)  Step Number  Raw Counts  Counts/Second

 1238.35        2950.00           2144         141.00       590.68
 1238.54        2950.25           2147         129.00       538.37
 1238.57        2950.50           2151         155.00       651.71
 1238.60        2950.75           2155         156.00       656.07
 1238.63        2951.00           2158         139.00       581.96
 1238.66        2951.25           2162         133.00       555.81
 1238.69        2951.50           2165         151.00       634.28
 1238.72        2951.75           2169         148.00       621.20
 1238.75        2952.00           2172         139.00       581.96
 1238.78        2952.25           2176         138.00       577.61
 1238.81        2952.50           2179         148.00       621.20
 1238.85        2952.75           2183         155.00       651.71
 1238.88        2953.00           2186         159.00       669.15
 1238.91        2953.25           2190         159.00       669.15
 1238.94        2953.50           2193         154.00       647.36
 1238.97        2953.75           2197         162.00       682.23
 1239.00        2954.00           2200         158.00       664.79
 1239.03        2954.25           2204         160.00       673.51
 1239.06        2954.50           2208         156.00       656.07
 1239.09        2954.75           2211         164.00       690.95
 1239.12        2955.00           2215         164.00       690.95
 1239.15        2955.25           2218         169.00       712.75
 1239.18        2955.50           2222         147.00       616.84
 1239.21        2955.75           2225         160.00       673.51
 1239.24        2956.00           2229         165.00       695.31
 1239.27        2956.25           2232         165.00       695.31
 1239.30        2956.50           2236         174.00       734.54
 1239.33        2956.75           2239         169.00       712.75
 1239.36        2957.00           2243         171.00       721.46
 1239.40        2957.25           2246         157.00       660.43
 1239.43        2957.50           2250         181.00       765.06
 1239.46        2957.75           2254         177.00       747.62
 1239.49        2958.00           2257         178.00       751.98
 1239.52        2958.25           2261         184.00       778.14
 1239.55        2958.50           2264         182.00       769.42
 1239.58        2958.75           2268         181.00       765.06
 1239.61        2959.00           2271         182.00       769.42
 1239.64        2959.25           2275         189.00       799.93
 1239.67        2959.50           2278         202.00       856.61
 1239.70        2959.75           2282         200.00       847.89
 1239.73        2960.00           2285         214.00       908.92
 1239.76        2960.25           2289         212.00       900.20
 1239.79        2960.50           2293         239.00      1017.91
 1239.82        2960.75           2296         215.00       913.28
 1239.85        2961.00           2300         280.00      1196.65
 1239.89        2961.25           2303         529.00      2282.22
 1239.92        2961.50           2307        1817.00      7898.81
 1239.95        2961.75           2310        3554.00     15476.76
 1239.98        2962.00           2314        6624.00     28879.70
 1240.01        2962.25           2317        9206.00     40161.60
 1240.04        2962.50           2321       12738.00     55608.53
 1240.07        2962.75           2324       15201.00     66389.90
 1240.10        2963.00           2328       18516.00     80913.23
 1240.13        2963.25           2331       21130.00     92375.55
 1240.16        2963.50           2335       25176.00    110134.80
 1240.19        2963.75           2339       29121.00    127471.50
 1240.22        2964.00           2342       31545.00    138134.20
 1240.25        2964.25           2346       35096.00    153768.30
 1240.28        2964.50           2349       37417.00    163996.00
 1240.31        2964.75           2353       41159.00    180500.60
 1240.34        2965.00           2356       43592.00    191241.60
 1240.37        2965.25           2360       47299.00    207622.20
 1240.41        2965.50           2363       49971.00    219440.70
 1240.44        2965.75           2367       53030.00    232982.60
 1240.47        2966.00           2370       55781.00    245171.70
 1240.50        2966.25           2374       58274.00    256226.40
 1240.53        2966.50           2378       59904.00    263458.80
 1240.56        2966.75           2381       60119.00    264413.10
 1240.59        2967.00           2385       60502.00    266113.10
 1240.62        2967.25           2388       60531.00    266241.80
 1240.65        2967.50           2392       60366.00    265509.40
 1240.68        2967.75           2395       60319.00    265300.80
 1240.71        2968.00           2399       58284.00    256270.80
 1240.74        2968.25           2402       56687.00    249188.20
 1240.77        2968.50           2406       53419.00    234705.50
 1240.80        2968.75           2409       51237.00    225043.60
 1240.83        2969.00           2413       47665.00    209240.50
 1240.86        2969.25           2417       44335.00    194523.40
 1240.89        2969.50           2420       41724.00    182994.20
 1240.92        2969.75           2424       38914.00    170596.50
 1240.96        2970.00           2427       35767.00    156724.40
 1240.99        2970.25           2431       32188.00    140963.90
 1241.02        2970.50           2434       29864.00    130739.00
 1241.05        2970.75           2438       26020.00    113842.20
 1241.08        2971.00           2441       23166.00    101309.60
 1241.11        2971.25           2445       19496.00     85209.46
 1241.14        2971.50           2449       15934.00     69599.99
 1241.17        2971.75           2452       13499.00     58938.83
 1241.20        2972.00           2456       10574.00     46142.52
 1241.23        2972.25           2459        8061.00     35157.52
 1241.26        2972.50           2463        4808.00     20949.97
 1241.29        2972.75           2466        2487.00     10821.33
 1241.32        2973.00           2470         667.00      2883.89
 1241.35        2973.25           2473         317.00      1357.95
 1241.38        2973.50           2477         254.00      1083.30
 1241.41        2973.75           2481         241.00      1026.63
 1241.44        2974.00           2484         229.00       974.31
 1241.48        2974.25           2488         215.00       913.28
 1241.51        2974.50           2491         213.00       904.56
 1241.54        2974.75           2495         230.00       978.67
 1241.57        2975.00           2498         209.00       887.12
 1241.60        2975.25           2502         204.00       865.33
 1241.63        2975.50           2505         207.00       878.40
 1241.66        2975.75           2509         210.00       891.48
 1241.69        2976.00           2512         206.00       874.05
 1241.72        2976.25           2516         199.00       843.53
 1241.75        2976.50           2520         191.00       808.65
 1241.78        2976.75           2523         185.00       782.50
 1241.81        2977.00           2527         188.00       795.58
 1241.84        2977.25           2530         191.00       808.65
 1241.87        2977.50           2534         175.00       738.90
 1241.90        2977.75           2537         196.00       830.45
 1241.93        2978.00           2541         183.00       773.78
 1241.97        2978.25           2544         184.00       778.14
 1242.00        2978.50           2548         174.00       734.54
 1242.03        2978.75           2552         187.00       791.22
 1242.06        2979.00           2555         162.00       682.23
 1242.09        2979.25           2559         172.00       725.82
 1242.12        2979.50           2562         170.00       717.11
 1242.15        2979.75           2566         154.00       647.36
 1242.18        2980.00           2569         167.00       704.03
 1242.21        2980.25           2573         163.00       686.59
 1242.24        2980.50           2577         159.00       669.15
 1242.27        2980.75           2580         168.00       708.39
 1242.30        2981.00           2584         163.00       686.59
 1242.33        2981.25           2587         150.00       629.92
 1242.36        2981.50           2591         166.00       699.67
 1242.39        2981.75           2594         153.00       643.00
 1242.44        2982.00           2598         163.00       686.59
 1242.47        2982.25           2601         165.00       695.31
 1242.50        2982.50           2605         159.00       669.15
 1242.53        2982.75           2609         154.00       647.36
 1242.56        2983.00           2612         160.00       673.51
 1242.59        2983.25           2616         164.00       690.95
 1242.62        2983.50           2619         155.00       651.71
 1242.65        2983.75           2623         149.00       625.56
 1242.68        2984.00           2626         152.00       638.64
HS scan finished at 20:42:54
end
