************************************************************
  HS Scan of (1) Internal mercury lamp
************************************************************
Integration time is 0.2294 seconds per sample
dh160817Reading 51.44 .94 3.33pr1000
************************************************************
Dead Time -------------------------  3.4E-08 
Number of Cycles Used -------------  4 
Starting Wavelength (Angstroms) ---  2950 
Final Wavelength (Angstoms) -------  2984 
Wavelength Increment (Angstroms) --  .25 
Filter Wheel #1 Position ---------- (1) Ground quartz diffuser (ND=2.32)
Filter Wheel #2 Position ---------- (1) Neutral Density 0.494



************************************************************
HS scan start time = 01:34:14
Dark Count =  1.6 


Time (GMT)  Wavelength (Ang)  Step Number  Raw Counts  Counts/Second

   95.13        2950.00           2144         156.00       673.08
   95.33        2950.25           2147         162.00       699.23
   95.36        2950.50           2151         171.00       738.47
   95.39        2950.75           2155         168.00       725.39
   95.42        2951.00           2158         169.00       729.75
   95.45        2951.25           2162         168.00       725.39
   95.48        2951.50           2165         177.00       764.62
   95.51        2951.75           2169         159.00       686.15
   95.54        2952.00           2172         169.00       729.75
   95.57        2952.25           2176         169.00       729.75
   95.60        2952.50           2179         173.00       747.19
   95.63        2952.75           2183         182.00       786.42
   95.66        2953.00           2186         176.00       760.26
   95.69        2953.25           2190         165.00       712.31
   95.73        2953.50           2193         184.00       795.14
   95.76        2953.75           2197         175.00       755.90
   95.79        2954.00           2200         174.00       751.54
   95.82        2954.25           2204         174.00       751.54
   95.85        2954.50           2208         178.00       768.98
   95.88        2954.75           2211         177.00       764.62
   95.91        2955.00           2215         186.00       803.86
   95.94        2955.25           2218         181.00       782.06
   95.97        2955.50           2222         177.00       764.62
   96.00        2955.75           2225         179.00       773.34
   96.03        2956.00           2229         179.00       773.34
   96.06        2956.25           2232         194.00       838.73
   96.09        2956.50           2236         197.00       851.81
   96.12        2956.75           2239         192.00       830.01
   96.15        2957.00           2243         198.00       856.17
   96.18        2957.25           2246         195.00       843.09
   96.21        2957.50           2250         190.00       821.30
   96.25        2957.75           2254         213.00       921.56
   96.28        2958.00           2257         196.00       847.45
   96.31        2958.25           2261         212.00       917.20
   96.34        2958.50           2264         215.00       930.28
   96.37        2958.75           2268         206.00       891.05
   96.40        2959.00           2271         256.00      1109.02
   96.43        2959.25           2275         225.00       973.88
   96.46        2959.50           2278         252.00      1091.58
   96.49        2959.75           2282         220.00       952.08
   96.52        2960.00           2285         251.00      1087.22
   96.55        2960.25           2289         241.00      1043.63
   96.58        2960.50           2293         264.00      1143.90
   96.61        2960.75           2296         282.00      1222.37
   96.64        2961.00           2300         344.00      1492.67
   96.67        2961.25           2303         777.00      3380.51
   96.70        2961.50           2307        2667.00     11623.60
   96.73        2961.75           2310        5143.00     22429.48
   96.77        2962.00           2314        8531.00     37228.44
   96.80        2962.25           2317       11667.00     50939.94
   96.83        2962.50           2321       15390.00     67234.61
   96.86        2962.75           2324       18582.00     81219.63
   96.89        2963.00           2328       22579.00     98750.36
   96.92        2963.25           2331       25865.00    113178.40
   96.95        2963.50           2335       29560.00    129419.10
   96.98        2963.75           2339       33420.00    146404.40
   97.01        2964.00           2342       36790.00    161249.50
   97.04        2964.25           2346       40207.00    176317.10
   97.07        2964.50           2349       44126.00    193617.40
   97.10        2964.75           2353       46653.00    204783.60
   97.13        2965.00           2356       50480.00    221710.40
   97.16        2965.25           2360       53430.00    234771.50
   97.19        2965.50           2363       57392.00    252331.70
   97.22        2965.75           2367       59932.00    263600.40
   97.25        2966.00           2370       63937.00    281386.30
   97.29        2966.25           2374       65450.00    288111.00
   97.32        2966.50           2378       68351.00    301013.60
   97.35        2966.75           2381       67262.00    296168.80
   97.38        2967.00           2385       68623.00    302223.90
   97.41        2967.25           2388       67234.00    296044.20
   97.44        2967.50           2392       68278.00    300688.80
   97.47        2967.75           2395       66308.00    291925.90
   97.50        2968.00           2399       65712.00    289275.80
   97.53        2968.25           2402       61578.00    270907.50
   97.56        2968.50           2406       59755.00    262814.90
   97.59        2968.75           2409       56108.00    246638.50
   97.62        2969.00           2413       53305.00    234217.90
   97.65        2969.25           2417       48567.00    213246.70
   97.68        2969.50           2420       46126.00    202454.20
   97.71        2969.75           2424       41439.00    181753.50
   97.74        2970.00           2427       39001.00    170997.40
   97.77        2970.25           2431       34505.00    151182.30
   97.81        2970.50           2434       32086.00    140532.10
   97.84        2970.75           2438       27265.00    119329.70
   97.87        2971.00           2441       24545.00    107380.90
   97.90        2971.25           2445       20050.00     87655.80
   97.93        2971.50           2449       16590.00     72490.57
   97.96        2971.75           2452       13366.00     58373.81
   97.99        2972.00           2456        9851.00     42998.31
   98.02        2972.25           2459        6891.00     30062.97
   98.05        2972.50           2463        3739.00     16301.10
   98.08        2972.75           2466        1742.00      7588.71
   98.11        2973.00           2470         530.00      2303.58
   98.14        2973.25           2473         324.00      1405.47
   98.17        2973.50           2477         262.00      1135.18
   98.20        2973.75           2481         245.00      1061.07
   98.23        2974.00           2484         272.00      1178.77
   98.26        2974.25           2488         249.00      1078.51
   98.29        2974.50           2491         226.00       978.24
   98.33        2974.75           2495         219.00       947.72
   98.36        2975.00           2498         237.00      1026.19
   98.39        2975.25           2502         223.00       965.16
   98.42        2975.50           2505         209.00       904.13
   98.45        2975.75           2509         206.00       891.05
   98.48        2976.00           2512         205.00       886.69
   98.51        2976.25           2516         184.00       795.14
   98.54        2976.50           2520         192.00       830.01
   98.57        2976.75           2523         192.00       830.01
   98.60        2977.00           2527         196.00       847.45
   98.63        2977.25           2530         196.00       847.45
   98.66        2977.50           2534         189.00       816.94
   98.69        2977.75           2537         202.00       873.61
   98.72        2978.00           2541         186.00       803.86
   98.75        2978.25           2544         166.00       716.67
   98.78        2978.50           2548         182.00       786.42
   98.81        2978.75           2552         187.00       808.22
   98.84        2979.00           2555         172.00       742.83
   98.88        2979.25           2559         172.00       742.83
   98.91        2979.50           2562         169.00       729.75
   98.94        2979.75           2566         164.00       707.95
   98.97        2980.00           2569         166.00       716.67
   99.00        2980.25           2573         166.00       716.67
   99.03        2980.50           2577         159.00       686.15
   99.06        2980.75           2580         176.00       760.26
   99.09        2981.00           2584         157.00       677.43
   99.12        2981.25           2587         163.00       703.59
   99.15        2981.50           2591         160.00       690.51
   99.18        2981.75           2594         155.00       668.72
   99.21        2982.00           2598         158.00       681.79
   99.24        2982.25           2601         170.00       734.11
   99.27        2982.50           2605         156.00       673.08
   99.30        2982.75           2609         155.00       668.72
   99.33        2983.00           2612         169.00       729.75
   99.36        2983.25           2616         148.00       638.20
   99.40        2983.50           2619         153.00       660.00
   99.43        2983.75           2623         144.00       620.76
   99.46        2984.00           2626         163.00       703.59
HS scan finished at 01:39:41
end
************************************************************
  HS Scan of (1) Internal mercury lamp
************************************************************
Integration time is 0.2294 seconds per sample
dh160817Reading 51.44 .94 3.68pr1000
************************************************************
Dead Time -------------------------  3.4E-08 
Number of Cycles Used -------------  4 
Starting Wavelength (Angstroms) ---  2950 
Final Wavelength (Angstoms) -------  2984 
Wavelength Increment (Angstroms) --  .25 
Filter Wheel #1 Position ---------- (1) Ground quartz diffuser (ND=2.32)
Filter Wheel #2 Position ---------- (1) Neutral Density 0.494



************************************************************
HS scan start time = 20:07:27
Dark Count =  4.4 


Time (GMT)  Wavelength (Ang)  Step Number  Raw Counts  Counts/Second

 1208.34        2950.00           2144         146.00       617.28
 1208.54        2950.25           2147         148.00       625.99
 1208.57        2950.50           2151         147.00       621.63
 1208.60        2950.75           2155         145.00       612.92
 1208.63        2951.00           2158         147.00       621.63
 1208.66        2951.25           2162         166.00       704.46
 1208.69        2951.50           2165         164.00       695.74
 1208.72        2951.75           2169         153.00       647.79
 1208.75        2952.00           2172         161.00       682.67
 1208.78        2952.25           2176         155.00       656.51
 1208.81        2952.50           2179         145.00       612.92
 1208.84        2952.75           2183         166.00       704.46
 1208.87        2953.00           2186         154.00       652.15
 1208.90        2953.25           2190         154.00       652.15
 1208.93        2953.50           2193         175.00       743.70
 1208.97        2953.75           2197         166.00       704.46
 1209.00        2954.00           2200         153.00       647.79
 1209.03        2954.25           2204         163.00       691.39
 1209.06        2954.50           2208         160.00       678.31
 1209.09        2954.75           2211         161.00       682.67
 1209.12        2955.00           2215         174.00       739.34
 1209.15        2955.25           2218         153.00       647.79
 1209.18        2955.50           2222         174.00       739.34
 1209.21        2955.75           2225         168.00       713.18
 1209.24        2956.00           2229         170.00       721.90
 1209.27        2956.25           2232         168.00       713.18
 1209.30        2956.50           2236         175.00       743.70
 1209.33        2956.75           2239         166.00       704.46
 1209.36        2957.00           2243         183.00       778.57
 1209.39        2957.25           2246         180.00       765.50
 1209.42        2957.50           2250         183.00       778.57
 1209.45        2957.75           2254         173.00       734.98
 1209.49        2958.00           2257         187.00       796.01
 1209.52        2958.25           2261         181.00       769.85
 1209.55        2958.50           2264         188.00       800.37
 1209.58        2958.75           2268         192.00       817.81
 1209.61        2959.00           2271         204.00       870.12
 1209.64        2959.25           2275         206.00       878.84
 1209.67        2959.50           2278         213.00       909.36
 1209.70        2959.75           2282         206.00       878.84
 1209.73        2960.00           2285         222.00       948.59
 1209.76        2960.25           2289         214.00       913.72
 1209.79        2960.50           2293         221.00       944.23
 1209.82        2960.75           2296         247.00      1057.58
 1209.85        2961.00           2300         287.00      1231.96
 1209.88        2961.25           2303         424.00      1829.23
 1209.91        2961.50           2307        1434.00      6233.23
 1209.94        2961.75           2310        3076.00     13395.81
 1209.97        2962.00           2314        5966.00     26010.79
 1210.00        2962.25           2317        8492.00     37045.76
 1210.04        2962.50           2321       11898.00     51938.20
 1210.07        2962.75           2324       14195.00     61990.15
 1210.10        2963.00           2328       18137.00     79256.88
 1210.13        2963.25           2331       20940.00     91546.93
 1210.16        2963.50           2335       24360.00    106556.20
 1210.19        2963.75           2339       28319.00    123950.20
 1210.22        2964.00           2342       30767.00    134715.90
 1210.25        2964.25           2346       34370.00    150575.40
 1210.28        2964.50           2349       36666.00    160690.70
 1210.31        2964.75           2353       41081.00    180161.30
 1210.34        2965.00           2356       43912.00    192659.80
 1210.37        2965.25           2360       47724.00    209506.20
 1210.40        2965.50           2363       50419.00    221428.00
 1210.43        2965.75           2367       53943.00    237031.70
 1210.46        2966.00           2370       55988.00    246094.20
 1210.49        2966.25           2374       59206.00    260366.20
 1210.52        2966.50           2378       61349.00    269878.30
 1210.56        2966.75           2381       61536.00    270708.60
 1210.59        2967.00           2385       61416.00    270175.80
 1210.62        2967.25           2388       61876.00    272218.50
 1210.65        2967.50           2392       61762.00    271712.20
 1210.68        2967.75           2395       61514.00    270611.00
 1210.71        2968.00           2399       59785.00    262935.60
 1210.74        2968.25           2402       57799.00    254124.40
 1210.77        2968.50           2406       53832.00    236539.90
 1210.80        2968.75           2409       51299.00    225323.00
 1210.83        2969.00           2413       47890.00    210240.30
 1210.86        2969.25           2417       44750.00    196361.50
 1210.89        2969.50           2420       42484.00    186354.00
 1210.92        2969.75           2424       38940.00    170716.00
 1210.95        2970.00           2427       36268.00    158936.80
 1210.98        2970.25           2431       32007.00    140172.10
 1211.01        2970.50           2434       28954.00    126742.00
 1211.04        2970.75           2438       25651.00    112226.00
 1211.08        2971.00           2441       22878.00    100050.30
 1211.11        2971.25           2445       19005.00     83061.62
 1211.14        2971.50           2449       15299.00     66823.85
 1211.17        2971.75           2452       12809.00     55924.02
 1211.20        2972.00           2456        9502.00     41460.32
 1211.23        2972.25           2459        6898.00     30081.32
 1211.26        2972.50           2463        3720.00     16205.96
 1211.29        2972.75           2466        1931.00      8400.83
 1211.32        2973.00           2470         615.00      2661.97
 1211.35        2973.25           2473         313.00      1345.31
 1211.38        2973.50           2477         261.00      1118.61
 1211.41        2973.75           2481         267.00      1144.77
 1211.44        2974.00           2484         274.00      1175.29
 1211.47        2974.25           2488         234.00      1000.91
 1211.50        2974.50           2491         233.00       996.55
 1211.54        2974.75           2495         219.00       935.51
 1211.57        2975.00           2498         244.00      1044.50
 1211.60        2975.25           2502         212.00       905.00
 1211.63        2975.50           2505         199.00       848.32
 1211.66        2975.75           2509         204.00       870.12
 1211.69        2976.00           2512         194.00       826.53
 1211.72        2976.25           2516         195.00       830.89
 1211.76        2976.50           2520         194.00       826.53
 1211.79        2976.75           2523         181.00       769.85
 1211.82        2977.00           2527         189.00       804.73
 1211.85        2977.25           2530         181.00       769.85
 1211.88        2977.50           2534         175.00       743.70
 1211.91        2977.75           2537         183.00       778.57
 1211.94        2978.00           2541         174.00       739.34
 1211.97        2978.25           2544         176.00       748.06
 1212.00        2978.50           2548         167.00       708.82
 1212.03        2978.75           2552         169.00       717.54
 1212.06        2979.00           2555         180.00       765.50
 1212.09        2979.25           2559         177.00       752.42
 1212.12        2979.50           2562         168.00       713.18
 1212.15        2979.75           2566         159.00       673.95
 1212.18        2980.00           2569         154.00       652.15
 1212.21        2980.25           2573         171.00       726.26
 1212.24        2980.50           2577         161.00       682.67
 1212.28        2980.75           2580         154.00       652.15
 1212.31        2981.00           2584         158.00       669.59
 1212.34        2981.25           2587         154.00       652.15
 1212.37        2981.50           2591         163.00       691.39
 1212.40        2981.75           2594         167.00       708.82
 1212.43        2982.00           2598         158.00       669.59
 1212.46        2982.25           2601         160.00       678.31
 1212.49        2982.50           2605         163.00       691.39
 1212.52        2982.75           2609         168.00       713.18
 1212.55        2983.00           2612         150.00       634.71
 1212.58        2983.25           2616         165.00       700.10
 1212.61        2983.50           2619         162.00       687.03
 1212.64        2983.75           2623         144.00       608.56
 1212.67        2984.00           2626         157.00       665.23
HS scan finished at 20:12:54
end
