************************************************************
  HS Scan of (1) Internal mercury lamp
************************************************************
Integration time is 0.2294 seconds per sample
dh110817Reading 51.44 .94 3.27pr1000
************************************************************
Dead Time -------------------------  3.4E-08 
Number of Cycles Used -------------  4 
Starting Wavelength (Angstroms) ---  2950 
Final Wavelength (Angstoms) -------  2984 
Wavelength Increment (Angstroms) --  .25 
Filter Wheel #1 Position ---------- (1) Ground quartz diffuser (ND=2.32)
Filter Wheel #2 Position ---------- (1) Neutral Density 0.494



************************************************************
HS scan start time = 01:15:39
Dark Count =  1.5 


Time (GMT)  Wavelength (Ang)  Step Number  Raw Counts  Counts/Second

   76.55        2950.00           2144         176.00       760.70
   76.75        2950.25           2147         118.00       507.86
   76.78        2950.50           2151         160.00       690.95
   76.81        2950.75           2155         144.00       621.20
   76.84        2951.00           2158         123.00       529.65
   76.87        2951.25           2162         136.00       586.32
   76.90        2951.50           2165         134.00       577.61
   76.93        2951.75           2169         149.00       643.00
   76.96        2952.00           2172         145.00       625.56
   76.99        2952.25           2176         135.00       581.96
   77.02        2952.50           2179         137.00       590.68
   77.05        2952.75           2183         131.00       564.53
   77.08        2953.00           2186         135.00       581.96
   77.11        2953.25           2190         139.00       599.40
   77.14        2953.50           2193         149.00       643.00
   77.17        2953.75           2197         140.00       603.76
   77.20        2954.00           2200         137.00       590.68
   77.24        2954.25           2204         169.00       730.18
   77.27        2954.50           2208         166.00       717.11
   77.30        2954.75           2211         146.00       629.92
   77.33        2955.00           2215         145.00       625.56
   77.36        2955.25           2218         166.00       717.11
   77.39        2955.50           2222         130.00       560.17
   77.42        2955.75           2225         158.00       682.23
   77.45        2956.00           2229         163.00       704.03
   77.48        2956.25           2232         149.00       643.00
   77.51        2956.50           2236         146.00       629.92
   77.54        2956.75           2239         155.00       669.15
   77.57        2957.00           2243         146.00       629.92
   77.60        2957.25           2246         160.00       690.95
   77.63        2957.50           2250         155.00       669.15
   77.66        2957.75           2254         162.00       699.67
   77.69        2958.00           2257         173.00       747.62
   77.72        2958.25           2261         151.00       651.71
   77.76        2958.50           2264         169.00       730.18
   77.79        2958.75           2268         179.00       773.78
   77.82        2959.00           2271         155.00       669.15
   77.85        2959.25           2275         180.00       778.14
   77.88        2959.50           2278         170.00       734.54
   77.91        2959.75           2282         173.00       747.62
   77.94        2960.00           2285         183.00       791.22
   77.97        2960.25           2289         184.00       795.58
   78.00        2960.50           2293         190.00       821.73
   78.03        2960.75           2296         213.00       922.00
   78.06        2961.00           2300         289.00      1253.32
   78.09        2961.25           2303         530.00      2304.02
   78.12        2961.50           2307        1832.00      7981.68
   78.15        2961.75           2310        3578.00     15598.94
   78.18        2962.00           2314        6599.00     28787.97
   78.21        2962.25           2317        8872.00     38719.20
   78.24        2962.50           2321       11979.00     52305.23
   78.27        2962.75           2324       14036.00     61306.83
   78.31        2963.00           2328       16924.00     73954.25
   78.34        2963.25           2331       19211.00     83977.46
   78.37        2963.50           2335       22685.00     99215.99
   78.40        2963.75           2339       25984.00    113701.60
   78.43        2964.00           2342       28270.00    123747.60
   78.46        2964.25           2346       31456.00    137760.10
   78.49        2964.50           2349       33519.00    146840.70
   78.52        2964.75           2353       36448.00    159742.80
   78.55        2965.00           2356       38521.00    168881.10
   78.58        2965.25           2360       41643.00    182654.40
   78.61        2965.50           2363       44127.00    193622.30
   78.64        2965.75           2367       46871.00    205747.70
   78.67        2966.00           2370       49209.00    216087.00
   78.70        2966.25           2374       51356.00    225588.10
   78.73        2966.50           2378       52689.00    231490.10
   78.76        2966.75           2381       52685.00    231472.40
   78.80        2967.00           2385       52772.00    231857.70
   78.83        2967.25           2388       52967.00    232721.30
   78.86        2967.50           2392       53106.00    233336.90
   78.89        2967.75           2395       52267.00    229621.40
   78.92        2968.00           2399       50318.00    220993.90
   78.95        2968.25           2402       48666.00    213685.10
   78.98        2968.50           2406       46156.00    202587.20
   79.01        2968.75           2409       44136.00    193662.00
   79.04        2969.00           2413       40874.00    179260.60
   79.07        2969.25           2417       38061.00    166852.80
   79.10        2969.50           2420       35695.00    156424.80
   79.13        2969.75           2424       32595.00    142772.90
   79.16        2970.00           2427       30306.00    132700.70
   79.19        2970.25           2431       27307.00    119514.70
   79.22        2970.50           2434       25222.00    110354.40
   79.25        2970.75           2438       21657.00     94705.07
   79.28        2971.00           2441       19190.00     83885.38
   79.31        2971.25           2445       16063.00     70182.53
   79.35        2971.50           2449       13127.00     57328.29
   79.38        2971.75           2452       11036.00     48180.44
   79.41        2972.00           2456        8277.00     36118.87
   79.44        2972.25           2459        6107.00     26639.20
   79.47        2972.50           2463        3347.00     14590.94
   79.50        2972.75           2466        1607.00      7000.36
   79.53        2973.00           2470         434.00      1885.47
   79.56        2973.25           2473         248.00      1074.58
   79.59        2973.50           2477         262.00      1135.61
   79.62        2973.75           2481         202.00       874.05
   79.65        2974.00           2484         197.00       852.25
   79.68        2974.25           2488         188.00       813.01
   79.71        2974.50           2491         185.00       799.93
   79.74        2974.75           2495         181.00       782.50
   79.77        2975.00           2498         178.00       769.42
   79.80        2975.25           2502         173.00       747.62
   79.84        2975.50           2505         171.00       738.90
   79.87        2975.75           2509         165.00       712.75
   79.90        2976.00           2512         155.00       669.15
   79.93        2976.25           2516         163.00       704.03
   79.96        2976.50           2520         149.00       643.00
   79.99        2976.75           2523         158.00       682.23
   80.02        2977.00           2527         151.00       651.71
   80.05        2977.25           2530         150.00       647.36
   80.08        2977.50           2534         152.00       656.07
   80.11        2977.75           2537         148.00       638.64
   80.14        2978.00           2541         146.00       629.92
   80.17        2978.25           2544         145.00       625.56
   80.20        2978.50           2548         133.00       573.25
   80.23        2978.75           2552         137.00       590.68
   80.26        2979.00           2555         143.00       616.84
   80.29        2979.25           2559         146.00       629.92
   80.32        2979.50           2562         142.00       612.48
   80.36        2979.75           2566         138.00       595.04
   80.39        2980.00           2569         131.00       564.53
   80.42        2980.25           2573         119.00       512.21
   80.45        2980.50           2577         147.00       634.28
   80.48        2980.75           2580         134.00       577.61
   80.51        2981.00           2584         126.00       542.73
   80.54        2981.25           2587         157.00       677.87
   80.57        2981.50           2591         122.00       525.29
   80.60        2981.75           2594         130.00       560.17
   80.63        2982.00           2598         125.00       538.37
   80.66        2982.25           2601         120.00       516.57
   80.69        2982.50           2605         143.00       616.84
   80.72        2982.75           2609         142.00       612.48
   80.75        2983.00           2612         141.00       608.12
   80.78        2983.25           2616         148.00       638.64
   80.81        2983.50           2619         121.00       520.93
   80.84        2983.75           2623         131.00       564.53
   80.87        2984.00           2626         161.00       695.31
HS scan finished at 01:21:06
end
************************************************************
  HS Scan of (1) Internal mercury lamp
************************************************************
Integration time is 0.2294 seconds per sample
dh110817Reading 51.44 .94 3.52pr1000
************************************************************
Dead Time -------------------------  3.4E-08 
Number of Cycles Used -------------  4 
Starting Wavelength (Angstroms) ---  2950 
Final Wavelength (Angstoms) -------  2984 
Wavelength Increment (Angstroms) --  .25 
Filter Wheel #1 Position ---------- (1) Ground quartz diffuser (ND=2.32)
Filter Wheel #2 Position ---------- (1) Neutral Density 0.494



************************************************************
HS scan start time = 20:37:26
Dark Count =  2.7 


Time (GMT)  Wavelength (Ang)  Step Number  Raw Counts  Counts/Second

 1238.33        2950.00           2144         111.00       472.11
 1238.53        2950.25           2147         108.00       459.03
 1238.56        2950.50           2151          99.00       419.80
 1238.59        2950.75           2155          95.00       402.36
 1238.62        2951.00           2158          99.00       419.80
 1238.65        2951.25           2162         100.00       424.16
 1238.68        2951.50           2165          97.00       411.08
 1238.71        2951.75           2169         108.00       459.03
 1238.74        2952.00           2172         100.00       424.16
 1238.77        2952.25           2176         109.00       463.39
 1238.80        2952.50           2179         110.00       467.75
 1238.83        2952.75           2183         104.00       441.59
 1238.86        2953.00           2186         104.00       441.59
 1238.89        2953.25           2190         105.00       445.95
 1238.93        2953.50           2193         107.00       454.67
 1238.96        2953.75           2197         114.00       485.19
 1238.99        2954.00           2200         109.00       463.39
 1239.02        2954.25           2204         107.00       454.67
 1239.05        2954.50           2208         104.00       441.59
 1239.08        2954.75           2211         122.00       520.06
 1239.11        2955.00           2215         130.00       554.94
 1239.14        2955.25           2218         143.00       611.61
 1239.17        2955.50           2222         109.00       463.39
 1239.20        2955.75           2225         125.00       533.14
 1239.23        2956.00           2229         105.00       445.95
 1239.26        2956.25           2232         131.00       559.30
 1239.29        2956.50           2236         110.00       467.75
 1239.32        2956.75           2239         109.00       463.39
 1239.35        2957.00           2243         142.00       607.25
 1239.38        2957.25           2246         121.00       515.70
 1239.41        2957.50           2250         114.00       485.19
 1239.44        2957.75           2254         119.00       506.98
 1239.48        2958.00           2257         119.00       506.98
 1239.51        2958.25           2261         138.00       589.81
 1239.54        2958.50           2264         167.00       716.23
 1239.57        2958.75           2268         119.00       506.98
 1239.60        2959.00           2271         126.00       537.50
 1239.63        2959.25           2275         148.00       633.41
 1239.66        2959.50           2278         148.00       633.41
 1239.69        2959.75           2282         156.00       668.28
 1239.72        2960.00           2285         119.00       506.98
 1239.75        2960.25           2289         150.00       642.12
 1239.78        2960.50           2293         134.00       572.37
 1239.81        2960.75           2296         137.00       585.45
 1239.84        2961.00           2300         159.00       681.36
 1239.87        2961.25           2303         252.00      1086.79
 1239.90        2961.50           2307         742.00      3223.11
 1239.93        2961.75           2310        1866.00      8124.74
 1239.96        2962.00           2314        3852.00     16789.44
 1239.99        2962.25           2317        5498.00     23974.64
 1240.03        2962.50           2321        7798.00     34020.58
 1240.06        2962.75           2324        9251.00     40370.55
 1240.09        2963.00           2328       11535.00     50357.73
 1240.12        2963.25           2331       13324.00     58185.18
 1240.15        2963.50           2335       15660.00     68412.22
 1240.18        2963.75           2339       17783.00     77712.91
 1240.21        2964.00           2342       19427.00     84919.21
 1240.24        2964.25           2346       21946.00     95967.82
 1240.27        2964.50           2349       23767.00    103960.10
 1240.30        2964.75           2353       26110.00    114249.80
 1240.33        2965.00           2356       27698.00    121227.90
 1240.36        2965.25           2360       29711.00    130078.40
 1240.39        2965.50           2363       31462.00    137781.30
 1240.42        2965.75           2367       33680.00    147544.30
 1240.45        2966.00           2370       35260.00    154503.10
 1240.48        2966.25           2374       37529.00    164502.10
 1240.52        2966.50           2378       38708.00    169700.40
 1240.55        2966.75           2381       39331.00    172448.00
 1240.58        2967.00           2385       39389.00    172703.80
 1240.61        2967.25           2388       39331.00    172448.00
 1240.64        2967.50           2392       39200.00    171870.20
 1240.67        2967.75           2395       39069.00    171292.40
 1240.70        2968.00           2399       38217.00    167535.30
 1240.73        2968.25           2402       36634.00    160557.20
 1240.76        2968.50           2406       34888.00    152864.40
 1240.79        2968.75           2409       33122.00    145087.60
 1240.82        2969.00           2413       31003.00    135761.70
 1240.85        2969.25           2417       29110.00    127435.40
 1240.88        2969.50           2420       27402.00    119927.00
 1240.91        2969.75           2424       24775.00    108386.10
 1240.94        2970.00           2427       22934.00    100303.60
 1240.97        2970.25           2431       20250.00     88528.06
 1241.00        2970.50           2434       18788.00     82117.80
 1241.04        2970.75           2438       16457.00     71903.13
 1241.07        2971.00           2441       14708.00     64243.49
 1241.10        2971.25           2445       12320.00     53791.84
 1241.13        2971.50           2449       10185.00     44453.80
 1241.16        2971.75           2452        8636.00     37682.51
 1241.19        2972.00           2456        6516.00     28420.21
 1241.22        2972.25           2459        4839.00     21097.52
 1241.25        2972.50           2463        2836.00     12356.11
 1241.28        2972.75           2466        1480.00      6441.25
 1241.31        2973.00           2470         419.00      1814.85
 1241.34        2973.25           2473         192.00       825.22
 1241.37        2973.50           2477         162.00       694.44
 1241.40        2973.75           2481         144.00       615.97
 1241.43        2974.00           2484         141.00       602.89
 1241.46        2974.25           2488         146.00       624.69
 1241.49        2974.50           2491         141.00       602.89
 1241.52        2974.75           2495         162.00       694.44
 1241.55        2975.00           2498         132.00       563.66
 1241.59        2975.25           2502         192.00       825.22
 1241.62        2975.50           2505         136.00       581.09
 1241.65        2975.75           2509         134.00       572.37
 1241.68        2976.00           2512         157.00       672.64
 1241.71        2976.25           2516         114.00       485.19
 1241.74        2976.50           2520         127.00       541.86
 1241.77        2976.75           2523         168.00       720.59
 1241.80        2977.00           2527         170.00       729.31
 1241.83        2977.25           2530         111.00       472.11
 1241.86        2977.50           2534         111.00       472.11
 1241.89        2977.75           2537         118.00       502.62
 1241.92        2978.00           2541         106.00       450.31
 1241.95        2978.25           2544         112.00       476.47
 1241.98        2978.50           2548         109.00       463.39
 1242.01        2978.75           2552         103.00       437.23
 1242.04        2979.00           2555         118.00       502.62
 1242.08        2979.25           2559         132.00       563.66
 1242.11        2979.50           2562         101.00       428.52
 1242.14        2979.75           2566          98.00       415.44
 1242.17        2980.00           2569          95.00       402.36
 1242.20        2980.25           2573          93.00       393.64
 1242.23        2980.50           2577          96.00       406.72
 1242.26        2980.75           2580         100.00       424.16
 1242.29        2981.00           2584          91.00       384.92
 1242.32        2981.25           2587         100.00       424.16
 1242.35        2981.50           2591         105.00       445.95
 1242.38        2981.75           2594          91.00       384.92
 1242.41        2982.00           2598         113.00       480.83
 1242.44        2982.25           2601          92.00       389.28
 1242.47        2982.50           2605          91.00       384.92
 1242.50        2982.75           2609          97.00       411.08
 1242.53        2983.00           2612          88.00       371.84
 1242.56        2983.25           2616          83.00       350.05
 1242.59        2983.50           2619          89.00       376.20
 1242.63        2983.75           2623          91.00       384.92
 1242.66        2984.00           2626          96.00       406.72
HS scan finished at 20:42:53
end
