************************************************************
  HS Scan of (1) Internal mercury lamp
************************************************************
Integration time is 0.2294 seconds per sample
dh120818Reading 51.44 .94 3.49pr1000
************************************************************
Dead Time -------------------------  3.4E-08 
Number of Cycles Used -------------  4 
Starting Wavelength (Angstroms) ---  2950 
Final Wavelength (Angstoms) -------  2984 
Wavelength Increment (Angstroms) --  .25 
Filter Wheel #1 Position ---------- (1) Ground quartz diffuser (ND=2.32)
Filter Wheel #2 Position ---------- (1) Neutral Density 0.494



************************************************************
HS scan start time = 01:17:46
Dark Count =  2.1 


Time (GMT)  Wavelength (Ang)  Step Number  Raw Counts  Counts/Second

   78.66        2950.00           2144          83.00       352.66
   78.85        2950.25           2147          74.00       313.43
   78.88        2950.50           2151          74.00       313.43
   78.91        2950.75           2155          77.00       326.51
   78.94        2951.00           2158          80.00       339.59
   78.97        2951.25           2162          82.00       348.30
   79.00        2951.50           2165          80.00       339.59
   79.03        2951.75           2169          85.00       361.38
   79.06        2952.00           2172          84.00       357.02
   79.10        2952.25           2176          81.00       343.94
   79.13        2952.50           2179          88.00       374.46
   79.16        2952.75           2183          83.00       352.66
   79.19        2953.00           2186          90.00       383.18
   79.22        2953.25           2190          86.00       365.74
   79.25        2953.50           2193          93.00       396.26
   79.28        2953.75           2197          82.00       348.30
   79.31        2954.00           2200          82.00       348.30
   79.34        2954.25           2204         110.00       470.37
   79.37        2954.50           2208          86.00       365.74
   79.40        2954.75           2211          84.00       357.02
   79.43        2955.00           2215         119.00       509.60
   79.46        2955.25           2218          98.00       418.05
   79.49        2955.50           2222          83.00       352.66
   79.52        2955.75           2225          94.00       400.62
   79.55        2956.00           2229          92.00       391.90
   79.58        2956.25           2232          93.00       396.26
   79.62        2956.50           2236          99.00       422.41
   79.65        2956.75           2239         139.00       596.79
   79.68        2957.00           2243          97.00       413.69
   79.71        2957.25           2246          97.00       413.69
   79.74        2957.50           2250         118.00       505.24
   79.77        2957.75           2254          98.00       418.05
   79.80        2958.00           2257         100.00       426.77
   79.83        2958.25           2261         106.00       452.93
   79.86        2958.50           2264         106.00       452.93
   79.89        2958.75           2268         123.00       527.04
   79.92        2959.00           2271         130.00       557.55
   79.95        2959.25           2275         138.00       592.43
   79.98        2959.50           2278         108.00       461.65
   80.01        2959.75           2282         147.00       631.66
   80.04        2960.00           2285         128.00       548.83
   80.07        2960.25           2289         153.00       657.82
   80.10        2960.50           2293         122.00       522.68
   80.14        2960.75           2296         155.00       666.54
   80.17        2961.00           2300         162.00       697.05
   80.20        2961.25           2303         318.00      1377.14
   80.23        2961.50           2307        1170.00      5091.99
   80.26        2961.75           2310        2377.00     10356.31
   80.29        2962.00           2314        4126.00     17987.90
   80.32        2962.25           2317        5612.00     24475.02
   80.35        2962.50           2321        7667.00     33450.84
   80.38        2962.75           2324        9209.00     40189.58
   80.41        2963.00           2328       11378.00     49673.63
   80.44        2963.25           2331       13147.00     57413.19
   80.47        2963.50           2335       15454.00     67512.69
   80.50        2963.75           2339       18020.00     78754.19
   80.53        2964.00           2342       19664.00     85960.99
   80.58        2964.25           2346       21796.00     95312.30
   80.61        2964.50           2349       23262.00    101745.90
   80.64        2964.75           2353       25124.00    109921.40
   80.67        2965.00           2356       26810.00    117328.10
   80.70        2965.25           2360       28975.00    126844.50
   80.73        2965.50           2363       30434.00    133261.10
   80.76        2965.75           2367       32095.00    140569.50
   80.79        2966.00           2370       32962.00    144385.80
   80.82        2966.25           2374       35339.00    154853.70
   80.85        2966.50           2378       36381.00    159444.90
   80.88        2966.75           2381       36844.00    161485.30
   80.92        2967.00           2385       36700.00    160850.70
   80.95        2967.25           2388       37347.00    163702.40
   80.98        2967.50           2392       37454.00    164174.10
   81.01        2967.75           2395       36944.00    161926.10
   81.04        2968.00           2399       36482.00    159889.90
   81.07        2968.25           2402       34988.00    153307.50
   81.10        2968.50           2406       32307.00    141502.60
   81.13        2968.75           2409       30788.00    134818.40
   81.16        2969.00           2413       28517.00    124830.80
   81.19        2969.25           2417       26166.00    114498.50
   81.22        2969.50           2420       24041.00    105165.70
   81.25        2969.75           2424       22913.00    100214.00
   81.28        2970.00           2427       21321.00     93228.34
   81.31        2970.25           2431       18910.00     82655.24
   81.34        2970.50           2434       16433.00     71800.61
   81.37        2970.75           2438       13986.00     61085.33
   81.40        2971.00           2441       13142.00     57391.31
   81.44        2971.25           2445       11093.00     48427.10
   81.47        2971.50           2449        9171.00     40023.48
   81.50        2971.75           2452        7617.00     33232.38
   81.53        2972.00           2456        5638.00     24588.55
   81.56        2972.25           2459        4190.00     18267.23
   81.59        2972.50           2463        2140.00      9322.48
   81.62        2972.75           2466         970.00      4219.87
   81.65        2973.00           2470         305.00      1320.46
   81.68        2973.25           2473         188.00       810.40
   81.71        2973.50           2477         148.00       636.02
   81.74        2973.75           2481         155.00       666.54
   81.77        2974.00           2484         194.00       836.55
   81.80        2974.25           2488         132.00       566.27
   81.83        2974.50           2491         161.00       692.69
   81.86        2974.75           2495         154.00       662.18
   81.89        2975.00           2498         134.00       574.99
   81.92        2975.25           2502         127.00       544.47
   81.96        2975.50           2505         107.00       457.29
   81.99        2975.75           2509         110.00       470.37
   82.02        2976.00           2512         104.00       444.21
   82.05        2976.25           2516         111.00       474.72
   82.08        2976.50           2520         128.00       548.83
   82.11        2976.75           2523          95.00       404.98
   82.14        2977.00           2527         118.00       505.24
   82.17        2977.25           2530          98.00       418.05
   82.20        2977.50           2534         125.00       535.76
   82.23        2977.75           2537         102.00       435.49
   82.26        2978.00           2541          97.00       413.69
   82.29        2978.25           2544          92.00       391.90
   82.32        2978.50           2548          95.00       404.98
   82.35        2978.75           2552          95.00       404.98
   82.38        2979.00           2555          96.00       409.33
   82.41        2979.25           2559          89.00       378.82
   82.44        2979.50           2562          96.00       409.33
   82.48        2979.75           2566          94.00       400.62
   82.51        2980.00           2569          90.00       383.18
   82.54        2980.25           2573          96.00       409.33
   82.57        2980.50           2577          85.00       361.38
   82.60        2980.75           2580          83.00       352.66
   82.63        2981.00           2584          90.00       383.18
   82.66        2981.25           2587          82.00       348.30
   82.69        2981.50           2591          86.00       365.74
   82.72        2981.75           2594          87.00       370.10
   82.75        2982.00           2598          86.00       365.74
   82.78        2982.25           2601          92.00       391.90
   82.81        2982.50           2605          88.00       374.46
   82.84        2982.75           2609          80.00       339.59
   82.87        2983.00           2612          88.00       374.46
   82.90        2983.25           2616          80.00       339.59
   82.93        2983.50           2619          82.00       348.30
   82.96        2983.75           2623          87.00       370.10
   83.00        2984.00           2626          91.00       387.54
HS scan finished at 01:23:13
end
************************************************************
  HS Scan of (1) Internal mercury lamp
************************************************************
Integration time is 0.2294 seconds per sample
dh120818Reading 51.44 .94 3.5pr1000
************************************************************
Dead Time -------------------------  3.4E-08 
Number of Cycles Used -------------  4 
Starting Wavelength (Angstroms) ---  2950 
Final Wavelength (Angstoms) -------  2984 
Wavelength Increment (Angstroms) --  .25 
Filter Wheel #1 Position ---------- (1) Ground quartz diffuser (ND=2.32)
Filter Wheel #2 Position ---------- (1) Neutral Density 0.494



************************************************************
HS scan start time = 20:37:30
Dark Count =  2.7 


Time (GMT)  Wavelength (Ang)  Step Number  Raw Counts  Counts/Second

 1238.40        2950.00           2144          60.00       249.78
 1238.60        2950.25           2147          59.00       245.42
 1238.63        2950.50           2151          61.00       254.14
 1238.66        2950.75           2155          56.00       232.35
 1238.69        2951.00           2158          62.00       258.50
 1238.72        2951.25           2162          61.00       254.14
 1238.75        2951.50           2165          57.00       236.71
 1238.78        2951.75           2169          56.00       232.35
 1238.81        2952.00           2172          61.00       254.14
 1238.84        2952.25           2176          57.00       236.71
 1238.87        2952.50           2179          69.00       289.02
 1238.90        2952.75           2183          64.00       267.22
 1238.93        2953.00           2186          60.00       249.78
 1238.96        2953.25           2190          62.00       258.50
 1238.99        2953.50           2193          60.00       249.78
 1239.02        2953.75           2197          61.00       254.14
 1239.06        2954.00           2200          57.00       236.71
 1239.09        2954.25           2204          64.00       267.22
 1239.12        2954.50           2208          66.00       275.94
 1239.15        2954.75           2211          69.00       289.02
 1239.18        2955.00           2215          65.00       271.58
 1239.21        2955.25           2218          62.00       258.50
 1239.24        2955.50           2222          58.00       241.07
 1239.27        2955.75           2225          63.00       262.86
 1239.30        2956.00           2229          66.00       275.94
 1239.33        2956.25           2232          61.00       254.14
 1239.36        2956.50           2236          62.00       258.50
 1239.39        2956.75           2239          67.00       280.30
 1239.42        2957.00           2243          61.00       254.14
 1239.45        2957.25           2246          73.00       306.45
 1239.48        2957.50           2250          85.00       358.77
 1239.51        2957.75           2254          67.00       280.30
 1239.54        2958.00           2257          64.00       267.22
 1239.57        2958.25           2261          75.00       315.17
 1239.61        2958.50           2264          76.00       319.53
 1239.64        2958.75           2268          70.00       293.38
 1239.67        2959.00           2271          80.00       336.97
 1239.70        2959.25           2275          76.00       319.53
 1239.73        2959.50           2278          81.00       341.33
 1239.76        2959.75           2282          79.00       332.61
 1239.80        2960.00           2285          77.00       323.89
 1239.83        2960.25           2289          82.00       345.69
 1239.86        2960.50           2293          85.00       358.77
 1239.89        2960.75           2296          90.00       380.56
 1239.92        2961.00           2300         144.00       615.97
 1239.95        2961.25           2303         258.00      1112.95
 1239.98        2961.50           2307         850.00      3694.01
 1240.01        2961.75           2310        1622.00      7060.54
 1240.04        2962.00           2314        2846.00     12399.73
 1240.07        2962.25           2317        3925.00     17108.03
 1240.10        2962.50           2321        5188.00     22621.14
 1240.13        2962.75           2324        6146.00     26804.28
 1240.16        2963.00           2328        7220.00     31495.35
 1240.19        2963.25           2331        8212.00     35829.59
 1240.22        2963.50           2335        9724.00     42438.26
 1240.25        2963.75           2339       10934.00     47729.09
 1240.29        2964.00           2342       12120.00     52916.83
 1240.32        2964.25           2346       13746.00     60032.17
 1240.35        2964.50           2349       14583.00     63696.21
 1240.38        2964.75           2353       16065.00     70186.03
 1240.41        2965.00           2356       16949.00     74058.53
 1240.44        2965.25           2360       18448.00     80627.45
 1240.47        2965.50           2363       19357.00     84612.29
 1240.50        2965.75           2367       20720.00     90589.41
 1240.53        2966.00           2370       21842.00     95511.49
 1240.56        2966.25           2374       22798.00     99706.66
 1240.59        2966.50           2378       23216.00    101541.30
 1240.62        2966.75           2381       23054.00    100830.30
 1240.65        2967.00           2385       23056.00    100839.10
 1240.68        2967.25           2388       23079.00    100940.00
 1240.71        2967.50           2392       23182.00    101392.10
 1240.74        2967.75           2395       22957.00    100404.50
 1240.77        2968.00           2399       22253.00     97314.92
 1240.81        2968.25           2402       21526.00     94125.08
 1240.84        2968.50           2406       20318.00     88826.28
 1240.87        2968.75           2409       19141.00     83665.30
 1240.90        2969.00           2413       17736.00     77506.95
 1240.93        2969.25           2417       16701.00     72972.03
 1240.96        2969.50           2420       15358.00     67089.65
 1240.99        2969.75           2424       14136.00     61739.32
 1241.02        2970.00           2427       13116.00     57274.89
 1241.05        2970.25           2431       11828.00     51639.41
 1241.08        2970.50           2434       10850.00     47361.73
 1241.11        2970.75           2438        9393.00     40991.27
 1241.14        2971.00           2441        8371.00     36524.41
 1241.17        2971.25           2445        6824.00     29765.51
 1241.20        2971.50           2449        5804.00     25310.79
 1241.23        2971.75           2452        4754.00     20726.46
 1241.26        2972.00           2456        3692.00     16091.19
 1241.29        2972.25           2459        2659.00     11583.90
 1241.33        2972.50           2463        1377.00      5992.07
 1241.36        2972.75           2466         637.00      2765.30
 1241.39        2973.00           2470         181.00       777.27
 1241.42        2973.25           2473         139.00       594.17
 1241.45        2973.50           2477          93.00       393.64
 1241.48        2973.75           2481          83.00       350.05
 1241.51        2974.00           2484          92.00       389.28
 1241.54        2974.25           2488          78.00       328.25
 1241.57        2974.50           2491          75.00       315.17
 1241.60        2974.75           2495          82.00       345.69
 1241.63        2975.00           2498          77.00       323.89
 1241.66        2975.25           2502          87.00       367.49
 1241.69        2975.50           2505          76.00       319.53
 1241.72        2975.75           2509          72.00       302.10
 1241.75        2976.00           2512          78.00       328.25
 1241.78        2976.25           2516          69.00       289.02
 1241.81        2976.50           2520          73.00       306.45
 1241.85        2976.75           2523          77.00       323.89
 1241.88        2977.00           2527          78.00       328.25
 1241.91        2977.25           2530          74.00       310.81
 1241.94        2977.50           2534          76.00       319.53
 1241.97        2977.75           2537          74.00       310.81
 1242.00        2978.00           2541          75.00       315.17
 1242.03        2978.25           2544          64.00       267.22
 1242.06        2978.50           2548          64.00       267.22
 1242.09        2978.75           2552          67.00       280.30
 1242.12        2979.00           2555          60.00       249.78
 1242.15        2979.25           2559          64.00       267.22
 1242.18        2979.50           2562          70.00       293.38
 1242.21        2979.75           2566          67.00       280.30
 1242.24        2980.00           2569          65.00       271.58
 1242.27        2980.25           2573          69.00       289.02
 1242.30        2980.50           2577          71.00       297.74
 1242.33        2980.75           2580          72.00       302.10
 1242.37        2981.00           2584          63.00       262.86
 1242.40        2981.25           2587          65.00       271.58
 1242.43        2981.50           2591          68.00       284.66
 1242.46        2981.75           2594          60.00       249.78
 1242.49        2982.00           2598          64.00       267.22
 1242.52        2982.25           2601          65.00       271.58
 1242.55        2982.50           2605          64.00       267.22
 1242.58        2982.75           2609          68.00       284.66
 1242.61        2983.00           2612          59.00       245.42
 1242.64        2983.25           2616          64.00       267.22
 1242.67        2983.50           2619          65.00       271.58
 1242.70        2983.75           2623          65.00       271.58
 1242.73        2984.00           2626          66.00       275.94
HS scan finished at 20:42:57
end
