************************************************************
  HS Scan of (1) Internal mercury lamp
************************************************************
Integration time is 0.2294 seconds per sample
dh140818Reading 51.44 .94 3.47pr1000
************************************************************
Dead Time -------------------------  3.4E-08 
Number of Cycles Used -------------  4 
Starting Wavelength (Angstroms) ---  2950 
Final Wavelength (Angstoms) -------  2984 
Wavelength Increment (Angstroms) --  .25 
Filter Wheel #1 Position ---------- (1) Ground quartz diffuser (ND=2.32)
Filter Wheel #2 Position ---------- (1) Neutral Density 0.494



************************************************************
HS scan start time = 01:20:30
Dark Count =  2.2 


Time (GMT)  Wavelength (Ang)  Step Number  Raw Counts  Counts/Second

   81.40        2950.00           2144          63.00       265.04
   81.60        2950.25           2147          67.00       282.48
   81.63        2950.50           2151          65.00       273.76
   81.66        2950.75           2155          59.00       247.60
   81.69        2951.00           2158          65.00       273.76
   81.72        2951.25           2162          71.00       299.92
   81.75        2951.50           2165          53.00       221.45
   81.78        2951.75           2169          65.00       273.76
   81.81        2952.00           2172          65.00       273.76
   81.84        2952.25           2176          67.00       282.48
   81.88        2952.50           2179          65.00       273.76
   81.92        2952.75           2183          62.00       260.68
   81.95        2953.00           2186          65.00       273.76
   81.98        2953.25           2190          64.00       269.40
   82.01        2953.50           2193          66.00       278.12
   82.04        2953.75           2197          72.00       304.28
   82.07        2954.00           2200          70.00       295.56
   82.10        2954.25           2204          69.00       291.20
   82.13        2954.50           2208          66.00       278.12
   82.16        2954.75           2211          74.00       312.99
   82.19        2955.00           2215          65.00       273.76
   82.22        2955.25           2218          70.00       295.56
   82.25        2955.50           2222          71.00       299.92
   82.28        2955.75           2225          70.00       295.56
   82.31        2956.00           2229          74.00       312.99
   82.35        2956.25           2232          72.00       304.28
   82.38        2956.50           2236          70.00       295.56
   82.41        2956.75           2239          71.00       299.92
   82.44        2957.00           2243          78.00       330.43
   82.47        2957.25           2246          79.00       334.79
   82.50        2957.50           2250          69.00       291.20
   82.53        2957.75           2254          76.00       321.71
   82.56        2958.00           2257          77.00       326.07
   82.59        2958.25           2261          85.00       360.95
   82.62        2958.50           2264          79.00       334.79
   82.65        2958.75           2268          80.00       339.15
   82.68        2959.00           2271          84.00       356.59
   82.71        2959.25           2275          79.00       334.79
   82.74        2959.50           2278          85.00       360.95
   82.77        2959.75           2282          86.00       365.31
   82.80        2960.00           2285          89.00       378.38
   82.83        2960.25           2289          94.00       400.18
   82.87        2960.50           2293          93.00       395.82
   82.90        2960.75           2296          95.00       404.54
   82.93        2961.00           2300         137.00       587.63
   82.96        2961.25           2303         266.00      1150.00
   82.99        2961.50           2307         875.00      3805.20
   83.02        2961.75           2310        1632.00      7106.34
   83.05        2962.00           2314        2685.00     11699.51
   83.08        2962.25           2317        3822.00     16660.70
   83.11        2962.50           2321        5292.00     23077.39
   83.14        2962.75           2324        6413.00     27972.54
   83.17        2963.00           2328        7852.00     34258.72
   83.20        2963.25           2331        8938.00     39004.61
   83.23        2963.50           2335       10368.00     45256.16
   83.26        2963.75           2339       11853.00     51750.96
   83.29        2964.00           2342       13066.00     57058.28
   83.32        2964.25           2346       14547.00     63540.79
   83.35        2964.50           2349       15659.00     68410.03
   83.39        2964.75           2353       17070.00     74590.85
   83.42        2965.00           2356       18320.00     80068.60
   83.45        2965.25           2360       20001.00     87438.30
   83.48        2965.50           2363       20939.00     91552.21
   83.51        2965.75           2367       22288.00     97470.71
   83.54        2966.00           2370       23181.00    101389.90
   83.57        2966.25           2374       24224.00    105968.70
   83.60        2966.50           2378       24923.00    109038.20
   83.63        2966.75           2381       24915.00    109003.10
   83.66        2967.00           2385       24882.00    108858.10
   83.69        2967.25           2388       24966.00    109227.00
   83.72        2967.50           2392       24849.00    108713.20
   83.75        2967.75           2395       24429.00    106868.90
   83.78        2968.00           2399       23161.00    101302.10
   83.81        2968.25           2402       22229.00     97211.80
   83.84        2968.50           2406       20749.00     90718.80
   83.87        2968.75           2409       19808.00     86591.98
   83.91        2969.00           2413       18488.00     80804.96
   83.94        2969.25           2417       17071.00     74595.24
   83.97        2969.50           2420       16084.00     70271.44
   84.00        2969.75           2424       14640.00     63947.96
   84.03        2970.00           2427       13922.00     60804.74
   84.06        2970.25           2431       12223.00     53369.65
   84.09        2970.50           2434       11159.00     48715.32
   84.12        2970.75           2438        9633.00     42042.62
   84.15        2971.00           2441        8479.00     36998.56
   84.18        2971.25           2445        7169.00     31274.74
   84.21        2971.50           2449        5671.00     24732.21
   84.24        2971.75           2452        4571.00     19929.80
   84.27        2972.00           2456        3117.00     13584.30
   84.30        2972.25           2459        2150.00      9365.67
   84.33        2972.50           2463        1015.00      4415.66
   84.36        2972.75           2466         485.00      2104.77
   84.39        2973.00           2470         170.00       731.49
   84.43        2973.25           2473         116.00       496.09
   84.46        2973.50           2477         122.00       522.24
   84.49        2973.75           2481          96.00       408.90
   84.52        2974.00           2484         121.00       517.88
   84.55        2974.25           2488          91.00       387.10
   84.58        2974.50           2491         112.00       478.65
   84.61        2974.75           2495          92.00       391.46
   84.64        2975.00           2498          90.00       382.74
   84.67        2975.25           2502          85.00       360.95
   84.70        2975.50           2505          88.00       374.02
   84.73        2975.75           2509          84.00       356.59
   84.76        2976.00           2512          88.00       374.02
   84.79        2976.25           2516          81.00       343.51
   84.82        2976.50           2520          86.00       365.31
   84.85        2976.75           2523          84.00       356.59
   84.88        2977.00           2527          80.00       339.15
   84.91        2977.25           2530          77.00       326.07
   84.95        2977.50           2534          74.00       312.99
   84.98        2977.75           2537          77.00       326.07
   85.01        2978.00           2541          88.00       374.02
   85.04        2978.25           2544          74.00       312.99
   85.07        2978.50           2548          80.00       339.15
   85.10        2978.75           2552          78.00       330.43
   85.13        2979.00           2555          78.00       330.43
   85.16        2979.25           2559          73.00       308.63
   85.19        2979.50           2562          73.00       308.63
   85.22        2979.75           2566          72.00       304.28
   85.25        2980.00           2569          71.00       299.92
   85.28        2980.25           2573          72.00       304.28
   85.31        2980.50           2577          76.00       321.71
   85.34        2980.75           2580          78.00       330.43
   85.37        2981.00           2584          77.00       326.07
   85.40        2981.25           2587          67.00       282.48
   85.43        2981.50           2591          63.00       265.04
   85.46        2981.75           2594          69.00       291.20
   85.50        2982.00           2598          67.00       282.48
   85.53        2982.25           2601          68.00       286.84
   85.56        2982.50           2605          64.00       269.40
   85.59        2982.75           2609          72.00       304.28
   85.62        2983.00           2612          63.00       265.04
   85.65        2983.25           2616          64.00       269.40
   85.68        2983.50           2619          72.00       304.28
   85.71        2983.75           2623          69.00       291.20
   85.74        2984.00           2626          61.00       256.32
HS scan finished at 01:25:58
end
************************************************************
  HS Scan of (1) Internal mercury lamp
************************************************************
Integration time is 0.2294 seconds per sample
dh140818Reading 51.44 .94 3.66pr1000
************************************************************
Dead Time -------------------------  3.4E-08 
Number of Cycles Used -------------  4 
Starting Wavelength (Angstroms) ---  2950 
Final Wavelength (Angstoms) -------  2984 
Wavelength Increment (Angstroms) --  .25 
Filter Wheel #1 Position ---------- (1) Ground quartz diffuser (ND=2.32)
Filter Wheel #2 Position ---------- (1) Neutral Density 0.494



************************************************************
HS scan start time = 20:37:19
Dark Count =  4.5 


Time (GMT)  Wavelength (Ang)  Step Number  Raw Counts  Counts/Second

 1238.22        2950.00           2144          41.00       159.11
 1238.41        2950.25           2147          44.00       172.19
 1238.44        2950.50           2151          45.00       176.55
 1238.47        2950.75           2155          46.00       180.91
 1238.50        2951.00           2158          47.00       185.27
 1238.54        2951.25           2162          53.00       211.42
 1238.57        2951.50           2165          45.00       176.55
 1238.60        2951.75           2169          49.00       193.99
 1238.63        2952.00           2172          42.00       163.47
 1238.66        2952.25           2176          47.00       185.27
 1238.69        2952.50           2179          45.00       176.55
 1238.72        2952.75           2183          48.00       189.63
 1238.75        2953.00           2186          51.00       202.70
 1238.78        2953.25           2190          43.00       167.83
 1238.81        2953.50           2193          49.00       193.99
 1238.84        2953.75           2197          56.00       224.50
 1238.87        2954.00           2200          46.00       180.91
 1238.90        2954.25           2204          46.00       180.91
 1238.93        2954.50           2208          49.00       193.99
 1238.96        2954.75           2211          49.00       193.99
 1238.99        2955.00           2215          54.00       215.78
 1239.02        2955.25           2218          52.00       207.06
 1239.06        2955.50           2222          50.00       198.34
 1239.09        2955.75           2225          48.00       189.63
 1239.12        2956.00           2229          52.00       207.06
 1239.15        2956.25           2232          46.00       180.91
 1239.18        2956.50           2236          49.00       193.99
 1239.21        2956.75           2239          49.00       193.99
 1239.24        2957.00           2243          50.00       198.34
 1239.27        2957.25           2246          48.00       189.63
 1239.30        2957.50           2250          51.00       202.70
 1239.33        2957.75           2254          54.00       215.78
 1239.36        2958.00           2257          62.00       250.66
 1239.39        2958.25           2261          61.00       246.30
 1239.42        2958.50           2264          54.00       215.78
 1239.45        2958.75           2268          61.00       246.30
 1239.48        2959.00           2271          55.00       220.14
 1239.51        2959.25           2275          54.00       215.78
 1239.54        2959.50           2278          58.00       233.22
 1239.58        2959.75           2282          60.00       241.94
 1239.61        2960.00           2285          49.00       193.99
 1239.64        2960.25           2289          65.00       263.73
 1239.67        2960.50           2293          59.00       237.58
 1239.70        2960.75           2296          72.00       294.25
 1239.73        2961.00           2300          79.00       324.76
 1239.76        2961.25           2303         173.00       734.54
 1239.79        2961.50           2307         636.00      2753.09
 1239.82        2961.75           2310        1273.00      5530.68
 1239.85        2962.00           2314        2110.00      9181.16
 1239.88        2962.25           2317        2806.00     12217.37
 1239.91        2962.50           2321        3643.00     15869.50
 1239.94        2962.75           2324        4234.00     18448.80
 1239.98        2963.00           2328        5066.00     22080.65
 1240.01        2963.25           2331        5802.00     25294.19
 1240.04        2963.50           2335        6947.00     30294.92
 1240.07        2963.75           2339        7933.00     34602.59
 1240.10        2964.00           2342        8684.00     37884.43
 1240.13        2964.25           2346        9613.00     41945.14
 1240.16        2964.50           2349       10098.00     44065.54
 1240.19        2964.75           2353       11092.00     48412.23
 1240.22        2965.00           2356       11790.00     51465.30
 1240.25        2965.25           2360       12635.00     55162.22
 1240.29        2965.50           2363       13412.00     58562.44
 1240.32        2965.75           2367       14172.00     61889.03
 1240.35        2966.00           2370       15888.00     69402.90
 1240.38        2966.25           2374       16333.00     71352.05
 1240.41        2966.50           2378       16878.00     73739.58
 1240.44        2966.75           2381       16950.00     74055.02
 1240.47        2967.00           2385       17077.00     74611.44
 1240.50        2967.25           2388       17081.00     74628.96
 1240.53        2967.50           2392       17001.00     74278.46
 1240.56        2967.75           2395       16776.00     73292.71
 1240.59        2968.00           2399       16084.00     70261.37
 1240.62        2968.25           2402       15581.00     68058.35
 1240.65        2968.50           2406       14683.00     64126.15
 1240.68        2968.75           2409       13963.00     60974.15
 1240.71        2969.00           2413       12933.00     56466.19
 1240.74        2969.25           2417       11825.00     51618.41
 1240.77        2969.50           2420       11115.00     48512.83
 1240.81        2969.75           2424       10264.00     44791.35
 1240.84        2970.00           2427        9607.00     41918.90
 1240.87        2970.25           2431        8611.00     37565.39
 1240.90        2970.50           2434        7669.00     33449.10
 1240.93        2970.75           2438        6806.00     29679.02
 1240.96        2971.00           2441        6079.00     26503.82
 1240.99        2971.25           2445        5023.00     21892.93
 1241.02        2971.50           2449        4131.00     17999.24
 1241.05        2971.75           2452        3468.00     15105.84
 1241.08        2972.00           2456        2536.00     11039.45
 1241.11        2972.25           2459        1796.00      7811.58
 1241.14        2972.50           2463         852.00      3694.88
 1241.17        2972.75           2466         412.00      1776.48
 1241.20        2973.00           2470         138.00       581.96
 1241.23        2973.25           2473          90.00       372.72
 1241.26        2973.50           2477          73.00       298.61
 1241.29        2973.75           2481          76.00       311.69
 1241.33        2974.00           2484          70.00       285.53
 1241.36        2974.25           2488          67.00       272.45
 1241.39        2974.50           2491          66.00       268.09
 1241.42        2974.75           2495          71.00       289.89
 1241.45        2975.00           2498          67.00       272.45
 1241.48        2975.25           2502          59.00       237.58
 1241.51        2975.50           2505          62.00       250.66
 1241.54        2975.75           2509          60.00       241.94
 1241.57        2976.00           2512          54.00       215.78
 1241.60        2976.25           2516          64.00       259.37
 1241.63        2976.50           2520          53.00       211.42
 1241.66        2976.75           2523          58.00       233.22
 1241.69        2977.00           2527          60.00       241.94
 1241.72        2977.25           2530          53.00       211.42
 1241.75        2977.50           2534          61.00       246.30
 1241.78        2977.75           2537          61.00       246.30
 1241.81        2978.00           2541          62.00       250.66
 1241.85        2978.25           2544          51.00       202.70
 1241.88        2978.50           2548          58.00       233.22
 1241.91        2978.75           2552          52.00       207.06
 1241.94        2979.00           2555          51.00       202.70
 1241.97        2979.25           2559          55.00       220.14
 1242.00        2979.50           2562          59.00       237.58
 1242.03        2979.75           2566          51.00       202.70
 1242.06        2980.00           2569          51.00       202.70
 1242.09        2980.25           2573          52.00       207.06
 1242.12        2980.50           2577          56.00       224.50
 1242.15        2980.75           2580          52.00       207.06
 1242.18        2981.00           2584          54.00       215.78
 1242.21        2981.25           2587          53.00       211.42
 1242.24        2981.50           2591          50.00       198.34
 1242.27        2981.75           2594          46.00       180.91
 1242.30        2982.00           2598          50.00       198.34
 1242.33        2982.25           2601          43.00       167.83
 1242.37        2982.50           2605          52.00       207.06
 1242.40        2982.75           2609          50.00       198.34
 1242.43        2983.00           2612          47.00       185.27
 1242.46        2983.25           2616          47.00       185.27
 1242.49        2983.50           2619          49.00       193.99
 1242.52        2983.75           2623          48.00       189.63
 1242.55        2984.00           2626          52.00       207.06
HS scan finished at 20:42:46
end
