************************************************************
  HS Scan of (1) Internal mercury lamp
************************************************************
Integration time is 0.2294 seconds per sample
dh260818Reading 51.44 .94 3.25pr1000
************************************************************
Dead Time -------------------------  3.4E-08 
Number of Cycles Used -------------  4 
Starting Wavelength (Angstroms) ---  2950 
Final Wavelength (Angstoms) -------  2984 
Wavelength Increment (Angstroms) --  .25 
Filter Wheel #1 Position ---------- (1) Ground quartz diffuser (ND=2.32)
Filter Wheel #2 Position ---------- (1) Neutral Density 0.494



************************************************************
HS scan start time = 01:14:36
Dark Count =  1.1 


Time (GMT)  Wavelength (Ang)  Step Number  Raw Counts  Counts/Second

   75.51        2950.00           2144          76.00       326.51
   75.70        2950.25           2147          77.00       330.87
   75.73        2950.50           2151          69.00       295.99
   75.76        2950.75           2155          63.00       269.84
   75.79        2951.00           2158          70.00       300.35
   75.82        2951.25           2162          82.00       352.66
   75.85        2951.50           2165          71.00       304.71
   75.88        2951.75           2169          80.00       343.94
   75.91        2952.00           2172          78.00       335.23
   75.94        2952.25           2176          88.00       378.82
   75.97        2952.50           2179          72.00       309.07
   76.01        2952.75           2183          86.00       370.10
   76.04        2953.00           2186          88.00       378.82
   76.07        2953.25           2190          82.00       352.66
   76.10        2953.50           2193          84.00       361.38
   76.13        2953.75           2197          81.00       348.30
   76.16        2954.00           2200          78.00       335.23
   76.19        2954.25           2204          88.00       378.82
   76.22        2954.50           2208          86.00       370.10
   76.25        2954.75           2211          80.00       343.94
   76.28        2955.00           2215          86.00       370.10
   76.31        2955.25           2218          86.00       370.10
   76.34        2955.50           2222          84.00       361.38
   76.37        2955.75           2225          91.00       391.90
   76.40        2956.00           2229          89.00       383.18
   76.43        2956.25           2232          90.00       387.54
   76.46        2956.50           2236          89.00       383.18
   76.49        2956.75           2239          92.00       396.26
   76.52        2957.00           2243          89.00       383.18
   76.56        2957.25           2246          81.00       348.30
   76.59        2957.50           2250          87.00       374.46
   76.62        2957.75           2254         113.00       487.80
   76.65        2958.00           2257          96.00       413.69
   76.68        2958.25           2261          98.00       422.41
   76.71        2958.50           2264          88.00       378.82
   76.74        2958.75           2268         104.00       448.57
   76.77        2959.00           2271          94.00       404.98
   76.80        2959.25           2275         119.00       513.96
   76.83        2959.50           2278         100.00       431.13
   76.86        2959.75           2282         138.00       596.79
   76.89        2960.00           2285         124.00       535.76
   76.92        2960.25           2289         125.00       540.11
   76.95        2960.50           2293         118.00       509.60
   76.98        2960.75           2296         148.00       640.38
   77.01        2961.00           2300         147.00       636.02
   77.05        2961.25           2303         224.00       971.70
   77.08        2961.50           2307         841.00      3661.75
   77.11        2961.75           2310        1734.00      7555.99
   77.14        2962.00           2314        3242.00     14134.52
   77.17        2962.25           2317        4591.00     20021.91
   77.20        2962.50           2321        6310.00     27527.50
   77.23        2962.75           2324        7541.00     32904.71
   77.26        2963.00           2328        9454.00     41264.92
   77.29        2963.25           2331       11351.00     49559.91
   77.32        2963.50           2335       13107.00     57242.51
   77.35        2963.75           2339       14941.00     65270.68
   77.38        2964.00           2342       16570.00     72405.15
   77.41        2964.25           2346       18920.00     82703.46
   77.44        2964.50           2349       20612.00     90122.74
   77.47        2964.75           2353       22847.00     99928.74
   77.50        2965.00           2356       24245.00    106065.80
   77.53        2965.25           2360       26029.00    113901.00
   77.57        2965.50           2363       27299.00    119481.40
   77.60        2965.75           2367       29293.00    128247.20
   77.63        2966.00           2370       30802.00    134884.40
   77.66        2966.25           2374       32527.00    142475.40
   77.69        2966.50           2378       33630.00    147331.20
   77.72        2966.75           2381       33587.00    147141.90
   77.75        2967.00           2385       33712.00    147692.30
   77.78        2967.25           2388       33580.00    147111.10
   77.81        2967.50           2392       33431.00    146455.00
   77.84        2967.75           2395       32856.00    143923.60
   77.87        2968.00           2399       31550.00    138175.50
   77.90        2968.25           2402       30647.00    134202.50
   77.93        2968.50           2406       28702.00    125648.50
   77.96        2968.75           2409       27387.00    119868.10
   77.99        2969.00           2413       25558.00    111832.00
   78.02        2969.25           2417       23405.00    102378.00
   78.05        2969.50           2420       21437.00     93741.63
   78.09        2969.75           2424       19189.00     83882.76
   78.12        2970.00           2427       17777.00     77693.63
   78.15        2970.25           2431       15959.00     69728.77
   78.18        2970.50           2434       14736.00     64373.09
   78.21        2970.75           2438       12777.00     55798.44
   78.24        2971.00           2441       11244.00     49091.90
   78.27        2971.25           2445        9451.00     41251.81
   78.30        2971.50           2449        7986.00     34849.03
   78.33        2971.75           2452        6569.00     28658.69
   78.36        2972.00           2456        4834.00     21082.68
   78.39        2972.25           2459        3630.00     15827.61
   78.42        2972.50           2463        2012.00      8768.52
   78.45        2972.75           2466         960.00      4180.63
   78.48        2973.00           2470         269.00      1167.88
   78.51        2973.25           2473         155.00       670.90
   78.54        2973.50           2477         157.00       679.61
   78.57        2973.75           2481         128.00       553.19
   78.61        2974.00           2484         138.00       596.79
   78.64        2974.25           2488         152.00       657.82
   78.67        2974.50           2491         144.00       622.94
   78.70        2974.75           2495         154.00       666.54
   78.73        2975.00           2498         107.00       461.65
   78.76        2975.25           2502         118.00       509.60
   78.79        2975.50           2505         109.00       470.37
   78.82        2975.75           2509         105.00       452.93
   78.85        2976.00           2512         125.00       540.11
   78.88        2976.25           2516          99.00       426.77
   78.91        2976.50           2520          97.00       418.05
   78.94        2976.75           2523         117.00       505.24
   78.97        2977.00           2527          92.00       396.26
   79.00        2977.25           2530         102.00       439.85
   79.03        2977.50           2534          94.00       404.98
   79.06        2977.75           2537          90.00       387.54
   79.09        2978.00           2541          83.00       357.02
   79.13        2978.25           2544          91.00       391.90
   79.16        2978.50           2548          85.00       365.74
   79.19        2978.75           2552          88.00       378.82
   79.22        2979.00           2555          93.00       400.62
   79.25        2979.25           2559          88.00       378.82
   79.28        2979.50           2562          88.00       378.82
   79.31        2979.75           2566          83.00       357.02
   79.34        2980.00           2569          83.00       357.02
   79.37        2980.25           2573          91.00       391.90
   79.40        2980.50           2577          85.00       365.74
   79.43        2980.75           2580          85.00       365.74
   79.46        2981.00           2584          84.00       361.38
   79.49        2981.25           2587          81.00       348.30
   79.52        2981.50           2591          82.00       352.66
   79.55        2981.75           2594          81.00       348.30
   79.58        2982.00           2598          77.00       330.87
   79.61        2982.25           2601          72.00       309.07
   79.64        2982.50           2605          77.00       330.87
   79.68        2982.75           2609          79.00       339.59
   79.71        2983.00           2612          81.00       348.30
   79.74        2983.25           2616          82.00       352.66
   79.77        2983.50           2619          79.00       339.59
   79.80        2983.75           2623          79.00       339.59
   79.83        2984.00           2626          78.00       335.23
HS scan finished at 01:20:03
end
************************************************************
  HS Scan of (1) Internal mercury lamp
************************************************************
Integration time is 0.2294 seconds per sample
dh260818Reading 51.44 .94 3.52pr1000
************************************************************
Dead Time -------------------------  3.4E-08 
Number of Cycles Used -------------  4 
Starting Wavelength (Angstroms) ---  2950 
Final Wavelength (Angstoms) -------  2984 
Wavelength Increment (Angstroms) --  .25 
Filter Wheel #1 Position ---------- (1) Ground quartz diffuser (ND=2.32)
Filter Wheel #2 Position ---------- (1) Neutral Density 0.494



************************************************************
HS scan start time = 20:07:19
Dark Count =  2.7 


Time (GMT)  Wavelength (Ang)  Step Number  Raw Counts  Counts/Second

 1208.21        2950.00           2144          72.00       302.10
 1208.41        2950.25           2147          66.00       275.94
 1208.44        2950.50           2151          63.00       262.86
 1208.47        2950.75           2155          64.00       267.22
 1208.50        2951.00           2158          56.00       232.35
 1208.53        2951.25           2162          67.00       280.30
 1208.56        2951.50           2165          66.00       275.94
 1208.59        2951.75           2169          76.00       319.53
 1208.62        2952.00           2172          70.00       293.38
 1208.65        2952.25           2176          65.00       271.58
 1208.68        2952.50           2179          70.00       293.38
 1208.71        2952.75           2183          74.00       310.81
 1208.74        2953.00           2186          66.00       275.94
 1208.77        2953.25           2190          70.00       293.38
 1208.81        2953.50           2193          67.00       280.30
 1208.84        2953.75           2197          77.00       323.89
 1208.87        2954.00           2200          73.00       306.45
 1208.90        2954.25           2204          74.00       310.81
 1208.93        2954.50           2208          77.00       323.89
 1208.96        2954.75           2211          75.00       315.17
 1208.99        2955.00           2215          74.00       310.81
 1209.02        2955.25           2218          76.00       319.53
 1209.05        2955.50           2222          67.00       280.30
 1209.08        2955.75           2225          76.00       319.53
 1209.11        2956.00           2229          78.00       328.25
 1209.14        2956.25           2232          80.00       336.97
 1209.17        2956.50           2236          76.00       319.53
 1209.20        2956.75           2239          90.00       380.56
 1209.23        2957.00           2243          76.00       319.53
 1209.26        2957.25           2246          76.00       319.53
 1209.29        2957.50           2250          80.00       336.97
 1209.33        2957.75           2254          78.00       328.25
 1209.36        2958.00           2257          74.00       310.81
 1209.39        2958.25           2261          83.00       350.05
 1209.42        2958.50           2264          95.00       402.36
 1209.45        2958.75           2268          90.00       380.56
 1209.48        2959.00           2271          85.00       358.77
 1209.51        2959.25           2275          94.00       398.00
 1209.54        2959.50           2278         123.00       524.42
 1209.57        2959.75           2282          97.00       411.08
 1209.60        2960.00           2285         112.00       476.47
 1209.63        2960.25           2289          89.00       376.20
 1209.66        2960.50           2293          98.00       415.44
 1209.69        2960.75           2296         125.00       533.14
 1209.72        2961.00           2300         145.00       620.33
 1209.75        2961.25           2303         283.00      1221.93
 1209.78        2961.50           2307        1015.00      4413.48
 1209.81        2961.75           2310        1992.00      8674.31
 1209.85        2962.00           2314        3575.00     15580.62
 1209.88        2962.25           2317        4743.00     20678.44
 1209.91        2962.50           2321        6297.00     27463.74
 1209.94        2962.75           2324        7307.00     31875.42
 1209.97        2963.00           2328        8909.00     38875.68
 1210.00        2963.25           2331       10251.00     44742.38
 1210.03        2963.50           2335       12132.00     52969.33
 1210.06        2963.75           2339       13829.00     60395.47
 1210.09        2964.00           2342       15203.00     66410.91
 1210.12        2964.25           2346       16877.00     73743.09
 1210.15        2964.50           2349       18135.00     79255.57
 1210.18        2964.75           2353       20140.00     88045.66
 1210.21        2965.00           2356       21605.00     94471.66
 1210.24        2965.25           2360       23461.00    102616.80
 1210.27        2965.50           2363       24567.00    107472.70
 1210.30        2965.75           2367       26621.00    116495.00
 1210.33        2966.00           2370       27666.00    121087.30
 1210.37        2966.25           2374       28971.00    126824.30
 1210.40        2966.50           2378       29616.00    129660.60
 1210.43        2966.75           2381       29611.00    129638.60
 1210.46        2967.00           2385       29901.00    130914.00
 1210.49        2967.25           2388       30043.00    131538.60
 1210.52        2967.50           2392       29829.00    130597.40
 1210.55        2967.75           2395       29649.00    129805.70
 1210.58        2968.00           2399       28628.00    125316.20
 1210.61        2968.25           2402       27879.00    122023.50
 1210.64        2968.50           2406       26039.00    113937.90
 1210.67        2968.75           2409       25502.00    111579.00
 1210.70        2969.00           2413       24160.00    105685.50
 1210.73        2969.25           2417       22184.00     97012.14
 1210.76        2969.50           2420       21120.00     92343.97
 1210.79        2969.75           2424       19341.00     84542.14
 1210.82        2970.00           2427       18227.00     79658.79
 1210.85        2970.25           2431       16278.00     71119.03
 1210.89        2970.50           2434       14899.00     65079.77
 1210.92        2970.75           2438       13100.00     57204.88
 1210.95        2971.00           2441       11684.00     51009.49
 1210.98        2971.25           2445        9940.00     43382.60
 1211.01        2971.50           2449        8120.00     35427.56
 1211.04        2971.75           2452        6686.00     29162.73
 1211.07        2972.00           2456        4958.00     21617.02
 1211.10        2972.25           2459        3596.00     15672.26
 1211.13        2972.50           2463        1987.00      8652.50
 1211.16        2972.75           2466         966.00      4199.82
 1211.19        2973.00           2470         313.00      1352.72
 1211.22        2973.25           2473         166.00       711.87
 1211.25        2973.50           2477         134.00       572.37
 1211.28        2973.75           2481         134.00       572.37
 1211.31        2974.00           2484         127.00       541.86
 1211.34        2974.25           2488         145.00       620.33
 1211.37        2974.50           2491         170.00       729.31
 1211.41        2974.75           2495         174.00       746.75
 1211.44        2975.00           2498         139.00       594.17
 1211.47        2975.25           2502         105.00       445.95
 1211.50        2975.50           2505         113.00       480.83
 1211.53        2975.75           2509         129.00       550.58
 1211.56        2976.00           2512         113.00       480.83
 1211.59        2976.25           2516         116.00       493.91
 1211.62        2976.50           2520         128.00       546.22
 1211.65        2976.75           2523         108.00       459.03
 1211.68        2977.00           2527         103.00       437.23
 1211.71        2977.25           2530         123.00       524.42
 1211.74        2977.50           2534         137.00       585.45
 1211.77        2977.75           2537         133.00       568.01
 1211.80        2978.00           2541          95.00       402.36
 1211.83        2978.25           2544         117.00       498.26
 1211.86        2978.50           2548         123.00       524.42
 1211.89        2978.75           2552         100.00       424.16
 1211.93        2979.00           2555          90.00       380.56
 1211.96        2979.25           2559         113.00       480.83
 1211.99        2979.50           2562         111.00       472.11
 1212.02        2979.75           2566         102.00       432.87
 1212.05        2980.00           2569         102.00       432.87
 1212.08        2980.25           2573         103.00       437.23
 1212.11        2980.50           2577         120.00       511.34
 1212.14        2980.75           2580         100.00       424.16
 1212.17        2981.00           2584          95.00       402.36
 1212.20        2981.25           2587          95.00       402.36
 1212.23        2981.50           2591          90.00       380.56
 1212.26        2981.75           2594          92.00       389.28
 1212.29        2982.00           2598          89.00       376.20
 1212.32        2982.25           2601          97.00       411.08
 1212.35        2982.50           2605         107.00       454.67
 1212.38        2982.75           2609          95.00       402.36
 1212.41        2983.00           2612          84.00       354.41
 1212.44        2983.25           2616          89.00       376.20
 1212.48        2983.50           2619          97.00       411.08
 1212.51        2983.75           2623          99.00       419.80
 1212.54        2984.00           2626         114.00       485.19
HS scan finished at 20:12:46
end
