************************************************************
  HS Scan of (1) Internal mercury lamp
************************************************************
Integration time is 0.2294 seconds per sample
dh210818Reading 51.44 .94 3.98pr1000
************************************************************
Dead Time -------------------------  3.4E-08 
Number of Cycles Used -------------  4 
Starting Wavelength (Angstroms) ---  2950 
Final Wavelength (Angstoms) -------  2984 
Wavelength Increment (Angstroms) --  .25 
Filter Wheel #1 Position ---------- (1) Ground quartz diffuser (ND=2.32)
Filter Wheel #2 Position ---------- (1) Neutral Density 0.494



************************************************************
HS scan start time = 01:19:14
Dark Count =  7.9 


Time (GMT)  Wavelength (Ang)  Step Number  Raw Counts  Counts/Second

   80.13        2950.00           2144          95.00       379.69
   80.32        2950.25           2147         125.00       510.47
   80.36        2950.50           2151          93.00       370.97
   80.39        2950.75           2155         113.00       458.16
   80.42        2951.00           2158          91.00       362.25
   80.45        2951.25           2162          92.00       366.61
   80.48        2951.50           2165          97.00       388.41
   80.51        2951.75           2169          91.00       362.25
   80.54        2952.00           2172          93.00       370.97
   80.57        2952.25           2176         101.00       405.85
   80.60        2952.50           2179          88.00       349.18
   80.63        2952.75           2183          94.00       375.33
   80.66        2953.00           2186         118.00       479.96
   80.69        2953.25           2190         100.00       401.49
   80.72        2953.50           2193          92.00       366.61
   80.75        2953.75           2197         120.00       488.67
   80.78        2954.00           2200         107.00       432.00
   80.81        2954.25           2204         116.00       471.24
   80.84        2954.50           2208          96.00       384.05
   80.88        2954.75           2211          98.00       392.77
   80.91        2955.00           2215         108.00       436.36
   80.94        2955.25           2218         104.00       418.92
   80.97        2955.50           2222         122.00       497.39
   81.00        2955.75           2225         130.00       532.27
   81.03        2956.00           2229         141.00       580.22
   81.06        2956.25           2232         123.00       501.75
   81.09        2956.50           2236         141.00       580.22
   81.12        2956.75           2239         111.00       449.44
   81.15        2957.00           2243         113.00       458.16
   81.18        2957.25           2246         119.00       484.31
   81.21        2957.50           2250         124.00       506.11
   81.24        2957.75           2254         123.00       501.75
   81.27        2958.00           2257         139.00       571.50
   81.30        2958.25           2261         124.00       506.11
   81.33        2958.50           2264         152.00       628.17
   81.36        2958.75           2268         143.00       588.94
   81.40        2959.00           2271         130.00       532.27
   81.43        2959.25           2275         131.00       536.63
   81.46        2959.50           2278         127.00       519.19
   81.49        2959.75           2282         134.00       549.71
   81.52        2960.00           2285         138.00       567.14
   81.55        2960.25           2289         145.00       597.66
   81.58        2960.50           2293         169.00       702.28
   81.61        2960.75           2296         172.00       715.36
   81.64        2961.00           2300         235.00       990.01
   81.67        2961.25           2303         516.00      2215.08
   81.70        2961.50           2307        1742.00      7561.23
   81.73        2961.75           2310        3228.00     14043.76
   81.76        2962.00           2314        5634.00     24545.76
   81.79        2962.25           2317        7792.00     33971.65
   81.82        2962.50           2321       10612.00     46298.19
   81.85        2962.75           2324       12764.00     55711.80
   81.88        2963.00           2328       15548.00     67898.95
   81.92        2963.25           2331       17553.00     76682.23
   81.95        2963.50           2335       20412.00     89215.72
   81.98        2963.75           2339       23509.00    102804.70
   82.01        2964.00           2342       25665.00    112272.10
   82.04        2964.25           2346       28516.00    124800.90
   82.07        2964.50           2349       30581.00    133882.30
   82.10        2964.75           2353       33630.00    147301.30
   82.13        2965.00           2356       35315.00    154722.40
   82.16        2965.25           2360       37915.00    166180.90
   82.19        2965.50           2363       40060.00    175640.80
   82.22        2965.75           2367       42948.00    188387.20
   82.25        2966.00           2370       44514.00    195303.50
   82.28        2966.25           2374       46627.00    204640.80
   82.31        2966.50           2378       47561.00    208770.00
   82.34        2966.75           2381       47586.00    208880.60
   82.37        2967.00           2385       48084.00    211082.70
   82.40        2967.25           2388       47997.00    210698.00
   82.43        2967.50           2392       47963.00    210547.60
   82.47        2967.75           2395       47755.00    209627.90
   82.50        2968.00           2399       46526.00    204194.30
   82.53        2968.25           2402       44678.00    196028.00
   82.56        2968.50           2406       41922.00    183857.60
   82.59        2968.75           2409       40170.00    176126.10
   82.63        2969.00           2413       37585.00    164726.00
   82.66        2969.25           2417       34779.00    152361.40
   82.69        2969.50           2420       32630.00    142898.80
   82.72        2969.75           2424       29779.00    130354.60
   82.75        2970.00           2427       27745.00    121411.70
   82.78        2970.25           2431       24524.00    107261.00
   82.81        2970.50           2434       22546.00     98577.88
   82.84        2970.75           2438       19824.00     86637.12
   82.87        2971.00           2441       17741.00     77506.07
   82.90        2971.25           2445       14589.00     63699.72
   82.93        2971.50           2449       11929.00     52058.50
   82.96        2971.75           2452        9801.00     42752.16
   82.99        2972.00           2456        7008.00     30546.53
   83.02        2972.25           2459        5027.00     21895.55
   83.05        2972.50           2463        2740.00     11914.59
   83.08        2972.75           2466        1362.00      5903.98
   83.11        2973.00           2470         426.00      1822.69
   83.15        2973.25           2473         254.00      1072.84
   83.18        2973.50           2477         178.00       741.52
   83.21        2973.75           2481         153.00       632.53
   83.24        2974.00           2484         159.00       658.69
   83.27        2974.25           2488         150.00       619.46
   83.30        2974.50           2491         144.00       593.30
   83.33        2974.75           2495         156.00       645.61
   83.36        2975.00           2498         141.00       580.22
   83.39        2975.25           2502         153.00       632.53
   83.42        2975.50           2505         152.00       628.17
   83.45        2975.75           2509         126.00       514.83
   83.48        2976.00           2512         120.00       488.67
   83.51        2976.25           2516         163.00       676.13
   83.54        2976.50           2520         146.00       602.02
   83.57        2976.75           2523         133.00       545.35
   83.60        2977.00           2527         155.00       641.25
   83.63        2977.25           2530         131.00       536.63
   83.67        2977.50           2534         146.00       602.02
   83.70        2977.75           2537         112.00       453.80
   83.73        2978.00           2541         112.00       453.80
   83.76        2978.25           2544         141.00       580.22
   83.79        2978.50           2548         124.00       506.11
   83.82        2978.75           2552         110.00       445.08
   83.85        2979.00           2555          98.00       392.77
   83.88        2979.25           2559         108.00       436.36
   83.91        2979.50           2562         121.00       493.03
   83.94        2979.75           2566         100.00       401.49
   83.97        2980.00           2569         113.00       458.16
   84.00        2980.25           2573          99.00       397.13
   84.03        2980.50           2577          92.00       366.61
   84.06        2980.75           2580         102.00       410.21
   84.09        2981.00           2584         110.00       445.08
   84.12        2981.25           2587         121.00       493.03
   84.15        2981.50           2591         138.00       567.14
   84.19        2981.75           2594         111.00       449.44
   84.22        2982.00           2598         103.00       414.57
   84.25        2982.25           2601         122.00       497.39
   84.28        2982.50           2605         117.00       475.60
   84.31        2982.75           2609         111.00       449.44
   84.34        2983.00           2612          97.00       388.41
   84.37        2983.25           2616          97.00       388.41
   84.40        2983.50           2619         101.00       405.85
   84.43        2983.75           2623         118.00       479.96
   84.46        2984.00           2626          96.00       384.05
HS scan finished at 01:24:41
end
************************************************************
  HS Scan of (1) Internal mercury lamp
************************************************************
Integration time is 0.2294 seconds per sample
dh210818Reading 51.44 .94 3.94pr1000
************************************************************
Dead Time -------------------------  3.4E-08 
Number of Cycles Used -------------  4 
Starting Wavelength (Angstroms) ---  2950 
Final Wavelength (Angstoms) -------  2984 
Wavelength Increment (Angstroms) --  .25 
Filter Wheel #1 Position ---------- (1) Ground quartz diffuser (ND=2.32)
Filter Wheel #2 Position ---------- (1) Neutral Density 0.494



************************************************************
HS scan start time = 20:06:53
Dark Count =  8.8 


Time (GMT)  Wavelength (Ang)  Step Number  Raw Counts  Counts/Second

 1207.79        2950.00           2144          50.00       179.60
 1207.98        2950.25           2147          52.00       188.32
 1208.01        2950.50           2151          52.00       188.32
 1208.04        2950.75           2155          52.00       188.32
 1208.07        2951.00           2158          61.00       227.55
 1208.11        2951.25           2162          61.00       227.55
 1208.14        2951.50           2165          52.00       188.32
 1208.17        2951.75           2169          59.00       218.83
 1208.20        2952.00           2172          49.00       175.24
 1208.23        2952.25           2176          57.00       210.11
 1208.26        2952.50           2179          54.00       197.04
 1208.29        2952.75           2183          55.00       201.40
 1208.32        2953.00           2186          53.00       192.68
 1208.35        2953.25           2190          50.00       179.60
 1208.38        2953.50           2193          55.00       201.40
 1208.41        2953.75           2197          52.00       188.32
 1208.44        2954.00           2200          54.00       197.04
 1208.47        2954.25           2204          53.00       192.68
 1208.50        2954.50           2208          55.00       201.40
 1208.53        2954.75           2211          55.00       201.40
 1208.56        2955.00           2215          62.00       231.91
 1208.59        2955.25           2218          56.00       205.76
 1208.63        2955.50           2222          57.00       210.11
 1208.66        2955.75           2225          55.00       201.40
 1208.69        2956.00           2229          59.00       218.83
 1208.72        2956.25           2232          46.00       162.16
 1208.75        2956.50           2236          61.00       227.55
 1208.78        2956.75           2239          65.00       244.99
 1208.81        2957.00           2243          59.00       218.83
 1208.84        2957.25           2246          59.00       218.83
 1208.87        2957.50           2250          65.00       244.99
 1208.90        2957.75           2254          65.00       244.99
 1208.93        2958.00           2257          59.00       218.83
 1208.96        2958.25           2261          63.00       236.27
 1208.99        2958.50           2264          65.00       244.99
 1209.02        2958.75           2268          67.00       253.71
 1209.05        2959.00           2271          62.00       231.91
 1209.08        2959.25           2275          70.00       266.79
 1209.11        2959.50           2278          68.00       258.07
 1209.15        2959.75           2282          61.00       227.55
 1209.18        2960.00           2285          72.00       275.50
 1209.21        2960.25           2289          67.00       253.71
 1209.24        2960.50           2293          64.00       240.63
 1209.27        2960.75           2296          83.00       323.46
 1209.30        2961.00           2300         116.00       467.31
 1209.33        2961.25           2303         255.00      1073.27
 1209.36        2961.50           2307         865.00      3732.82
 1209.39        2961.75           2310        1527.00      6619.62
 1209.42        2962.00           2314        2443.00     10614.99
 1209.45        2962.25           2317        3127.00     13599.14
 1209.48        2962.50           2321        4244.00     18473.68
 1209.51        2962.75           2324        5021.00     21865.43
 1209.54        2963.00           2328        6192.00     26978.53
 1209.57        2963.25           2331        7077.00     30844.01
 1209.60        2963.50           2335        8128.00     35435.87
 1209.63        2963.75           2339        9466.00     41283.72
 1209.67        2964.00           2342       10329.00     45056.77
 1209.70        2964.25           2346       11513.00     50234.82
 1209.73        2964.50           2349       12353.00     53909.54
 1209.76        2964.75           2353       13261.00     57882.77
 1209.79        2965.00           2356       14155.00     61795.79
 1209.82        2965.25           2360       15283.00     66734.51
 1209.85        2965.50           2363       16076.00     70207.50
 1209.88        2965.75           2367       17030.00     74386.68
 1209.91        2966.00           2370       17739.00     77493.36
 1209.94        2966.25           2374       18602.00     81275.72
 1209.97        2966.50           2378       19161.00     83726.24
 1210.00        2966.75           2381       19302.00     84344.41
 1210.03        2967.00           2385       19392.00     84738.99
 1210.06        2967.25           2388       19155.00     83699.93
 1210.09        2967.50           2392       19300.00     84335.63
 1210.12        2967.75           2395       19118.00     83537.72
 1210.15        2968.00           2399       18227.00     79632.05
 1210.18        2968.25           2402       17714.00     77383.81
 1210.22        2968.50           2406       16574.00     72388.93
 1210.25        2968.75           2409       15735.00     68713.96
 1210.28        2969.00           2413       14612.00     63796.47
 1210.31        2969.25           2417       13447.00     58696.80
 1210.34        2969.50           2420       12806.00     55891.64
 1210.37        2969.75           2424       11700.00     51052.80
 1210.40        2970.00           2427       10709.00     46718.44
 1210.43        2970.25           2431        9671.00     42179.90
 1210.46        2970.50           2434        8850.00     38591.15
 1210.49        2970.75           2438        7796.00     33985.20
 1210.52        2971.00           2441        7051.00     30730.44
 1210.55        2971.25           2445        5907.00     25733.93
 1210.58        2971.50           2449        5085.00     22144.83
 1210.61        2971.75           2452        4224.00     18386.38
 1210.64        2972.00           2456        2920.00     12695.98
 1210.67        2972.25           2459        2143.00      9306.35
 1210.71        2972.50           2463        1189.00      5145.63
 1210.74        2972.75           2466         627.00      2695.10
 1210.77        2973.00           2470         193.00       802.99
 1210.80        2973.25           2473         112.00       449.88
 1210.83        2973.50           2477          83.00       323.46
 1210.86        2973.75           2481          86.00       336.53
 1210.89        2974.00           2484          87.00       340.89
 1210.92        2974.25           2488          78.00       301.66
 1210.95        2974.50           2491          78.00       301.66
 1210.98        2974.75           2495          80.00       310.38
 1211.01        2975.00           2498          71.00       271.14
 1211.04        2975.25           2502          79.00       306.02
 1211.07        2975.50           2505          74.00       284.22
 1211.10        2975.75           2509          81.00       314.74
 1211.13        2976.00           2512          75.00       288.58
 1211.16        2976.25           2516          66.00       249.35
 1211.19        2976.50           2520          64.00       240.63
 1211.23        2976.75           2523          70.00       266.79
 1211.26        2977.00           2527          65.00       244.99
 1211.29        2977.25           2530          66.00       249.35
 1211.32        2977.50           2534          62.00       231.91
 1211.35        2977.75           2537          61.00       227.55
 1211.38        2978.00           2541          58.00       214.47
 1211.41        2978.25           2544          63.00       236.27
 1211.44        2978.50           2548          61.00       227.55
 1211.47        2978.75           2552          67.00       253.71
 1211.50        2979.00           2555          63.00       236.27
 1211.53        2979.25           2559          60.00       223.19
 1211.56        2979.50           2562          58.00       214.47
 1211.59        2979.75           2566          57.00       210.11
 1211.62        2980.00           2569          64.00       240.63
 1211.65        2980.25           2573          59.00       218.83
 1211.68        2980.50           2577          57.00       210.11
 1211.71        2980.75           2580          57.00       210.11
 1211.74        2981.00           2584          55.00       201.40
 1211.78        2981.25           2587          56.00       205.76
 1211.81        2981.50           2591          57.00       210.11
 1211.84        2981.75           2594          64.00       240.63
 1211.87        2982.00           2598          59.00       218.83
 1211.90        2982.25           2601          61.00       227.55
 1211.93        2982.50           2605          58.00       214.47
 1211.96        2982.75           2609          55.00       201.40
 1211.99        2983.00           2612          59.00       218.83
 1212.02        2983.25           2616          48.00       170.88
 1212.05        2983.50           2619          55.00       201.40
 1212.08        2983.75           2623          50.00       179.60
 1212.11        2984.00           2626          54.00       197.04
HS scan finished at 20:12:20
end
