************************************************************
  HS Scan of (1) Internal mercury lamp
************************************************************
Integration time is 0.2294 seconds per sample
dh210817Reading 51.44 .94 3.35pr1000
************************************************************
Dead Time -------------------------  3.4E-08 
Number of Cycles Used -------------  4 
Starting Wavelength (Angstroms) ---  2950 
Final Wavelength (Angstoms) -------  2984 
Wavelength Increment (Angstroms) --  .25 
Filter Wheel #1 Position ---------- (1) Ground quartz diffuser (ND=2.32)
Filter Wheel #2 Position ---------- (1) Neutral Density 0.494



************************************************************
HS scan start time = 01:19:05
Dark Count =  1.7 


Time (GMT)  Wavelength (Ang)  Step Number  Raw Counts  Counts/Second

   79.98        2950.00           2144         134.00       576.73
   80.17        2950.25           2147         122.00       524.42
   80.20        2950.50           2151         171.00       738.03
   80.23        2950.75           2155         148.00       637.76
   80.26        2951.00           2158         149.00       642.12
   80.29        2951.25           2162         162.00       698.80
   80.32        2951.50           2165         129.00       554.94
   80.36        2951.75           2169         131.00       563.66
   80.39        2952.00           2172         145.00       624.69
   80.42        2952.25           2176         137.00       589.81
   80.45        2952.50           2179         135.00       581.09
   80.48        2952.75           2183         146.00       629.05
   80.51        2953.00           2186         137.00       589.81
   80.54        2953.25           2190         171.00       738.03
   80.57        2953.50           2193         138.00       594.17
   80.60        2953.75           2197         152.00       655.20
   80.63        2954.00           2200         149.00       642.12
   80.66        2954.25           2204         136.00       585.45
   80.69        2954.50           2208         168.00       724.95
   80.72        2954.75           2211         158.00       681.36
   80.75        2955.00           2215         134.00       576.73
   80.78        2955.25           2218         140.00       602.89
   80.81        2955.50           2222         147.00       633.41
   80.84        2955.75           2225         152.00       655.20
   80.88        2956.00           2229         145.00       624.69
   80.91        2956.25           2232         163.00       703.16
   80.94        2956.50           2236         152.00       655.20
   80.97        2956.75           2239         150.00       646.48
   81.00        2957.00           2243         149.00       642.12
   81.03        2957.25           2246         167.00       720.59
   81.06        2957.50           2250         155.00       668.28
   81.09        2957.75           2254         157.00       677.00
   81.12        2958.00           2257         159.00       685.72
   81.15        2958.25           2261         165.00       711.87
   81.18        2958.50           2264         160.00       690.08
   81.21        2958.75           2268         169.00       729.31
   81.24        2959.00           2271         165.00       711.87
   81.27        2959.25           2275         171.00       738.03
   81.30        2959.50           2278         167.00       720.59
   81.33        2959.75           2282         175.00       755.47
   81.36        2960.00           2285         184.00       794.70
   81.39        2960.25           2289         185.00       799.06
   81.43        2960.50           2293         188.00       812.14
   81.46        2960.75           2296         205.00       886.25
   81.49        2961.00           2300         282.00      1221.93
   81.52        2961.25           2303         599.00      2603.98
   81.55        2961.50           2307        2093.00      9119.22
   81.58        2961.75           2310        4126.00     17989.64
   81.61        2962.00           2314        6992.00     30503.72
   81.64        2962.25           2317        9238.00     40318.09
   81.67        2962.50           2321       12125.00     52943.08
   81.70        2962.75           2324       14296.00     62444.12
   81.73        2963.00           2328       17279.00     75508.78
   81.76        2963.25           2331       19672.00     85997.82
   81.79        2963.50           2335       22919.00    100242.10
   81.82        2963.75           2339       26447.00    115734.80
   81.85        2964.00           2342       28724.00    125742.60
   81.88        2964.25           2346       32253.00    141266.70
   81.91        2964.50           2349       34753.00    152274.10
   81.95        2964.75           2353       37772.00    165577.80
   81.98        2965.00           2356       40050.00    175624.00
   82.01        2965.25           2360       42919.00    188286.50
   82.04        2965.50           2363       45216.00    198432.40
   82.07        2965.75           2367       48545.00    213149.00
   82.10        2966.00           2370       50946.00    223772.40
   82.13        2966.25           2374       53178.00    233654.90
   82.16        2966.50           2378       54509.00    239551.30
   82.19        2966.75           2381       54966.00    241576.40
   82.22        2967.00           2385       55279.00    242963.50
   82.25        2967.25           2388       54870.00    241150.90
   82.28        2967.50           2392       54832.00    240982.60
   82.31        2967.75           2395       54572.00    239830.40
   82.34        2968.00           2399       52340.00    229943.70
   82.37        2968.25           2402       50202.00    220479.70
   82.40        2968.50           2406       47337.00    207807.00
   82.43        2968.75           2409       45098.00    197911.00
   82.47        2969.00           2413       42074.00    184555.90
   82.50        2969.25           2417       38676.00    169563.70
   82.53        2969.50           2420       36426.00    159644.90
   82.56        2969.75           2424       33072.00    144871.80
   82.59        2970.00           2427       30446.00    133315.70
   82.62        2970.25           2431       27345.00    119680.90
   82.65        2970.50           2434       25098.00    109809.00
   82.68        2970.75           2438       21738.00     95059.58
   82.71        2971.00           2441       19175.00     83818.74
   82.74        2971.25           2445       16001.00     69910.10
   82.77        2971.50           2449       12867.00     56189.64
   82.80        2971.75           2452       10699.00     46705.76
   82.83        2972.00           2456        7584.00     33089.95
   82.86        2972.25           2459        5343.00     23302.24
   82.89        2972.50           2463        2508.00     10929.52
   82.92        2972.75           2466        1068.00      4648.95
   82.95        2973.00           2470         351.00      1522.75
   82.99        2973.25           2473         241.00      1043.19
   83.02        2973.50           2477         215.00       929.85
   83.05        2973.75           2481         210.00       908.05
   83.08        2974.00           2484         206.00       890.61
   83.11        2974.25           2488         194.00       838.30
   83.14        2974.50           2491         183.00       790.34
   83.17        2974.75           2495         179.00       772.91
   83.20        2975.00           2498         176.00       759.83
   83.23        2975.25           2502         180.00       777.27
   83.26        2975.50           2505         180.00       777.27
   83.29        2975.75           2509         167.00       720.59
   83.32        2976.00           2512         176.00       759.83
   83.35        2976.25           2516         164.00       707.51
   83.38        2976.50           2520         167.00       720.59
   83.41        2976.75           2523         167.00       720.59
   83.44        2977.00           2527         161.00       694.44
   83.47        2977.25           2530         149.00       642.12
   83.51        2977.50           2534         150.00       646.48
   83.54        2977.75           2537         149.00       642.12
   83.57        2978.00           2541         170.00       733.67
   83.60        2978.25           2544         149.00       642.12
   83.63        2978.50           2548         161.00       694.44
   83.66        2978.75           2552         144.00       620.33
   83.69        2979.00           2555         153.00       659.56
   83.72        2979.25           2559         153.00       659.56
   83.75        2979.50           2562         139.00       598.53
   83.78        2979.75           2566         137.00       589.81
   83.81        2980.00           2569         136.00       585.45
   83.84        2980.25           2573         133.00       572.37
   83.87        2980.50           2577         164.00       707.51
   83.90        2980.75           2580         149.00       642.12
   83.93        2981.00           2584         158.00       681.36
   83.96        2981.25           2587         130.00       559.30
   83.99        2981.50           2591         145.00       624.69
   84.02        2981.75           2594         134.00       576.73
   84.06        2982.00           2598         158.00       681.36
   84.09        2982.25           2601         160.00       690.08
   84.12        2982.50           2605         139.00       598.53
   84.15        2982.75           2609         160.00       690.08
   84.18        2983.00           2612         124.00       533.14
   84.21        2983.25           2616         121.00       520.06
   84.24        2983.50           2619         153.00       659.56
   84.27        2983.75           2623         124.00       533.14
   84.30        2984.00           2626         128.00       550.58
HS scan finished at 01:24:31
end
************************************************************
  HS Scan of (1) Internal mercury lamp
************************************************************
Integration time is 0.2294 seconds per sample
dh210817Reading 51.44 .94 3.78pr1000
************************************************************
Dead Time -------------------------  3.4E-08 
Number of Cycles Used -------------  4 
Starting Wavelength (Angstroms) ---  2950 
Final Wavelength (Angstoms) -------  2984 
Wavelength Increment (Angstroms) --  .25 
Filter Wheel #1 Position ---------- (1) Ground quartz diffuser (ND=2.32)
Filter Wheel #2 Position ---------- (1) Neutral Density 0.494



************************************************************
HS scan start time = 20:07:29
Dark Count =  5.2 


Time (GMT)  Wavelength (Ang)  Step Number  Raw Counts  Counts/Second

 1208.38        2950.00           2144         136.00       570.19
 1208.58        2950.25           2147         125.00       522.24
 1208.61        2950.50           2151         110.00       456.85
 1208.64        2950.75           2155         110.00       456.85
 1208.67        2951.00           2158         107.00       443.77
 1208.70        2951.25           2162         101.00       417.62
 1208.73        2951.50           2165         119.00       496.09
 1208.76        2951.75           2169         140.00       587.63
 1208.79        2952.00           2172         108.00       448.13
 1208.82        2952.25           2176         108.00       448.13
 1208.85        2952.50           2179         122.00       509.16
 1208.88        2952.75           2183         128.00       535.32
 1208.91        2953.00           2186         142.00       596.35
 1208.95        2953.25           2190         122.00       509.16
 1208.98        2953.50           2193         129.00       539.68
 1209.01        2953.75           2197         130.00       544.04
 1209.04        2954.00           2200         117.00       487.37
 1209.07        2954.25           2204         134.00       561.48
 1209.10        2954.50           2208         148.00       622.51
 1209.13        2954.75           2211         122.00       509.16
 1209.16        2955.00           2215         121.00       504.80
 1209.19        2955.25           2218         126.00       526.60
 1209.22        2955.50           2222         138.00       578.91
 1209.25        2955.75           2225         128.00       535.32
 1209.28        2956.00           2229         146.00       613.79
 1209.31        2956.25           2232         138.00       578.91
 1209.34        2956.50           2236         132.00       552.76
 1209.37        2956.75           2239         148.00       622.51
 1209.40        2957.00           2243         152.00       639.94
 1209.43        2957.25           2246         127.00       530.96
 1209.46        2957.50           2250         157.00       661.74
 1209.50        2957.75           2254         138.00       578.91
 1209.54        2958.00           2257         138.00       578.91
 1209.57        2958.25           2261         131.00       548.40
 1209.60        2958.50           2264         147.00       618.15
 1209.63        2958.75           2268         142.00       596.35
 1209.66        2959.00           2271         144.00       605.07
 1209.69        2959.25           2275         147.00       618.15
 1209.72        2959.50           2278         158.00       666.10
 1209.75        2959.75           2282         144.00       605.07
 1209.78        2960.00           2285         148.00       622.51
 1209.81        2960.25           2289         160.00       674.82
 1209.84        2960.50           2293         170.00       718.41
 1209.87        2960.75           2296         172.00       727.13
 1209.90        2961.00           2300         204.00       866.63
 1209.93        2961.25           2303         387.00      1664.44
 1209.97        2961.50           2307        1455.00      6321.32
 1210.00        2961.75           2310        2913.00     12681.14
 1210.03        2962.00           2314        5259.00     22920.21
 1210.06        2962.25           2317        7203.00     31410.16
 1210.09        2962.50           2321        9640.00     42060.11
 1210.12        2962.75           2324       11485.00     50128.08
 1210.15        2963.00           2328       14300.00     62446.31
 1210.18        2963.25           2331       16267.00     71059.88
 1210.21        2963.50           2335       19179.00     83820.94
 1210.24        2963.75           2339       22057.00     96443.89
 1210.27        2964.00           2342       24168.00    105709.70
 1210.30        2964.25           2346       26715.00    116897.00
 1210.33        2964.50           2349       28753.00    125854.70
 1210.36        2964.75           2353       31363.00    137334.60
 1210.39        2965.00           2356       33139.00    145151.40
 1210.42        2965.25           2360       35658.00    156245.50
 1210.45        2965.50           2363       37315.00    163547.70
 1210.49        2965.75           2367       40157.00    176080.70
 1210.52        2966.00           2370       41922.00    183869.50
 1210.55        2966.25           2374       44184.00    193857.70
 1210.58        2966.50           2378       45006.00    197489.00
 1210.61        2966.75           2381       44943.00    197210.70
 1210.64        2967.00           2385       45314.00    198849.90
 1210.67        2967.25           2388       45056.00    197709.90
 1210.70        2967.50           2392       44685.00    196070.90
 1210.73        2967.75           2395       44409.00    194851.60
 1210.76        2968.00           2399       43121.00    189163.00
 1210.79        2968.25           2402       41468.00    181865.60
 1210.82        2968.50           2406       39006.00    171003.60
 1210.85        2968.75           2409       37109.00    162639.70
 1210.88        2969.00           2413       34223.00    149924.50
 1210.91        2969.25           2417       31764.00    139099.20
 1210.94        2969.50           2420       29904.00    130916.20
 1210.97        2969.75           2424       27121.00    118681.10
 1211.01        2970.00           2427       25156.00    110048.30
 1211.04        2970.25           2431       22594.00     98800.39
 1211.07        2970.50           2434       20820.00     91017.06
 1211.10        2970.75           2438       18013.00     78709.93
 1211.13        2971.00           2441       15997.00     69877.25
 1211.16        2971.25           2445       13365.00     58353.67
 1211.19        2971.50           2449       10483.00     45745.90
 1211.22        2971.75           2452        8593.00     37483.66
 1211.25        2972.00           2456        6446.00     28103.56
 1211.28        2972.25           2459        4781.00     20833.41
 1211.31        2972.50           2463        2456.00     10687.41
 1211.34        2972.75           2466        1108.00      4808.11
 1211.37        2973.00           2470         316.00      1354.90
 1211.40        2973.25           2473         205.00       870.99
 1211.43        2973.50           2477         193.00       818.68
 1211.46        2973.75           2481         171.00       722.77
 1211.49        2974.00           2484         165.00       696.62
 1211.52        2974.25           2488         153.00       644.30
 1211.56        2974.50           2491         155.00       653.02
 1211.59        2974.75           2495         150.00       631.23
 1211.62        2975.00           2498         154.00       648.66
 1211.65        2975.25           2502         151.00       635.58
 1211.68        2975.50           2505         158.00       666.10
 1211.71        2975.75           2509         140.00       587.63
 1211.74        2976.00           2512         134.00       561.48
 1211.77        2976.25           2516         176.00       744.57
 1211.80        2976.50           2520         123.00       513.52
 1211.83        2976.75           2523         154.00       648.66
 1211.86        2977.00           2527         139.00       583.27
 1211.89        2977.25           2530         133.00       557.12
 1211.92        2977.50           2534         140.00       587.63
 1211.95        2977.75           2537         161.00       679.18
 1211.98        2978.00           2541         151.00       635.58
 1212.01        2978.25           2544         133.00       557.12
 1212.05        2978.50           2548         123.00       513.52
 1212.08        2978.75           2552         125.00       522.24
 1212.11        2979.00           2555         140.00       587.63
 1212.14        2979.25           2559         140.00       587.63
 1212.17        2979.50           2562         121.00       504.80
 1212.20        2979.75           2566         130.00       544.04
 1212.23        2980.00           2569         133.00       557.12
 1212.26        2980.25           2573         114.00       474.29
 1212.29        2980.50           2577         137.00       574.55
 1212.32        2980.75           2580         104.00       430.70
 1212.35        2981.00           2584         129.00       539.68
 1212.38        2981.25           2587         121.00       504.80
 1212.41        2981.50           2591         106.00       439.41
 1212.44        2981.75           2594          97.00       400.18
 1212.47        2982.00           2598         119.00       496.09
 1212.50        2982.25           2601         102.00       421.98
 1212.53        2982.50           2605         103.00       426.34
 1212.57        2982.75           2609         105.00       435.05
 1212.60        2983.00           2612         109.00       452.49
 1212.63        2983.25           2616         124.00       517.88
 1212.66        2983.50           2619         109.00       452.49
 1212.69        2983.75           2623         114.00       474.29
 1212.72        2984.00           2626         105.00       435.05
HS scan finished at 20:12:57
end
