************************************************************
  HS Scan of (1) Internal mercury lamp
************************************************************
Integration time is 0.2294 seconds per sample
dh220818Reading 51.44 .94 3.66pr1000
************************************************************
Dead Time -------------------------  3.4E-08 
Number of Cycles Used -------------  4 
Starting Wavelength (Angstroms) ---  2950 
Final Wavelength (Angstoms) -------  2984 
Wavelength Increment (Angstroms) --  .25 
Filter Wheel #1 Position ---------- (1) Ground quartz diffuser (ND=2.32)
Filter Wheel #2 Position ---------- (1) Neutral Density 0.494



************************************************************
HS scan start time = 02:38:44
Dark Count =  3.4 


Time (GMT)  Wavelength (Ang)  Step Number  Raw Counts  Counts/Second

  159.63        2950.00           2144         101.00       425.46
  159.82        2950.25           2147         110.00       464.70
  159.85        2950.50           2151         121.00       512.65
  159.88        2950.75           2155         136.00       578.04
  159.91        2951.00           2158         119.00       503.93
  159.94        2951.25           2162         119.00       503.93
  159.97        2951.50           2165         151.00       643.43
  160.00        2951.75           2169         137.00       582.40
  160.03        2952.00           2172         141.00       599.84
  160.07        2952.25           2176         122.00       517.01
  160.10        2952.50           2179         118.00       499.57
  160.13        2952.75           2183         171.00       730.62
  160.16        2953.00           2186         141.00       599.84
  160.19        2953.25           2190         137.00       582.40
  160.22        2953.50           2193         131.00       556.24
  160.25        2953.75           2197         140.00       595.48
  160.28        2954.00           2200         148.00       630.35
  160.31        2954.25           2204         133.00       564.96
  160.34        2954.50           2208         129.00       547.53
  160.37        2954.75           2211         166.00       708.82
  160.40        2955.00           2215         147.00       625.99
  160.43        2955.25           2218         174.00       743.70
  160.46        2955.50           2222         147.00       625.99
  160.49        2955.75           2225         134.00       569.32
  160.52        2956.00           2229         144.00       612.92
  160.55        2956.25           2232         144.00       612.92
  160.59        2956.50           2236         165.00       704.46
  160.62        2956.75           2239         158.00       673.95
  160.65        2957.00           2243         156.00       665.23
  160.68        2957.25           2246         144.00       612.92
  160.71        2957.50           2250         165.00       704.46
  160.74        2957.75           2254         148.00       630.35
  160.77        2958.00           2257         149.00       634.71
  160.80        2958.25           2261         167.00       713.18
  160.83        2958.50           2264         150.00       639.07
  160.86        2958.75           2268         155.00       660.87
  160.89        2959.00           2271         172.00       734.98
  160.92        2959.25           2275         160.00       682.67
  160.95        2959.50           2278         182.00       778.57
  160.98        2959.75           2282         177.00       756.78
  161.01        2960.00           2285         182.00       778.57
  161.04        2960.25           2289         187.00       800.37
  161.07        2960.50           2293         199.00       852.68
  161.11        2960.75           2296         205.00       878.84
  161.14        2961.00           2300         326.00      1406.34
  161.17        2961.25           2303         867.00      3765.09
  161.20        2961.50           2307        2871.00     12505.75
  161.23        2961.75           2310        5152.00     22460.92
  161.26        2962.00           2314        8740.00     38133.98
  161.29        2962.25           2317       11255.00     49129.95
  161.32        2962.50           2321       14516.00     63399.82
  161.35        2962.75           2324       17248.00     75365.50
  161.38        2963.00           2328       21155.00     92494.43
  161.41        2963.25           2331       24290.00    106253.30
  161.44        2963.50           2335       28110.00    123035.90
  161.47        2963.75           2339       31506.00    137971.80
  161.50        2964.00           2342       34458.00    150967.40
  161.53        2964.25           2346       37975.00    166465.30
  161.56        2964.50           2349       41034.00    179958.30
  161.59        2964.75           2353       44878.00    196931.50
  161.63        2965.00           2356       47913.00    210346.50
  161.66        2965.25           2360       51317.00    225407.00
  161.69        2965.50           2363       54145.00    237931.00
  161.72        2965.75           2367       57636.00    253405.90
  161.75        2966.00           2370       60009.00    263934.20
  161.78        2966.25           2374       62444.00    274745.50
  161.81        2966.50           2378       63480.00    279347.70
  161.84        2966.75           2381       63421.00    279085.60
  161.87        2967.00           2385       63947.00    281422.80
  161.90        2967.25           2388       63731.00    280463.00
  161.93        2967.50           2392       63742.00    280511.80
  161.96        2967.75           2395       63051.00    277441.80
  161.99        2968.00           2399       60863.00    267725.00
  162.02        2968.25           2402       58651.00    257908.20
  162.05        2968.50           2406       54648.00    240159.70
  162.08        2968.75           2409       51943.00    228178.40
  162.11        2969.00           2413       48337.00    212221.50
  162.15        2969.25           2417       44947.00    197236.30
  162.18        2969.50           2420       42353.00    185780.10
  162.21        2969.75           2424       38710.00    169706.10
  162.24        2970.00           2427       35693.00    156407.60
  162.27        2970.25           2431       31447.00    137712.20
  162.30        2970.50           2434       28657.00    125440.60
  162.33        2970.75           2438       24731.00    108189.70
  162.36        2971.00           2441       21890.00     95719.03
  162.39        2971.25           2445       18614.00     81352.00
  162.42        2971.50           2449       15014.00     65580.24
  162.45        2971.75           2452       12401.00     54143.17
  162.48        2972.00           2456        9052.00     39497.65
  162.51        2972.25           2459        6327.00     27591.70
  162.54        2972.50           2463        3064.00     13347.82
  162.57        2972.75           2466        1285.00      5587.81
  162.60        2973.00           2470         387.00      1672.28
  162.63        2973.25           2473         285.00      1227.60
  162.67        2973.50           2477         231.00       992.19
  162.70        2973.75           2481         203.00       870.12
  162.73        2974.00           2484         191.00       817.81
  162.76        2974.25           2488         198.00       848.32
  162.79        2974.50           2491         189.00       809.09
  162.82        2974.75           2495         188.00       804.73
  162.85        2975.00           2498         181.00       774.21
  162.88        2975.25           2502         178.00       761.14
  162.91        2975.50           2505         172.00       734.98
  162.94        2975.75           2509         163.00       695.74
  162.97        2976.00           2512         165.00       704.46
  163.00        2976.25           2516         164.00       700.10
  163.03        2976.50           2520         164.00       700.10
  163.06        2976.75           2523         164.00       700.10
  163.09        2977.00           2527         158.00       673.95
  163.12        2977.25           2530         154.00       656.51
  163.15        2977.50           2534         165.00       704.46
  163.18        2977.75           2537         146.00       621.63
  163.22        2978.00           2541         140.00       595.48
  163.25        2978.25           2544         149.00       634.71
  163.28        2978.50           2548         145.00       617.28
  163.31        2978.75           2552         134.00       569.32
  163.34        2979.00           2555         181.00       774.21
  163.37        2979.25           2559         144.00       612.92
  163.40        2979.50           2562         170.00       726.26
  163.43        2979.75           2566         135.00       573.68
  163.46        2980.00           2569         140.00       595.48
  163.49        2980.25           2573         134.00       569.32
  163.52        2980.50           2577         132.00       560.60
  163.55        2980.75           2580         152.00       647.79
  163.58        2981.00           2584         123.00       521.37
  163.61        2981.25           2587         154.00       656.51
  163.64        2981.50           2591         119.00       503.93
  163.67        2981.75           2594         172.00       734.98
  163.70        2982.00           2598         169.00       721.90
  163.74        2982.25           2601         141.00       599.84
  163.77        2982.50           2605         166.00       708.82
  163.80        2982.75           2609         125.00       530.09
  163.83        2983.00           2612         134.00       569.32
  163.86        2983.25           2616         120.00       508.29
  163.89        2983.50           2619         133.00       564.96
  163.92        2983.75           2623         150.00       639.07
  163.95        2984.00           2626         125.00       530.09
HS scan finished at 02:44:10
end
************************************************************
  HS Scan of (1) Internal mercury lamp
************************************************************
Integration time is 0.2294 seconds per sample
dh220818Reading 51.44 .94 3.88pr1000
************************************************************
Dead Time -------------------------  3.4E-08 
Number of Cycles Used -------------  4 
Starting Wavelength (Angstroms) ---  2950 
Final Wavelength (Angstoms) -------  2984 
Wavelength Increment (Angstroms) --  .25 
Filter Wheel #1 Position ---------- (1) Ground quartz diffuser (ND=2.32)
Filter Wheel #2 Position ---------- (1) Neutral Density 0.494



************************************************************
HS scan start time = 20:10:03
Dark Count =  6.8 


Time (GMT)  Wavelength (Ang)  Step Number  Raw Counts  Counts/Second

 1210.95        2950.00           2144          55.00       210.11
 1211.14        2950.25           2147          66.00       258.07
 1211.17        2950.50           2151          60.00       231.91
 1211.20        2950.75           2155          69.00       271.14
 1211.23        2951.00           2158          64.00       249.35
 1211.26        2951.25           2162          71.00       279.86
 1211.29        2951.50           2165          69.00       271.14
 1211.32        2951.75           2169          69.00       271.14
 1211.35        2952.00           2172          66.00       258.07
 1211.38        2952.25           2176          62.00       240.63
 1211.42        2952.50           2179          77.00       306.02
 1211.45        2952.75           2183          68.00       266.79
 1211.48        2953.00           2186          71.00       279.86
 1211.51        2953.25           2190          77.00       306.02
 1211.54        2953.50           2193          71.00       279.86
 1211.57        2953.75           2197          78.00       310.38
 1211.60        2954.00           2200          72.00       284.22
 1211.63        2954.25           2204          66.00       258.07
 1211.66        2954.50           2208          64.00       249.35
 1211.69        2954.75           2211          79.00       314.74
 1211.72        2955.00           2215          79.00       314.74
 1211.75        2955.25           2218          77.00       306.02
 1211.78        2955.50           2222          81.00       323.46
 1211.81        2955.75           2225          83.00       332.17
 1211.84        2956.00           2229          83.00       332.17
 1211.87        2956.25           2232          82.00       327.82
 1211.91        2956.50           2236          82.00       327.82
 1211.94        2956.75           2239          88.00       353.97
 1211.97        2957.00           2243          87.00       349.61
 1212.00        2957.25           2246          88.00       353.97
 1212.03        2957.50           2250          95.00       384.49
 1212.06        2957.75           2254          95.00       384.49
 1212.09        2958.00           2257          86.00       345.25
 1212.12        2958.25           2261         103.00       419.36
 1212.15        2958.50           2264          95.00       384.49
 1212.18        2958.75           2268         108.00       441.16
 1212.21        2959.00           2271         113.00       462.95
 1212.24        2959.25           2275         102.00       415.00
 1212.27        2959.50           2278         130.00       537.06
 1212.30        2959.75           2282         104.00       423.72
 1212.33        2960.00           2285         108.00       441.16
 1212.36        2960.25           2289         115.00       471.67
 1212.39        2960.50           2293         117.00       480.39
 1212.42        2960.75           2296         130.00       537.06
 1212.46        2961.00           2300         171.00       715.80
 1212.49        2961.25           2303         337.00      1439.48
 1212.52        2961.50           2307        1255.00      5442.16
 1212.55        2961.75           2310        2463.00     10710.96
 1212.58        2962.00           2314        4531.00     19735.12
 1212.61        2962.25           2317        6178.00     26926.12
 1212.64        2962.50           2321        8491.00     37030.90
 1212.67        2962.75           2324       10131.00     44199.77
 1212.70        2963.00           2328       12192.00     53213.89
 1212.73        2963.25           2331       13896.00     60670.80
 1212.76        2963.50           2335       16438.00     71801.93
 1212.79        2963.75           2339       18865.00     82437.36
 1212.82        2964.00           2342       20470.00     89474.92
 1212.85        2964.25           2346       23056.00    100821.00
 1212.88        2964.50           2349       24734.00    108188.00
 1212.91        2964.75           2353       27529.00    120467.10
 1212.94        2965.00           2356       29380.00    128604.70
 1212.98        2965.25           2360       31651.00    138594.90
 1213.01        2965.50           2363       33730.00    147746.40
 1213.04        2965.75           2367       35991.00    157705.60
 1213.07        2966.00           2370       38230.00    167574.60
 1213.10        2966.25           2374       40090.00    175778.00
 1213.13        2966.50           2378       41295.00    181095.10
 1213.16        2966.75           2381       42000.00    184206.80
 1213.19        2967.00           2385       42648.00    187067.50
 1213.22        2967.25           2388       43058.00    188877.80
 1213.25        2967.50           2392       43435.00    190542.60
 1213.28        2967.75           2395       43023.00    188723.20
 1213.31        2968.00           2399       41449.00    181774.70
 1213.34        2968.25           2402       39987.00    175323.60
 1213.37        2968.50           2406       38279.00    167790.60
 1213.40        2968.75           2409       36459.00    159767.90
 1213.43        2969.00           2413       34302.00    150265.30
 1213.46        2969.25           2417       31956.00    139937.10
 1213.49        2969.50           2420       30272.00    132527.80
 1213.53        2969.75           2424       27680.00    121130.80
 1213.56        2970.00           2427       25691.00    112391.20
 1213.59        2970.25           2431       23150.00    101233.60
 1213.62        2970.50           2434       21467.00     93848.22
 1213.65        2970.75           2438       18864.00     82432.98
 1213.68        2971.00           2441       16855.00     73628.72
 1213.71        2971.25           2445       13744.00     60005.48
 1213.74        2971.50           2449       10899.00     47558.10
 1213.77        2971.75           2452        9095.00     39670.74
 1213.80        2972.00           2456        6632.00     28908.96
 1213.83        2972.25           2459        4729.00     20599.43
 1213.86        2972.50           2463        2352.00     10226.75
 1213.89        2972.75           2466        1113.00      4822.94
 1213.92        2973.00           2470         373.00      1596.42
 1213.95        2973.25           2473         208.00       877.10
 1213.98        2973.50           2477         165.00       689.64
 1214.01        2973.75           2481         169.00       707.08
 1214.05        2974.00           2484         150.00       624.25
 1214.08        2974.25           2488         152.00       632.97
 1214.11        2974.50           2491         148.00       615.53
 1214.14        2974.75           2495         162.00       676.56
 1214.17        2975.00           2498         159.00       663.48
 1214.20        2975.25           2502         137.00       567.58
 1214.23        2975.50           2505         148.00       615.53
 1214.26        2975.75           2509         171.00       715.80
 1214.29        2976.00           2512         162.00       676.56
 1214.32        2976.25           2516         140.00       580.66
 1214.35        2976.50           2520         141.00       585.02
 1214.38        2976.75           2523         139.00       576.30
 1214.41        2977.00           2527         133.00       550.14
 1214.44        2977.25           2530         128.00       528.34
 1214.47        2977.50           2534         138.00       571.94
 1214.50        2977.75           2537         128.00       528.34
 1214.53        2978.00           2541         140.00       580.66
 1214.57        2978.25           2544         116.00       476.03
 1214.60        2978.50           2548         131.00       541.42
 1214.63        2978.75           2552         116.00       476.03
 1214.66        2979.00           2555         100.00       406.28
 1214.69        2979.25           2559         118.00       484.75
 1214.72        2979.50           2562         121.00       497.83
 1214.75        2979.75           2566         135.00       558.86
 1214.78        2980.00           2569          96.00       388.85
 1214.81        2980.25           2573         117.00       480.39
 1214.84        2980.50           2577          97.00       393.20
 1214.87        2980.75           2580         101.00       410.64
 1214.90        2981.00           2584         104.00       423.72
 1214.93        2981.25           2587          94.00       380.13
 1214.96        2981.50           2591         108.00       441.16
 1214.99        2981.75           2594          86.00       345.25
 1215.02        2982.00           2598          92.00       371.41
 1215.05        2982.25           2601          91.00       367.05
 1215.09        2982.50           2605          99.00       401.92
 1215.12        2982.75           2609          96.00       388.85
 1215.15        2983.00           2612          87.00       349.61
 1215.18        2983.25           2616          85.00       340.89
 1215.21        2983.50           2619          85.00       340.89
 1215.24        2983.75           2623          90.00       362.69
 1215.27        2984.00           2626          87.00       349.61
HS scan finished at 20:15:30
end
