************************************************************
  HS Scan of (1) Internal mercury lamp
************************************************************
Integration time is 0.2294 seconds per sample
dh240818Reading 51.44 .94 3.45pr1000
************************************************************
Dead Time -------------------------  3.4E-08 
Number of Cycles Used -------------  4 
Starting Wavelength (Angstroms) ---  2950 
Final Wavelength (Angstoms) -------  2984 
Wavelength Increment (Angstroms) --  .25 
Filter Wheel #1 Position ---------- (1) Ground quartz diffuser (ND=2.32)
Filter Wheel #2 Position ---------- (1) Neutral Density 0.494



************************************************************
HS scan start time = 01:10:27
Dark Count =  3 


Time (GMT)  Wavelength (Ang)  Step Number  Raw Counts  Counts/Second

   71.34        2950.00           2144          69.00       287.71
   71.54        2950.25           2147          66.00       274.63
   71.57        2950.50           2151          60.00       248.48
   71.60        2950.75           2155          64.00       265.91
   71.63        2951.00           2158          64.00       265.91
   71.66        2951.25           2162          63.00       261.55
   71.69        2951.50           2165          70.00       292.07
   71.72        2951.75           2169          73.00       305.15
   71.75        2952.00           2172          73.00       305.15
   71.78        2952.25           2176          62.00       257.19
   71.81        2952.50           2179          70.00       292.07
   71.84        2952.75           2183          67.00       278.99
   71.87        2953.00           2186          75.00       313.87
   71.91        2953.25           2190          71.00       296.43
   71.94        2953.50           2193          72.00       300.79
   71.97        2953.75           2197          77.00       322.58
   72.00        2954.00           2200          74.00       309.51
   72.03        2954.25           2204          72.00       300.79
   72.06        2954.50           2208          73.00       305.15
   72.09        2954.75           2211          78.00       326.94
   72.12        2955.00           2215          79.00       331.30
   72.15        2955.25           2218          75.00       313.87
   72.18        2955.50           2222          63.00       261.55
   72.21        2955.75           2225          74.00       309.51
   72.24        2956.00           2229          68.00       283.35
   72.27        2956.25           2232          73.00       305.15
   72.30        2956.50           2236          79.00       331.30
   72.33        2956.75           2239          72.00       300.79
   72.36        2957.00           2243          71.00       296.43
   72.39        2957.25           2246          70.00       292.07
   72.42        2957.50           2250          84.00       353.10
   72.46        2957.75           2254          84.00       353.10
   72.49        2958.00           2257          75.00       313.87
   72.52        2958.25           2261          83.00       348.74
   72.55        2958.50           2264          86.00       361.82
   72.58        2958.75           2268          85.00       357.46
   72.61        2959.00           2271         100.00       422.85
   72.64        2959.25           2275          87.00       366.18
   72.67        2959.50           2278          88.00       370.54
   72.70        2959.75           2282         112.00       475.16
   72.73        2960.00           2285         111.00       470.80
   72.76        2960.25           2289          86.00       361.82
   72.79        2960.50           2293         107.00       453.36
   72.82        2960.75           2296         129.00       549.27
   72.86        2961.00           2300         142.00       605.94
   72.89        2961.25           2303         281.00      1211.91
   72.92        2961.50           2307         931.00      4045.89
   72.95        2961.75           2310        1862.00      8105.98
   72.98        2962.00           2314        3210.00     13986.60
   73.01        2962.25           2317        4301.00     18747.78
   73.04        2962.50           2321        5722.00     24951.41
   73.07        2962.75           2324        6805.00     29681.21
   73.10        2963.00           2328        8449.00     36863.96
   73.13        2963.25           2331        9625.00     42004.15
   73.16        2963.50           2335       11147.00     48659.34
   73.19        2963.75           2339       12771.00     55763.87
   73.22        2964.00           2342       13988.00     61090.14
   73.25        2964.25           2346       15610.00     68191.93
   73.28        2964.50           2349       16725.00     73075.85
   73.31        2964.75           2353       18286.00     79916.06
   73.34        2965.00           2356       19289.00     84312.84
   73.37        2965.25           2360       20712.00     90553.00
   73.41        2965.50           2363       22063.00     96479.87
   73.44        2965.75           2367       23558.00    103041.30
   73.47        2966.00           2370       24870.00    108801.90
   73.50        2966.25           2374       26211.00    114692.20
   73.53        2966.50           2378       26734.00    116990.20
   73.56        2966.75           2381       26939.00    117891.00
   73.59        2967.00           2385       27239.00    119209.30
   73.62        2967.25           2388       27080.00    118510.60
   73.65        2967.50           2392       27150.00    118818.20
   73.68        2967.75           2395       26844.00    117473.50
   73.71        2968.00           2399       26185.00    114578.00
   73.74        2968.25           2402       25737.00    112609.90
   73.77        2968.50           2406       24150.00    105640.30
   73.80        2968.75           2409       22716.00     99345.46
   73.83        2969.00           2413       20942.00     91561.84
   73.86        2969.25           2417       19284.00     84290.91
   73.90        2969.50           2420       18188.00     79486.54
   73.93        2969.75           2424       16390.00     71608.31
   73.96        2970.00           2427       15181.00     66313.25
   73.99        2970.25           2431       13525.00     59063.57
   74.02        2970.50           2434       12310.00     53746.78
   74.05        2970.75           2438       10825.00     47251.09
   74.08        2971.00           2441        9742.00     42515.65
   74.11        2971.25           2445        8332.00     36352.67
   74.14        2971.50           2449        6638.00     28951.76
   74.17        2971.75           2452        5547.00     24187.28
   74.20        2972.00           2456        4110.00     17914.14
   74.23        2972.25           2459        2909.00     12673.29
   74.26        2972.50           2463        1477.00      6426.86
   74.29        2972.75           2466         682.00      2960.19
   74.32        2973.00           2470         242.00      1041.89
   74.35        2973.25           2473         163.00       697.49
   74.38        2973.50           2477         137.00       584.14
   74.42        2973.75           2481         111.00       470.80
   74.45        2974.00           2484         105.00       444.64
   74.48        2974.25           2488         117.00       496.96
   74.51        2974.50           2491         107.00       453.36
   74.54        2974.75           2495         130.00       553.63
   74.57        2975.00           2498          85.00       357.46
   74.60        2975.25           2502          91.00       383.61
   74.63        2975.50           2505          95.00       401.05
   74.66        2975.75           2509         114.00       483.88
   74.69        2976.00           2512          96.00       405.41
   74.72        2976.25           2516          82.00       344.38
   74.75        2976.50           2520          88.00       370.54
   74.78        2976.75           2523          93.00       392.33
   74.81        2977.00           2527          81.00       340.02
   74.84        2977.25           2530          88.00       370.54
   74.87        2977.50           2534          77.00       322.58
   74.90        2977.75           2537          89.00       374.90
   74.93        2978.00           2541          79.00       331.30
   74.97        2978.25           2544          76.00       318.22
   75.00        2978.50           2548          77.00       322.58
   75.03        2978.75           2552          76.00       318.22
   75.06        2979.00           2555          78.00       326.94
   75.09        2979.25           2559          85.00       357.46
   75.12        2979.50           2562          83.00       348.74
   75.15        2979.75           2566          72.00       300.79
   75.18        2980.00           2569          69.00       287.71
   75.21        2980.25           2573          75.00       313.87
   75.24        2980.50           2577          73.00       305.15
   75.27        2980.75           2580          75.00       313.87
   75.30        2981.00           2584          77.00       322.58
   75.33        2981.25           2587          78.00       326.94
   75.36        2981.50           2591          80.00       335.66
   75.39        2981.75           2594          75.00       313.87
   75.42        2982.00           2598          69.00       287.71
   75.45        2982.25           2601          78.00       326.94
   75.49        2982.50           2605          67.00       278.99
   75.52        2982.75           2609          74.00       309.51
   75.55        2983.00           2612          66.00       274.63
   75.58        2983.25           2616          78.00       326.94
   75.61        2983.50           2619          75.00       313.87
   75.64        2983.75           2623          71.00       296.43
   75.67        2984.00           2626          75.00       313.87
HS scan finished at 01:15:54
end
************************************************************
  HS Scan of (1) Internal mercury lamp
************************************************************
Integration time is 0.2294 seconds per sample
dh240818Reading 51.44 .94 3.19pr1000
************************************************************
Dead Time -------------------------  3.4E-08 
Number of Cycles Used -------------  4 
Starting Wavelength (Angstroms) ---  2950 
Final Wavelength (Angstoms) -------  2984 
Wavelength Increment (Angstroms) --  .25 
Filter Wheel #1 Position ---------- (1) Ground quartz diffuser (ND=2.32)
Filter Wheel #2 Position ---------- (1) Neutral Density 0.494



************************************************************
HS scan start time = 20:07:18
Dark Count =  1.3 


Time (GMT)  Wavelength (Ang)  Step Number  Raw Counts  Counts/Second

 1208.21        2950.00           2144          64.00       273.32
 1208.40        2950.25           2147          59.00       251.53
 1208.43        2950.50           2151          69.00       295.12
 1208.46        2950.75           2155          60.00       255.89
 1208.49        2951.00           2158          64.00       273.32
 1208.52        2951.25           2162          56.00       238.45
 1208.55        2951.50           2165          56.00       238.45
 1208.58        2951.75           2169          53.00       225.37
 1208.61        2952.00           2172          57.00       242.81
 1208.64        2952.25           2176          58.00       247.17
 1208.68        2952.50           2179          62.00       264.61
 1208.71        2952.75           2183          65.00       277.68
 1208.74        2953.00           2186          62.00       264.61
 1208.77        2953.25           2190          68.00       290.76
 1208.80        2953.50           2193          66.00       282.04
 1208.83        2953.75           2197          71.00       303.84
 1208.86        2954.00           2200          69.00       295.12
 1208.89        2954.25           2204          62.00       264.61
 1208.92        2954.50           2208          64.00       273.32
 1208.95        2954.75           2211          69.00       295.12
 1208.98        2955.00           2215          63.00       268.97
 1209.01        2955.25           2218          70.00       299.48
 1209.04        2955.50           2222          68.00       290.76
 1209.07        2955.75           2225          76.00       325.64
 1209.10        2956.00           2229          73.00       312.56
 1209.13        2956.25           2232          70.00       299.48
 1209.16        2956.50           2236          70.00       299.48
 1209.20        2956.75           2239          70.00       299.48
 1209.23        2957.00           2243          73.00       312.56
 1209.26        2957.25           2246          66.00       282.04
 1209.29        2957.50           2250          71.00       303.84
 1209.32        2957.75           2254          72.00       308.20
 1209.35        2958.00           2257          69.00       295.12
 1209.38        2958.25           2261          81.00       347.43
 1209.41        2958.50           2264          74.00       316.92
 1209.44        2958.75           2268          84.00       360.51
 1209.47        2959.00           2271          89.00       382.31
 1209.50        2959.25           2275          77.00       329.99
 1209.53        2959.50           2278          80.00       343.07
 1209.56        2959.75           2282          89.00       382.31
 1209.59        2960.00           2285          82.00       351.79
 1209.62        2960.25           2289          87.00       373.59
 1209.65        2960.50           2293          84.00       360.51
 1209.68        2960.75           2296          83.00       356.15
 1209.72        2961.00           2300         107.00       460.77
 1209.75        2961.25           2303         215.00       931.59
 1209.78        2961.50           2307         747.00      3251.01
 1209.81        2961.75           2310        1505.00      6556.39
 1209.84        2962.00           2314        2560.00     11158.11
 1209.87        2962.25           2317        3307.00     14417.27
 1209.90        2962.50           2321        4410.00     19230.97
 1209.93        2962.75           2324        5305.00     23138.08
 1209.96        2963.00           2328        6715.00     29295.51
 1209.99        2963.25           2331        7744.00     33790.77
 1210.02        2963.50           2335        9345.00     40787.56
 1210.05        2963.75           2339       10510.00     45881.02
 1210.08        2964.00           2342       11254.00     49134.77
 1210.11        2964.25           2346       12498.00     54576.77
 1210.14        2964.50           2349       13703.00     59850.09
 1210.17        2964.75           2353       14855.00     64893.24
 1210.20        2965.00           2356       15730.00     68724.91
 1210.24        2965.25           2360       16857.00     73661.59
 1210.27        2965.50           2363       17476.00     76373.74
 1210.30        2965.75           2367       18403.00     80436.33
 1210.33        2966.00           2370       20222.00     88411.40
 1210.36        2966.25           2374       22101.00     96654.07
 1210.39        2966.50           2378       22961.00    100428.20
 1210.42        2966.75           2381       22984.00    100529.20
 1210.45        2967.00           2385       23011.00    100647.70
 1210.48        2967.25           2388       22721.00     99374.86
 1210.51        2967.50           2392       22506.00     98431.31
 1210.54        2967.75           2395       22169.00     96952.46
 1210.57        2968.00           2399       21209.00     92740.53
 1210.60        2968.25           2402       20535.00     89784.12
 1210.63        2968.50           2406       19478.00     85148.94
 1210.66        2968.75           2409       19421.00     84899.02
 1210.69        2969.00           2413       18801.00     82180.91
 1210.72        2969.25           2417       17039.00     74458.97
 1210.76        2969.50           2420       16163.00     70621.43
 1210.79        2969.75           2424       14718.00     64293.40
 1210.82        2970.00           2427       13538.00     59127.91
 1210.85        2970.25           2431       12108.00     52870.46
 1210.88        2970.50           2434       10885.00     47520.92
 1210.91        2970.75           2438        9384.00     40958.04
 1210.94        2971.00           2441        8291.00     36180.93
 1210.97        2971.25           2445        7000.00     30540.42
 1211.00        2971.50           2449        5993.00     26142.23
 1211.03        2971.75           2452        5045.00     22002.94
 1211.06        2972.00           2456        3724.00     16236.95
 1211.09        2972.25           2459        2680.00     11681.62
 1211.12        2972.50           2463        1422.00      6194.42
 1211.15        2972.75           2466         705.00      3067.89
 1211.18        2973.00           2470         206.00       892.35
 1211.21        2973.25           2473         150.00       648.23
 1211.24        2973.50           2477         113.00       486.93
 1211.28        2973.75           2481          95.00       408.46
 1211.31        2974.00           2484         110.00       473.85
 1211.34        2974.25           2488          92.00       395.38
 1211.37        2974.50           2491         101.00       434.62
 1211.40        2974.75           2495          86.00       369.23
 1211.43        2975.00           2498          93.00       399.74
 1211.46        2975.25           2502          84.00       360.51
 1211.49        2975.50           2505          80.00       343.07
 1211.52        2975.75           2509          87.00       373.59
 1211.55        2976.00           2512          89.00       382.31
 1211.58        2976.25           2516          91.00       391.03
 1211.61        2976.50           2520          81.00       347.43
 1211.64        2976.75           2523          80.00       343.07
 1211.67        2977.00           2527          75.00       321.28
 1211.70        2977.25           2530          75.00       321.28
 1211.73        2977.50           2534          82.00       351.79
 1211.76        2977.75           2537          80.00       343.07
 1211.80        2978.00           2541          68.00       290.76
 1211.83        2978.25           2544          75.00       321.28
 1211.86        2978.50           2548          69.00       295.12
 1211.89        2978.75           2552          77.00       329.99
 1211.92        2979.00           2555          76.00       325.64
 1211.95        2979.25           2559          80.00       343.07
 1211.98        2979.50           2562          74.00       316.92
 1212.01        2979.75           2566          74.00       316.92
 1212.04        2980.00           2569          71.00       303.84
 1212.07        2980.25           2573          72.00       308.20
 1212.10        2980.50           2577          78.00       334.35
 1212.13        2980.75           2580          67.00       286.40
 1212.16        2981.00           2584          75.00       321.28
 1212.19        2981.25           2587          69.00       295.12
 1212.22        2981.50           2591          68.00       290.76
 1212.25        2981.75           2594          73.00       312.56
 1212.28        2982.00           2598          73.00       312.56
 1212.31        2982.25           2601          66.00       282.04
 1212.35        2982.50           2605          66.00       282.04
 1212.38        2982.75           2609          69.00       295.12
 1212.41        2983.00           2612          62.00       264.61
 1212.44        2983.25           2616          67.00       286.40
 1212.47        2983.50           2619          66.00       282.04
 1212.50        2983.75           2623          64.00       273.32
 1212.53        2984.00           2626          71.00       303.84
HS scan finished at 20:12:45
end
