************************************************************
  HS Scan of (1) Internal mercury lamp
************************************************************
Integration time is 0.2294 seconds per sample
dh180817Reading 51.44 .94 3.41pr1000
************************************************************
Dead Time -------------------------  3.4E-08 
Number of Cycles Used -------------  4 
Starting Wavelength (Angstroms) ---  2950 
Final Wavelength (Angstoms) -------  2984 
Wavelength Increment (Angstroms) --  .25 
Filter Wheel #1 Position ---------- (1) Ground quartz diffuser (ND=2.32)
Filter Wheel #2 Position ---------- (1) Neutral Density 0.494



************************************************************
HS scan start time = 20:07:29
Dark Count =  2.2 


Time (GMT)  Wavelength (Ang)  Step Number  Raw Counts  Counts/Second

 1208.38        2950.00           2144         145.00       622.51
 1208.57        2950.25           2147         140.00       600.71
 1208.60        2950.50           2151         162.00       696.62
 1208.63        2950.75           2155         145.00       622.51
 1208.66        2951.00           2158         130.00       557.12
 1208.69        2951.25           2162         160.00       687.90
 1208.72        2951.50           2165         139.00       596.35
 1208.75        2951.75           2169         129.00       552.76
 1208.78        2952.00           2172         146.00       626.87
 1208.81        2952.25           2176         140.00       600.71
 1208.85        2952.50           2179         129.00       552.76
 1208.88        2952.75           2183         143.00       613.79
 1208.91        2953.00           2186         141.00       605.07
 1208.94        2953.25           2190         147.00       631.23
 1208.97        2953.50           2193         145.00       622.51
 1209.00        2953.75           2197         139.00       596.35
 1209.03        2954.00           2200         169.00       727.13
 1209.06        2954.25           2204         146.00       626.87
 1209.09        2954.50           2208         150.00       644.30
 1209.12        2954.75           2211         150.00       644.30
 1209.15        2955.00           2215         149.00       639.94
 1209.18        2955.25           2218         147.00       631.23
 1209.21        2955.50           2222         156.00       670.46
 1209.24        2955.75           2225         143.00       613.79
 1209.27        2956.00           2229         165.00       709.69
 1209.30        2956.25           2232         150.00       644.30
 1209.33        2956.50           2236         148.00       635.58
 1209.37        2956.75           2239         158.00       679.18
 1209.40        2957.00           2243         186.00       801.24
 1209.43        2957.25           2246         160.00       687.90
 1209.46        2957.50           2250         162.00       696.62
 1209.49        2957.75           2254         170.00       731.49
 1209.52        2958.00           2257         164.00       705.34
 1209.55        2958.25           2261         172.00       740.21
 1209.58        2958.50           2264         163.00       700.98
 1209.61        2958.75           2268         174.00       748.93
 1209.64        2959.00           2271         171.00       735.85
 1209.67        2959.25           2275         195.00       840.48
 1209.70        2959.50           2278         188.00       809.96
 1209.73        2959.75           2282         197.00       849.20
 1209.76        2960.00           2285         194.00       836.12
 1209.79        2960.25           2289         205.00       884.07
 1209.82        2960.50           2293         189.00       814.32
 1209.85        2960.75           2296         221.00       953.82
 1209.88        2961.00           2300         252.00      1088.97
 1209.92        2961.25           2303         493.00      2139.65
 1209.95        2961.50           2307        1895.00      8253.41
 1209.98        2961.75           2310        3790.00     16521.05
 1210.01        2962.00           2314        6683.00     29151.81
 1210.04        2962.25           2317        8965.00     39122.63
 1210.07        2962.50           2321       12042.00     52577.78
 1210.10        2962.75           2324       14144.00     61776.53
 1210.13        2963.00           2328       17635.00     77066.53
 1210.16        2963.25           2331       20432.00     89328.44
 1210.19        2963.50           2335       24097.00    105411.10
 1210.22        2963.75           2339       27085.00    118536.10
 1210.25        2964.00           2342       29457.00    128963.60
 1210.28        2964.25           2346       32543.00    142540.90
 1210.31        2964.50           2349       35163.00    154077.90
 1210.34        2964.75           2353       38844.00    170302.40
 1210.37        2965.00           2356       40879.00    179279.50
 1210.40        2965.25           2360       44297.00    194370.10
 1210.44        2965.50           2363       46436.00    203821.70
 1210.47        2965.75           2367       49251.00    216269.70
 1210.50        2966.00           2370       51901.00    227997.80
 1210.53        2966.25           2374       54293.00    238592.00
 1210.56        2966.50           2378       56209.00    247083.60
 1210.59        2966.75           2381       57224.00    251584.00
 1210.62        2967.00           2385       57158.00    251291.30
 1210.65        2967.25           2388       57113.00    251091.80
 1210.68        2967.50           2392       56746.00    249464.40
 1210.71        2967.75           2395       56035.00    246312.20
 1210.74        2968.00           2399       55780.00    245181.90
 1210.77        2968.25           2402       54010.00    237338.20
 1210.80        2968.50           2406       50760.00    222946.90
 1210.83        2968.75           2409       47785.00    209785.70
 1210.86        2969.00           2413       45109.00    197957.40
 1210.89        2969.25           2417       41738.00    183070.60
 1210.92        2969.50           2420       39069.00    171294.60
 1210.96        2969.75           2424       35826.00    156998.90
 1210.99        2970.00           2427       32691.00    143192.40
 1211.02        2970.25           2431       28916.00    126584.60
 1211.05        2970.50           2434       26674.00    116730.00
 1211.08        2970.75           2438       23298.00    101903.50
 1211.11        2971.00           2441       20694.00     90477.56
 1211.14        2971.25           2445       17582.00     76834.30
 1211.17        2971.50           2449       14228.00     62144.24
 1211.20        2971.75           2452       11852.00     51746.59
 1211.23        2972.00           2456        8436.00     36810.64
 1211.26        2972.25           2459        6343.00     27666.82
 1211.29        2972.50           2463        3389.00     14771.15
 1211.32        2972.75           2466        1669.00      7267.71
 1211.35        2973.00           2470         519.00      2253.01
 1211.38        2973.25           2473         288.00      1245.91
 1211.41        2973.50           2477         240.00      1036.65
 1211.44        2973.75           2481         212.00       914.59
 1211.48        2974.00           2484         189.00       814.32
 1211.51        2974.25           2488         201.00       866.63
 1211.54        2974.50           2491         193.00       831.76
 1211.57        2974.75           2495         190.00       818.68
 1211.60        2975.00           2498         177.00       762.01
 1211.63        2975.25           2502         170.00       731.49
 1211.66        2975.50           2505         177.00       762.01
 1211.69        2975.75           2509         175.00       753.29
 1211.72        2976.00           2512         171.00       735.85
 1211.75        2976.25           2516         169.00       727.13
 1211.78        2976.50           2520         167.00       718.41
 1211.81        2976.75           2523         155.00       666.10
 1211.84        2977.00           2527         179.00       770.73
 1211.87        2977.25           2530         160.00       687.90
 1211.90        2977.50           2534         150.00       644.30
 1211.93        2977.75           2537         158.00       679.18
 1211.96        2978.00           2541         177.00       762.01
 1212.00        2978.25           2544         150.00       644.30
 1212.03        2978.50           2548         153.00       657.38
 1212.06        2978.75           2552         153.00       657.38
 1212.09        2979.00           2555         154.00       661.74
 1212.12        2979.25           2559         154.00       661.74
 1212.15        2979.50           2562         144.00       618.15
 1212.18        2979.75           2566         147.00       631.23
 1212.21        2980.00           2569         144.00       618.15
 1212.24        2980.25           2573         135.00       578.91
 1212.27        2980.50           2577         136.00       583.27
 1212.30        2980.75           2580         154.00       661.74
 1212.33        2981.00           2584         126.00       539.68
 1212.36        2981.25           2587         153.00       657.38
 1212.39        2981.50           2591         143.00       613.79
 1212.42        2981.75           2594         140.00       600.71
 1212.45        2982.00           2598         136.00       583.27
 1212.48        2982.25           2601         126.00       539.68
 1212.52        2982.50           2605         138.00       591.99
 1212.55        2982.75           2609         155.00       666.10
 1212.58        2983.00           2612         130.00       557.12
 1212.61        2983.25           2616         144.00       618.15
 1212.64        2983.50           2619         148.00       635.58
 1212.67        2983.75           2623         120.00       513.52
 1212.70        2984.00           2626         123.00       526.60
HS scan finished at 20:12:55
end
