************************************************************
  HS Scan of (1) Internal mercury lamp
************************************************************
Integration time is 0.2294 seconds per sample
dh220817Reading 51.44 .94 3.84pr1000
************************************************************
Dead Time -------------------------  3.4E-08 
Number of Cycles Used -------------  4 
Starting Wavelength (Angstroms) ---  2950 
Final Wavelength (Angstoms) -------  2984 
Wavelength Increment (Angstroms) --  .25 
Filter Wheel #1 Position ---------- (1) Ground quartz diffuser (ND=2.32)
Filter Wheel #2 Position ---------- (1) Neutral Density 0.494



************************************************************
HS scan start time = 02:38:33
Dark Count =  5.3 


Time (GMT)  Wavelength (Ang)  Step Number  Raw Counts  Counts/Second

  159.45        2950.00           2144          96.00       395.38
  159.65        2950.25           2147          99.00       408.46
  159.68        2950.50           2151          95.00       391.03
  159.71        2950.75           2155         107.00       443.34
  159.74        2951.00           2158         107.00       443.34
  159.77        2951.25           2162          95.00       391.03
  159.80        2951.50           2165         101.00       417.18
  159.83        2951.75           2169         105.00       434.62
  159.86        2952.00           2172         106.00       438.98
  159.89        2952.25           2176         102.00       421.54
  159.92        2952.50           2179         106.00       438.98
  159.95        2952.75           2183         121.00       504.37
  159.98        2953.00           2186         106.00       438.98
  160.01        2953.25           2190         104.00       430.26
  160.04        2953.50           2193         105.00       434.62
  160.07        2953.75           2197         114.00       473.85
  160.10        2954.00           2200         122.00       508.73
  160.14        2954.25           2204         100.00       412.82
  160.17        2954.50           2208         103.00       425.90
  160.20        2954.75           2211         130.00       543.60
  160.23        2955.00           2215         113.00       469.49
  160.26        2955.25           2218         131.00       547.96
  160.29        2955.50           2222         113.00       469.49
  160.32        2955.75           2225         110.00       456.42
  160.35        2956.00           2229         112.00       465.13
  160.38        2956.25           2232         115.00       478.21
  160.41        2956.50           2236         108.00       447.70
  160.44        2956.75           2239         108.00       447.70
  160.47        2957.00           2243         169.00       713.62
  160.50        2957.25           2246         125.00       521.81
  160.53        2957.50           2250         129.00       539.24
  160.56        2957.75           2254         145.00       608.99
  160.59        2958.00           2257         129.00       539.24
  160.62        2958.25           2261         137.00       574.12
  160.65        2958.50           2264         116.00       482.57
  160.69        2958.75           2268         136.00       569.76
  160.72        2959.00           2271         147.00       617.71
  160.75        2959.25           2275         136.00       569.76
  160.78        2959.50           2278         145.00       608.99
  160.81        2959.75           2282         150.00       630.79
  160.84        2960.00           2285         142.00       595.91
  160.87        2960.25           2289         146.00       613.35
  160.90        2960.50           2293         150.00       630.79
  160.93        2960.75           2296         155.00       652.59
  160.96        2961.00           2300         246.00      1049.30
  160.99        2961.25           2303         667.00      2884.76
  161.02        2961.50           2307        1986.00      8636.80
  161.05        2961.75           2310        3350.00     14587.44
  161.08        2962.00           2314        5483.00     23897.79
  161.11        2962.25           2317        7423.00     32370.84
  161.14        2962.50           2321        9896.00     43178.87
  161.18        2962.75           2324       11695.00     51046.24
  161.21        2963.00           2328       13848.00     60467.26
  161.24        2963.25           2331       15608.00     68173.09
  161.27        2963.50           2335       18012.00     78705.10
  161.30        2963.75           2339       20532.00     89753.42
  161.33        2964.00           2342       22453.00     98181.16
  161.36        2964.25           2346       24932.00    109064.10
  161.39        2964.50           2349       26866.00    117560.10
  161.42        2964.75           2353       29282.00    128180.30
  161.45        2965.00           2356       31090.00    136133.00
  161.48        2965.25           2360       33492.00    146705.10
  161.51        2965.50           2363       34870.00    152773.60
  161.54        2965.75           2367       37134.00    162749.40
  161.57        2966.00           2370       39121.00    171510.30
  161.60        2966.25           2374       41190.00    180638.30
  161.63        2966.50           2378       41562.00    182280.10
  161.66        2966.75           2381       42075.00    184544.50
  161.70        2967.00           2385       42132.00    184796.10
  161.73        2967.25           2388       42073.00    184535.60
  161.76        2967.50           2392       41879.00    183679.30
  161.79        2967.75           2395       41216.00    180753.00
  161.82        2968.00           2399       39549.00    173398.10
  161.85        2968.25           2402       37994.00    166540.60
  161.88        2968.50           2406       35819.00    156954.40
  161.91        2968.75           2409       33939.00    148673.40
  161.94        2969.00           2413       31672.00    138693.90
  161.97        2969.25           2417       29455.00    128941.10
  162.00        2969.50           2420       27671.00    121097.80
  162.03        2969.75           2424       25159.00    110061.10
  162.06        2970.00           2427       23119.00    101104.20
  162.09        2970.25           2431       20742.00     90674.49
  162.12        2970.50           2434       18862.00     82430.78
  162.15        2970.75           2438       16737.00     73118.34
  162.18        2971.00           2441       14733.00     64341.57
  162.22        2971.25           2445       12346.00     53894.22
  162.25        2971.50           2449        9692.00     42287.00
  162.28        2971.75           2452        7945.00     34651.53
  162.31        2972.00           2456        5815.00     25347.47
  162.34        2972.25           2459        4144.00     18052.49
  162.37        2972.50           2463        1985.00      8632.44
  162.40        2972.75           2466         923.00      4000.98
  162.43        2973.00           2470         315.00      1350.11
  162.46        2973.25           2473         202.00       857.48
  162.49        2973.50           2477         161.00       678.74
  162.52        2973.75           2481         169.00       713.62
  162.55        2974.00           2484         155.00       652.59
  162.58        2974.25           2488         152.00       639.51
  162.61        2974.50           2491         146.00       613.35
  162.64        2974.75           2495         130.00       543.60
  162.67        2975.00           2498         146.00       613.35
  162.70        2975.25           2502         136.00       569.76
  162.74        2975.50           2505         130.00       543.60
  162.77        2975.75           2509         150.00       630.79
  162.80        2976.00           2512         129.00       539.24
  162.83        2976.25           2516         114.00       473.85
  162.86        2976.50           2520         146.00       613.35
  162.89        2976.75           2523         154.00       648.23
  162.92        2977.00           2527         133.00       556.68
  162.95        2977.25           2530         153.00       643.87
  162.98        2977.50           2534         136.00       569.76
  163.01        2977.75           2537         151.00       635.15
  163.04        2978.00           2541         126.00       526.16
  163.07        2978.25           2544         130.00       543.60
  163.10        2978.50           2548         145.00       608.99
  163.13        2978.75           2552         136.00       569.76
  163.16        2979.00           2555         148.00       622.07
  163.19        2979.25           2559         161.00       678.74
  163.22        2979.50           2562         137.00       574.12
  163.26        2979.75           2566         111.00       460.77
  163.29        2980.00           2569         129.00       539.24
  163.32        2980.25           2573         100.00       412.82
  163.35        2980.50           2577         140.00       587.20
  163.38        2980.75           2580         101.00       417.18
  163.41        2981.00           2584         122.00       508.73
  163.44        2981.25           2587         114.00       473.85
  163.47        2981.50           2591         115.00       478.21
  163.50        2981.75           2594          99.00       408.46
  163.53        2982.00           2598         125.00       521.81
  163.56        2982.25           2601         111.00       460.77
  163.59        2982.50           2605          99.00       408.46
  163.62        2982.75           2609         107.00       443.34
  163.65        2983.00           2612         101.00       417.18
  163.68        2983.25           2616         131.00       547.96
  163.71        2983.50           2619         109.00       452.06
  163.74        2983.75           2623          89.00       364.87
  163.77        2984.00           2626         122.00       508.73
HS scan finished at 02:44:00
end
************************************************************
  HS Scan of (1) Internal mercury lamp
************************************************************
Integration time is 0.2294 seconds per sample
dh220817Reading 51.44 .94 3.76pr1000
************************************************************
Dead Time -------------------------  3.4E-08 
Number of Cycles Used -------------  4 
Starting Wavelength (Angstroms) ---  2950 
Final Wavelength (Angstoms) -------  2984 
Wavelength Increment (Angstroms) --  .25 
Filter Wheel #1 Position ---------- (1) Ground quartz diffuser (ND=2.32)
Filter Wheel #2 Position ---------- (1) Neutral Density 0.494



************************************************************
HS scan start time = 20:07:19
Dark Count =  5.3 


Time (GMT)  Wavelength (Ang)  Step Number  Raw Counts  Counts/Second

 1208.21        2950.00           2144          96.00       395.38
 1208.40        2950.25           2147         118.00       491.29
 1208.44        2950.50           2151         102.00       421.54
 1208.47        2950.75           2155         102.00       421.54
 1208.50        2951.00           2158          88.00       360.51
 1208.53        2951.25           2162         113.00       469.49
 1208.56        2951.50           2165         105.00       434.62
 1208.59        2951.75           2169         110.00       456.42
 1208.62        2952.00           2172          99.00       408.46
 1208.65        2952.25           2176         101.00       417.18
 1208.68        2952.50           2179         137.00       574.12
 1208.71        2952.75           2183          95.00       391.03
 1208.74        2953.00           2186         100.00       412.82
 1208.77        2953.25           2190          94.00       386.67
 1208.80        2953.50           2193         134.00       561.04
 1208.83        2953.75           2197         133.00       556.68
 1208.86        2954.00           2200         102.00       421.54
 1208.89        2954.25           2204         103.00       425.90
 1208.93        2954.50           2208         104.00       430.26
 1208.96        2954.75           2211         108.00       447.70
 1208.99        2955.00           2215         128.00       534.88
 1209.02        2955.25           2218         100.00       412.82
 1209.05        2955.50           2222         128.00       534.88
 1209.08        2955.75           2225         109.00       452.06
 1209.11        2956.00           2229         117.00       486.93
 1209.14        2956.25           2232         124.00       517.45
 1209.17        2956.50           2236         147.00       617.71
 1209.20        2956.75           2239         147.00       617.71
 1209.23        2957.00           2243         131.00       547.96
 1209.26        2957.25           2246         136.00       569.76
 1209.29        2957.50           2250         151.00       635.15
 1209.32        2957.75           2254         129.00       539.24
 1209.35        2958.00           2257         127.00       530.52
 1209.38        2958.25           2261         120.00       500.01
 1209.41        2958.50           2264         123.00       513.09
 1209.45        2958.75           2268         131.00       547.96
 1209.48        2959.00           2271         135.00       565.40
 1209.51        2959.25           2275         134.00       561.04
 1209.54        2959.50           2278         137.00       574.12
 1209.57        2959.75           2282         137.00       574.12
 1209.60        2960.00           2285         134.00       561.04
 1209.63        2960.25           2289         139.00       582.84
 1209.66        2960.50           2293         160.00       674.38
 1209.69        2960.75           2296         141.00       591.56
 1209.72        2961.00           2300         221.00       940.31
 1209.75        2961.25           2303         513.00      2213.33
 1209.78        2961.50           2307        1810.00      7869.15
 1209.81        2961.75           2310        3226.00     14046.38
 1209.84        2962.00           2314        5121.00     22317.28
 1209.87        2962.25           2317        6753.00     29444.02
 1209.90        2962.50           2321        8820.00     38475.33
 1209.93        2962.75           2324       10564.00     46099.67
 1209.96        2963.00           2328       12785.00     55815.07
 1210.00        2963.25           2331       14609.00     63798.66
 1210.03        2963.50           2335       16711.00     73004.44
 1210.06        2963.75           2339       18934.00     82746.43
 1210.09        2964.00           2342       20724.00     90595.55
 1210.12        2964.25           2346       22756.00     99510.92
 1210.15        2964.50           2349       24307.00    106319.60
 1210.18        2964.75           2353       26751.00    117054.70
 1210.21        2965.00           2356       28473.00    124623.30
 1210.24        2965.25           2360       30907.00    135327.90
 1210.27        2965.50           2363       32422.00    141994.70
 1210.30        2965.75           2367       34307.00    150293.90
 1210.33        2966.00           2370       35806.00    156897.10
 1210.36        2966.25           2374       37719.00    165328.20
 1210.39        2966.50           2378       38594.00    169186.20
 1210.42        2966.75           2381       38712.00    169706.60
 1210.45        2967.00           2385       38821.00    170187.20
 1210.48        2967.25           2388       38851.00    170319.50
 1210.52        2967.50           2392       39234.00    172008.70
 1210.55        2967.75           2395       38608.00    169247.90
 1210.58        2968.00           2399       37636.00    164962.30
 1210.61        2968.25           2402       36712.00    160889.50
 1210.64        2968.50           2406       34427.00    150822.40
 1210.67        2968.75           2409       32566.00    142628.50
 1210.70        2969.00           2413       30105.00    131799.90
 1210.73        2969.25           2417       27900.00    122104.40
 1210.76        2969.50           2420       26156.00    114440.50
 1210.79        2969.75           2424       23840.00    104269.20
 1210.82        2970.00           2427       22082.00     96553.14
 1210.85        2970.25           2431       19686.00     86043.41
 1210.88        2970.50           2434       17983.00     78578.00
 1210.91        2970.75           2438       15647.00     68343.90
 1210.94        2971.00           2441       13890.00     60651.10
 1210.97        2971.25           2445       11671.00     50941.26
 1211.00        2971.50           2449        9596.00     41867.32
 1211.03        2971.75           2452        7917.00     34529.18
 1211.07        2972.00           2456        5587.00     24351.89
 1211.10        2972.25           2459        3936.00     17144.69
 1211.13        2972.50           2463        1908.00      8296.59
 1211.16        2972.75           2466         860.00      3726.28
 1211.19        2973.00           2470         282.00      1206.24
 1211.22        2973.25           2473         187.00       792.09
 1211.25        2973.50           2477         158.00       665.66
 1211.28        2973.75           2481         170.00       717.98
 1211.31        2974.00           2484         136.00       569.76
 1211.34        2974.25           2488         143.00       600.27
 1211.37        2974.50           2491         132.00       552.32
 1211.40        2974.75           2495         148.00       622.07
 1211.43        2975.00           2498         155.00       652.59
 1211.46        2975.25           2502         126.00       526.16
 1211.49        2975.50           2505         120.00       500.01
 1211.52        2975.75           2509         130.00       543.60
 1211.55        2976.00           2512         134.00       561.04
 1211.59        2976.25           2516         116.00       482.57
 1211.62        2976.50           2520         127.00       530.52
 1211.65        2976.75           2523         111.00       460.77
 1211.68        2977.00           2527         114.00       473.85
 1211.71        2977.25           2530         132.00       552.32
 1211.74        2977.50           2534         121.00       504.37
 1211.77        2977.75           2537         112.00       465.13
 1211.80        2978.00           2541         122.00       508.73
 1211.83        2978.25           2544         139.00       582.84
 1211.86        2978.50           2548         115.00       478.21
 1211.89        2978.75           2552         146.00       613.35
 1211.92        2979.00           2555         130.00       543.60
 1211.95        2979.25           2559         118.00       491.29
 1211.98        2979.50           2562         104.00       430.26
 1212.01        2979.75           2566         110.00       456.42
 1212.04        2980.00           2569         118.00       491.29
 1212.08        2980.25           2573         116.00       482.57
 1212.11        2980.50           2577         119.00       495.65
 1212.14        2980.75           2580         104.00       430.26
 1212.17        2981.00           2584         124.00       517.45
 1212.20        2981.25           2587          96.00       395.38
 1212.23        2981.50           2591         108.00       447.70
 1212.26        2981.75           2594         115.00       478.21
 1212.29        2982.00           2598         101.00       417.18
 1212.32        2982.25           2601          99.00       408.46
 1212.35        2982.50           2605          91.00       373.59
 1212.38        2982.75           2609          94.00       386.67
 1212.41        2983.00           2612          93.00       382.31
 1212.44        2983.25           2616          94.00       386.67
 1212.47        2983.50           2619         112.00       465.13
 1212.50        2983.75           2623          92.00       377.95
 1212.53        2984.00           2626          97.00       399.74
HS scan finished at 20:12:46
end
