************************************************************
  HS Scan of (1) Internal mercury lamp
************************************************************
Integration time is 0.2294 seconds per sample
dh230818Reading 51.44 .94 3.78pr1000
************************************************************
Dead Time -------------------------  3.4E-08 
Number of Cycles Used -------------  4 
Starting Wavelength (Angstroms) ---  2950 
Final Wavelength (Angstoms) -------  2984 
Wavelength Increment (Angstroms) --  .25 
Filter Wheel #1 Position ---------- (1) Ground quartz diffuser (ND=2.32)
Filter Wheel #2 Position ---------- (1) Neutral Density 0.494



************************************************************
HS scan start time = 01:32:47
Dark Count =  4.6 


Time (GMT)  Wavelength (Ang)  Step Number  Raw Counts  Counts/Second

   93.68        2950.00           2144          95.00       394.08
   93.87        2950.25           2147          95.00       394.08
   93.90        2950.50           2151          98.00       407.15
   93.93        2950.75           2155          96.00       398.44
   93.96        2951.00           2158          98.00       407.15
   94.00        2951.25           2162          93.00       385.36
   94.03        2951.50           2165         106.00       442.03
   94.06        2951.75           2169          89.00       367.92
   94.09        2952.00           2172          95.00       394.08
   94.12        2952.25           2176         102.00       424.59
   94.15        2952.50           2179         102.00       424.59
   94.18        2952.75           2183         116.00       485.62
   94.21        2953.00           2186          92.00       381.00
   94.24        2953.25           2190         120.00       503.06
   94.27        2953.50           2193         119.00       498.70
   94.30        2953.75           2197         108.00       450.75
   94.33        2954.00           2200          94.00       389.72
   94.36        2954.25           2204         100.00       415.87
   94.39        2954.50           2208         128.00       537.93
   94.42        2954.75           2211         102.00       424.59
   94.45        2955.00           2215          99.00       411.51
   94.48        2955.25           2218         112.00       468.19
   94.52        2955.50           2222         115.00       481.26
   94.55        2955.75           2225         128.00       537.93
   94.58        2956.00           2229          98.00       407.15
   94.61        2956.25           2232         115.00       481.26
   94.64        2956.50           2236          99.00       411.51
   94.67        2956.75           2239         138.00       581.53
   94.70        2957.00           2243         117.00       489.98
   94.73        2957.25           2246         132.00       555.37
   94.76        2957.50           2250         133.00       559.73
   94.79        2957.75           2254         138.00       581.53
   94.82        2958.00           2257         156.00       660.00
   94.85        2958.25           2261         163.00       690.51
   94.88        2958.50           2264         168.00       712.31
   94.91        2958.75           2268         163.00       690.51
   94.94        2959.00           2271         129.00       542.29
   94.97        2959.25           2275         157.00       664.36
   95.00        2959.50           2278         153.00       646.92
   95.04        2959.75           2282         144.00       607.68
   95.07        2960.00           2285         136.00       572.81
   95.10        2960.25           2289         154.00       651.28
   95.13        2960.50           2293         161.00       681.79
   95.16        2960.75           2296         169.00       716.67
   95.19        2961.00           2300         251.00      1074.15
   95.22        2961.25           2303         540.00      2334.10
   95.25        2961.50           2307        2149.00      9350.84
   95.28        2961.75           2310        3745.00     16314.19
   95.31        2962.00           2314        5983.00     26084.15
   95.34        2962.25           2317        7865.00     34305.03
   95.37        2962.50           2321       10904.00     47589.58
   95.40        2962.75           2324       12891.00     56281.97
   95.43        2963.00           2328       15776.00     68911.93
   95.46        2963.25           2331       18056.00     78901.01
   95.49        2963.50           2335       20926.00     91484.64
   95.52        2963.75           2339       24202.00    105861.60
   95.56        2964.00           2342       26759.00    117093.00
   95.59        2964.25           2346       30132.00    131921.70
   95.62        2964.50           2349       32171.00    140893.00
   95.65        2964.75           2353       34763.00    152305.40
   95.68        2965.00           2356       36926.00    161835.70
   95.71        2965.25           2360       39504.00    173202.70
   95.74        2965.50           2363       41329.00    181254.80
   95.77        2965.75           2367       44133.00    193635.00
   95.80        2966.00           2370       46248.00    202980.10
   95.83        2966.25           2374       48558.00    213193.60
   95.86        2966.50           2378       50379.00    221250.10
   95.89        2966.75           2381       51434.00    225919.60
   95.92        2967.00           2385       51217.00    224959.00
   95.95        2967.25           2388       51138.00    224609.40
   95.98        2967.50           2392       51015.00    224064.90
   96.01        2967.75           2395       50408.00    221378.40
   96.04        2968.00           2399       48397.00    212481.60
   96.08        2968.25           2402       46436.00    203811.10
   96.11        2968.50           2406       43866.00    192455.80
   96.14        2968.75           2409       41531.00    182146.40
   96.17        2969.00           2413       38697.00    169643.50
   96.20        2969.25           2417       36047.00    157962.10
   96.23        2969.50           2420       33664.00    147465.50
   96.26        2969.75           2424       30460.00    133364.50
   96.29        2970.00           2427       28254.00    123663.60
   96.32        2970.25           2431       25212.00    110296.90
   96.35        2970.50           2434       22748.00     99478.88
   96.38        2970.75           2438       19916.00     87055.02
   96.41        2971.00           2441       17903.00     78230.48
   96.44        2971.25           2445       15316.00     66897.43
   96.47        2971.50           2449       12417.00     54207.93
   96.50        2971.75           2452       10015.00     43702.21
   96.53        2972.00           2456        7094.00     30936.62
   96.56        2972.25           2459        5084.00     22158.80
   96.59        2972.50           2463        2770.00     12059.87
   96.63        2972.75           2466        1394.00      6057.92
   96.66        2973.00           2470         425.00      1832.72
   96.69        2973.25           2473         224.00       956.44
   96.72        2973.50           2477         175.00       742.83
   96.75        2973.75           2481         176.00       747.19
   96.78        2974.00           2484         157.00       664.36
   96.81        2974.25           2488         149.00       629.48
   96.84        2974.50           2491         145.00       612.04
   96.87        2974.75           2495         161.00       681.79
   96.90        2975.00           2498         139.00       585.89
   96.93        2975.25           2502         146.00       616.40
   96.96        2975.50           2505         139.00       585.89
   96.99        2975.75           2509         132.00       555.37
   97.02        2976.00           2512         161.00       681.79
   97.05        2976.25           2516         131.00       551.01
   97.08        2976.50           2520         153.00       646.92
   97.12        2976.75           2523         139.00       585.89
   97.15        2977.00           2527         152.00       642.56
   97.18        2977.25           2530         131.00       551.01
   97.21        2977.50           2534         141.00       594.61
   97.24        2977.75           2537         160.00       677.43
   97.27        2978.00           2541         127.00       533.58
   97.30        2978.25           2544         134.00       564.09
   97.33        2978.50           2548         115.00       481.26
   97.36        2978.75           2552         121.00       507.42
   97.39        2979.00           2555         105.00       437.67
   97.42        2979.25           2559         111.00       463.83
   97.45        2979.50           2562         120.00       503.06
   97.48        2979.75           2566         106.00       442.03
   97.51        2980.00           2569         114.00       476.90
   97.54        2980.25           2573         118.00       494.34
   97.57        2980.50           2577         105.00       437.67
   97.60        2980.75           2580          99.00       411.51
   97.64        2981.00           2584         116.00       485.62
   97.67        2981.25           2587         101.00       420.23
   97.70        2981.50           2591         122.00       511.78
   97.73        2981.75           2594         116.00       485.62
   97.76        2982.00           2598          98.00       407.15
   97.79        2982.25           2601         102.00       424.59
   97.82        2982.50           2605         110.00       459.47
   97.85        2982.75           2609         105.00       437.67
   97.88        2983.00           2612          93.00       385.36
   97.91        2983.25           2616         101.00       420.23
   97.94        2983.50           2619         101.00       420.23
   97.97        2983.75           2623          92.00       381.00
   98.00        2984.00           2626          94.00       389.72
HS scan finished at 01:38:13
end
************************************************************
  HS Scan of (1) Internal mercury lamp
************************************************************
Integration time is 0.2294 seconds per sample
dh230818Reading 51.44 .94 3.52pr1000
************************************************************
Dead Time -------------------------  3.4E-08 
Number of Cycles Used -------------  4 
Starting Wavelength (Angstroms) ---  2950 
Final Wavelength (Angstoms) -------  2984 
Wavelength Increment (Angstroms) --  .25 
Filter Wheel #1 Position ---------- (1) Ground quartz diffuser (ND=2.32)
Filter Wheel #2 Position ---------- (1) Neutral Density 0.494



************************************************************
HS scan start time = 20:07:18
Dark Count =  2.3 


Time (GMT)  Wavelength (Ang)  Step Number  Raw Counts  Counts/Second

 1208.19        2950.00           2144          51.00       212.29
 1208.39        2950.25           2147          55.00       229.73
 1208.42        2950.50           2151          54.00       225.37
 1208.45        2950.75           2155          57.00       238.45
 1208.48        2951.00           2158          52.00       216.65
 1208.51        2951.25           2162          60.00       251.53
 1208.54        2951.50           2165          60.00       251.53
 1208.57        2951.75           2169          61.00       255.89
 1208.60        2952.00           2172          60.00       251.53
 1208.63        2952.25           2176          58.00       242.81
 1208.66        2952.50           2179          58.00       242.81
 1208.69        2952.75           2183          57.00       238.45
 1208.72        2953.00           2186          56.00       234.09
 1208.75        2953.25           2190          62.00       260.25
 1208.78        2953.50           2193          53.00       221.01
 1208.81        2953.75           2197          62.00       260.25
 1208.84        2954.00           2200          66.00       277.68
 1208.87        2954.25           2204          60.00       251.53
 1208.90        2954.50           2208          66.00       277.68
 1208.94        2954.75           2211          55.00       229.73
 1208.97        2955.00           2215          71.00       299.48
 1209.00        2955.25           2218          60.00       251.53
 1209.03        2955.50           2222          57.00       238.45
 1209.06        2955.75           2225          67.00       282.04
 1209.09        2956.00           2229          61.00       255.89
 1209.12        2956.25           2232          66.00       277.68
 1209.15        2956.50           2236          67.00       282.04
 1209.18        2956.75           2239          64.00       268.96
 1209.21        2957.00           2243          68.00       286.40
 1209.24        2957.25           2246          60.00       251.53
 1209.27        2957.50           2250          68.00       286.40
 1209.30        2957.75           2254          60.00       251.53
 1209.33        2958.00           2257          69.00       290.76
 1209.36        2958.25           2261          65.00       273.32
 1209.39        2958.50           2264          70.00       295.12
 1209.42        2958.75           2268          64.00       268.96
 1209.46        2959.00           2271          69.00       290.76
 1209.49        2959.25           2275          69.00       290.76
 1209.52        2959.50           2278          80.00       338.71
 1209.55        2959.75           2282          74.00       312.56
 1209.58        2960.00           2285          77.00       325.64
 1209.61        2960.25           2289          69.00       290.76
 1209.64        2960.50           2293          81.00       343.07
 1209.67        2960.75           2296          86.00       364.87
 1209.70        2961.00           2300         113.00       482.57
 1209.73        2961.25           2303         274.00      1184.44
 1209.76        2961.50           2307         942.00      4096.91
 1209.79        2961.75           2310        1681.00      7319.61
 1209.82        2962.00           2314        2905.00     12658.89
 1209.85        2962.25           2317        3718.00     16206.40
 1209.88        2962.50           2321        4785.00     20863.53
 1209.91        2962.75           2324        5566.00     24273.30
 1209.94        2963.00           2328        6843.00     29850.25
 1209.98        2963.25           2331        7779.00     33939.32
 1210.01        2963.50           2335        9285.00     40520.92
 1210.04        2963.75           2339       10319.00     45041.46
 1210.07        2964.00           2342       11221.00     48986.06
 1210.10        2964.25           2346       12697.00     55443.13
 1210.13        2964.50           2349       13549.00     59171.67
 1210.16        2964.75           2353       15852.00     69254.87
 1210.19        2965.00           2356       16853.00     73639.68
 1210.22        2965.25           2360       18212.00     79594.80
 1210.25        2965.50           2363       19022.00     83145.35
 1210.28        2965.75           2367       19927.00     87113.35
 1210.31        2966.00           2370       21189.00     92648.40
 1210.34        2966.25           2374       21955.00     96009.06
 1210.37        2966.50           2378       22071.00     96518.04
 1210.40        2966.75           2381       22165.00     96930.51
 1210.43        2967.00           2385       22710.00     99322.21
 1210.46        2967.25           2388       22566.00     98690.22
 1210.50        2967.50           2392       22387.00     97904.69
 1210.53        2967.75           2395       22289.00     97474.64
 1210.56        2968.00           2399       21668.00     94749.81
 1210.59        2968.25           2402       20854.00     91178.91
 1210.62        2968.50           2406       20308.00     88784.18
 1210.65        2968.75           2409       19509.00     85280.48
 1210.68        2969.00           2413       17972.00     78542.94
 1210.71        2969.25           2417       16848.00     73617.78
 1210.74        2969.50           2420       15802.00     69035.88
 1210.77        2969.75           2424       14544.00     63527.22
 1210.80        2970.00           2427       13001.00     56773.39
 1210.83        2970.25           2431       11471.00     50079.53
 1210.86        2970.50           2434       10492.00     45797.94
 1210.89        2970.75           2438        9129.00     39839.02
 1210.92        2971.00           2441        8328.00     36338.25
 1210.95        2971.25           2445        7079.00     30881.15
 1210.98        2971.50           2449        5518.00     24063.71
 1211.02        2971.75           2452        4389.00     19134.94
 1211.05        2972.00           2456        3034.00     13221.72
 1211.08        2972.25           2459        2143.00      9334.70
 1211.11        2972.50           2463        1026.00      4463.19
 1211.14        2972.75           2466         493.00      2139.21
 1211.17        2973.00           2470         181.00       779.01
 1211.20        2973.25           2473         128.00       547.96
 1211.23        2973.50           2477         101.00       430.26
 1211.26        2973.75           2481         113.00       482.57
 1211.29        2974.00           2484          90.00       382.31
 1211.32        2974.25           2488          96.00       408.46
 1211.35        2974.50           2491          87.00       369.23
 1211.38        2974.75           2495          80.00       338.71
 1211.41        2975.00           2498          87.00       369.23
 1211.44        2975.25           2502          82.00       347.43
 1211.47        2975.50           2505          76.00       321.28
 1211.50        2975.75           2509          77.00       325.64
 1211.54        2976.00           2512          80.00       338.71
 1211.57        2976.25           2516          68.00       286.40
 1211.60        2976.50           2520          77.00       325.64
 1211.63        2976.75           2523          77.00       325.64
 1211.66        2977.00           2527          71.00       299.48
 1211.69        2977.25           2530          75.00       316.92
 1211.72        2977.50           2534          64.00       268.96
 1211.75        2977.75           2537          72.00       303.84
 1211.78        2978.00           2541          66.00       277.68
 1211.81        2978.25           2544          67.00       282.04
 1211.84        2978.50           2548          67.00       282.04
 1211.87        2978.75           2552          51.00       212.29
 1211.90        2979.00           2555          72.00       303.84
 1211.93        2979.25           2559          71.00       299.48
 1211.96        2979.50           2562          61.00       255.89
 1211.99        2979.75           2566          71.00       299.48
 1212.02        2980.00           2569          54.00       225.37
 1212.06        2980.25           2573          57.00       238.45
 1212.09        2980.50           2577          49.00       203.58
 1212.12        2980.75           2580          63.00       264.61
 1212.15        2981.00           2584          58.00       242.81
 1212.18        2981.25           2587          59.00       247.17
 1212.21        2981.50           2591          61.00       255.89
 1212.24        2981.75           2594          63.00       264.61
 1212.27        2982.00           2598          58.00       242.81
 1212.30        2982.25           2601          62.00       260.25
 1212.33        2982.50           2605          62.00       260.25
 1212.36        2982.75           2609          58.00       242.81
 1212.39        2983.00           2612          60.00       251.53
 1212.42        2983.25           2616          54.00       225.37
 1212.45        2983.50           2619          55.00       229.73
 1212.48        2983.75           2623          52.00       216.65
 1212.51        2984.00           2626          62.00       260.25
HS scan finished at 20:12:44
end
