************************************************************
  HS Scan of (1) Internal mercury lamp
************************************************************
Integration time is 0.2294 seconds per sample
dh180818Reading 51.44 .94 3.45pr1000
************************************************************
Dead Time -------------------------  3.4E-08 
Number of Cycles Used -------------  4 
Starting Wavelength (Angstroms) ---  2950 
Final Wavelength (Angstoms) -------  2984 
Wavelength Increment (Angstroms) --  .25 
Filter Wheel #1 Position ---------- (1) Ground quartz diffuser (ND=2.32)
Filter Wheel #2 Position ---------- (1) Neutral Density 0.494



************************************************************
HS scan start time = 01:11:48
Dark Count =  1.8 


Time (GMT)  Wavelength (Ang)  Step Number  Raw Counts  Counts/Second

   72.70        2950.00           2144          93.00       397.56
   72.90        2950.25           2147          90.00       384.49
   72.93        2950.50           2151          88.00       375.77
   72.96        2950.75           2155          86.00       367.05
   72.99        2951.00           2158          85.00       362.69
   73.02        2951.25           2162          99.00       423.72
   73.05        2951.50           2165         105.00       449.88
   73.08        2951.75           2169          96.00       410.64
   73.11        2952.00           2172          94.00       401.92
   73.14        2952.25           2176          95.00       406.28
   73.17        2952.50           2179          97.00       415.00
   73.20        2952.75           2183          91.00       388.85
   73.23        2953.00           2186          87.00       371.41
   73.26        2953.25           2190         120.00       515.27
   73.29        2953.50           2193          92.00       393.20
   73.32        2953.75           2197         102.00       436.80
   73.36        2954.00           2200          97.00       415.00
   73.39        2954.25           2204          95.00       406.28
   73.42        2954.50           2208         113.00       484.75
   73.45        2954.75           2211         109.00       467.31
   73.48        2955.00           2215         117.00       502.19
   73.51        2955.25           2218         128.00       550.14
   73.54        2955.50           2222         122.00       523.98
   73.57        2955.75           2225         119.00       510.91
   73.60        2956.00           2229          97.00       415.00
   73.63        2956.25           2232         109.00       467.31
   73.66        2956.50           2236         110.00       471.67
   73.69        2956.75           2239         123.00       528.34
   73.72        2957.00           2243         107.00       458.59
   73.75        2957.25           2246         140.00       602.45
   73.78        2957.50           2250         121.00       519.63
   73.81        2957.75           2254         116.00       497.83
   73.84        2958.00           2257         117.00       502.19
   73.88        2958.25           2261         140.00       602.45
   73.91        2958.50           2264         118.00       506.55
   73.94        2958.75           2268         137.00       589.38
   73.97        2959.00           2271         127.00       545.78
   74.00        2959.25           2275         144.00       619.89
   74.03        2959.50           2278         126.00       541.42
   74.06        2959.75           2282         131.00       563.22
   74.09        2960.00           2285         165.00       711.44
   74.12        2960.25           2289         150.00       646.05
   74.15        2960.50           2293         157.00       676.56
   74.18        2960.75           2296         164.00       707.08
   74.21        2961.00           2300         226.00       977.36
   74.24        2961.25           2303         494.00      2145.75
   74.27        2961.50           2307        1714.00      7465.71
   74.30        2961.75           2310        3243.00     14135.83
   74.33        2962.00           2314        5541.00     24166.32
   74.36        2962.25           2317        7294.00     31822.56
   74.40        2962.50           2321        9689.00     42289.19
   74.43        2962.75           2324       11597.00     50632.87
   74.46        2963.00           2328       14436.00     63056.58
   74.49        2963.25           2331       16533.00     72239.99
   74.52        2963.50           2335       19127.00     83607.86
   74.55        2963.75           2339       21946.00     95971.76
   74.58        2964.00           2342       23764.00    103950.90
   74.61        2964.25           2346       26722.00    116942.70
   74.64        2964.50           2349       28872.00    126392.90
   74.67        2964.75           2353       31448.00    137723.60
   74.70        2965.00           2356       33531.00    146892.20
   74.73        2965.25           2360       36237.00    158811.60
   74.76        2965.50           2363       38069.00    166886.70
   74.79        2965.75           2367       40866.00    179223.90
   74.82        2966.00           2370       42107.00    184701.20
   74.85        2966.25           2374       44546.00    195471.80
   74.88        2966.50           2378       46101.00    202342.80
   74.92        2966.75           2381       46405.00    203686.50
   74.95        2967.00           2385       46533.00    204252.30
   74.98        2967.25           2388       46695.00    204968.40
   75.01        2967.50           2392       46669.00    204853.40
   75.04        2967.75           2395       45786.00    200950.70
   75.07        2968.00           2399       44609.00    195750.10
   75.10        2968.25           2402       43031.00    188780.60
   75.13        2968.50           2406       40253.00    176519.20
   75.16        2968.75           2409       38755.00    169911.60
   75.19        2969.00           2413       35817.00    156961.00
   75.22        2969.25           2417       33438.00    146482.80
   75.25        2969.50           2420       31849.00    139488.20
   75.28        2969.75           2424       29097.00    127382.20
   75.31        2970.00           2427       27135.00    118757.60
   75.34        2970.25           2431       23908.00    104583.10
   75.37        2970.50           2434       21653.00     94686.21
   75.40        2970.75           2438       18881.00     82529.41
   75.44        2971.00           2441       16923.00     73948.56
   75.47        2971.25           2445       14207.00     62054.07
   75.50        2971.50           2449       11304.00     49351.27
   75.53        2971.75           2452        9180.00     40064.13
   75.56        2972.00           2456        6714.00     29288.96
   75.59        2972.25           2459        4776.00     20826.43
   75.62        2972.50           2463        2535.00     11046.87
   75.65        2972.75           2466        1215.00      5289.53
   75.68        2973.00           2470         368.00      1596.42
   75.71        2973.25           2473         216.00       933.77
   75.74        2973.50           2477         163.00       702.72
   75.77        2973.75           2481         167.00       720.16
   75.80        2974.00           2484         164.00       707.08
   75.83        2974.25           2488         155.00       667.84
   75.86        2974.50           2491         159.00       685.28
   75.89        2974.75           2495         153.00       659.13
   75.92        2975.00           2498         136.00       585.02
   75.96        2975.25           2502         147.00       632.97
   75.99        2975.50           2505         154.00       663.48
   76.02        2975.75           2509         150.00       646.05
   76.05        2976.00           2512         123.00       528.34
   76.08        2976.25           2516         148.00       637.33
   76.11        2976.50           2520         137.00       589.38
   76.14        2976.75           2523         139.00       598.09
   76.17        2977.00           2527         151.00       650.41
   76.20        2977.25           2530         153.00       659.13
   76.23        2977.50           2534         136.00       585.02
   76.26        2977.75           2537         121.00       519.63
   76.29        2978.00           2541         113.00       484.75
   76.32        2978.25           2544         119.00       510.91
   76.35        2978.50           2548         128.00       550.14
   76.38        2978.75           2552         126.00       541.42
   76.41        2979.00           2555         112.00       480.39
   76.44        2979.25           2559         101.00       432.44
   76.48        2979.50           2562         117.00       502.19
   76.51        2979.75           2566         123.00       528.34
   76.54        2980.00           2569         103.00       441.16
   76.57        2980.25           2573         100.00       428.08
   76.60        2980.50           2577         106.00       454.24
   76.63        2980.75           2580          96.00       410.64
   76.66        2981.00           2584         136.00       585.02
   76.69        2981.25           2587          94.00       401.92
   76.72        2981.50           2591         109.00       467.31
   76.75        2981.75           2594         101.00       432.44
   76.78        2982.00           2598         101.00       432.44
   76.81        2982.25           2601         104.00       445.52
   76.84        2982.50           2605         124.00       532.70
   76.87        2982.75           2609          97.00       415.00
   76.90        2983.00           2612          90.00       384.49
   76.93        2983.25           2616         100.00       428.08
   76.96        2983.50           2619         103.00       441.16
   76.99        2983.75           2623          94.00       401.92
   77.03        2984.00           2626          88.00       375.77
HS scan finished at 01:17:15
end
************************************************************
  HS Scan of (1) Internal mercury lamp
************************************************************
Integration time is 0.2294 seconds per sample
dh180818Reading 51.44 .94 3.76pr1000
************************************************************
Dead Time -------------------------  3.4E-08 
Number of Cycles Used -------------  4 
Starting Wavelength (Angstroms) ---  2950 
Final Wavelength (Angstoms) -------  2984 
Wavelength Increment (Angstroms) --  .25 
Filter Wheel #1 Position ---------- (1) Ground quartz diffuser (ND=2.32)
Filter Wheel #2 Position ---------- (1) Neutral Density 0.494



************************************************************
HS scan start time = 20:07:28
Dark Count =  5.3 


Time (GMT)  Wavelength (Ang)  Step Number  Raw Counts  Counts/Second

 1208.37        2950.00           2144          51.00       199.22
 1208.57        2950.25           2147          53.00       207.94
 1208.60        2950.50           2151          56.00       221.01
 1208.63        2950.75           2155          61.00       242.81
 1208.66        2951.00           2158          62.00       247.17
 1208.69        2951.25           2162          59.00       234.09
 1208.72        2951.50           2165          61.00       242.81
 1208.75        2951.75           2169          65.00       260.25
 1208.78        2952.00           2172          62.00       247.17
 1208.81        2952.25           2176          62.00       247.17
 1208.84        2952.50           2179          61.00       242.81
 1208.87        2952.75           2183          57.00       225.37
 1208.90        2953.00           2186          62.00       247.17
 1208.93        2953.25           2190          60.00       238.45
 1208.97        2953.50           2193          64.00       255.89
 1209.00        2953.75           2197          64.00       255.89
 1209.03        2954.00           2200          69.00       277.68
 1209.06        2954.25           2204          63.00       251.53
 1209.09        2954.50           2208          65.00       260.25
 1209.12        2954.75           2211          64.00       255.89
 1209.15        2955.00           2215          65.00       260.25
 1209.18        2955.25           2218          69.00       277.68
 1209.21        2955.50           2222          61.00       242.81
 1209.24        2955.75           2225          63.00       251.53
 1209.27        2956.00           2229          69.00       277.68
 1209.30        2956.25           2232          66.00       264.61
 1209.33        2956.50           2236          64.00       255.89
 1209.36        2956.75           2239          70.00       282.04
 1209.39        2957.00           2243          74.00       299.48
 1209.42        2957.25           2246          75.00       303.84
 1209.45        2957.50           2250          72.00       290.76
 1209.49        2957.75           2254          65.00       260.25
 1209.52        2958.00           2257          80.00       325.64
 1209.55        2958.25           2261          78.00       316.92
 1209.58        2958.50           2264          82.00       334.35
 1209.61        2958.75           2268          83.00       338.71
 1209.64        2959.00           2271          80.00       325.64
 1209.67        2959.25           2275          87.00       356.15
 1209.70        2959.50           2278          76.00       308.20
 1209.73        2959.75           2282          99.00       408.46
 1209.76        2960.00           2285          86.00       351.79
 1209.79        2960.25           2289          98.00       404.10
 1209.82        2960.50           2293          89.00       364.87
 1209.85        2960.75           2296         103.00       425.90
 1209.88        2961.00           2300         129.00       539.24
 1209.91        2961.25           2303         195.00       826.96
 1209.94        2961.50           2307         715.00      3094.05
 1209.97        2961.75           2310        1519.00      6600.00
 1210.01        2962.00           2314        3001.00     13064.65
 1210.04        2962.25           2317        4219.00     18379.84
 1210.07        2962.50           2321        5607.00     24439.22
 1210.10        2962.75           2324        6834.00     29797.83
 1210.13        2963.00           2328        8253.00     35997.39
 1210.16        2963.25           2331        9628.00     42007.21
 1210.19        2963.50           2335       11155.00     48684.27
 1210.22        2963.75           2339       13258.00     57884.96
 1210.25        2964.00           2342       14722.00     64293.40
 1210.28        2964.25           2346       16601.00     72522.54
 1210.31        2964.50           2349       17325.00     75694.56
 1210.34        2964.75           2353       19146.00     83675.81
 1210.37        2965.00           2356       20013.00     87477.31
 1210.40        2965.25           2360       21779.00     95223.66
 1210.43        2965.50           2363       22992.00    100546.70
 1210.46        2965.75           2367       24376.00    106622.50
 1210.49        2966.00           2370       25666.00    112288.00
 1210.53        2966.25           2374       27242.00    119212.40
 1210.56        2966.50           2378       28157.00    123234.10
 1210.59        2966.75           2381       28446.00    124504.60
 1210.62        2967.00           2385       28321.00    123955.10
 1210.65        2967.25           2388       28475.00    124632.10
 1210.68        2967.50           2392       28743.00    125810.30
 1210.71        2967.75           2395       28903.00    126513.80
 1210.74        2968.00           2399       27955.00    122346.10
 1210.77        2968.25           2402       27586.00    120724.20
 1210.80        2968.50           2406       26235.00    114787.60
 1210.83        2968.75           2409       25081.00    109718.50
 1210.86        2969.00           2413       23233.00    101604.50
 1210.89        2969.25           2417       21371.00     93433.66
 1210.92        2969.50           2420       19756.00     86350.35
 1210.95        2969.75           2424       18249.00     79743.81
 1210.98        2970.00           2427       17150.00     74927.78
 1211.01        2970.25           2431       15296.00     66806.77
 1211.05        2970.50           2434       14163.00     61846.14
 1211.08        2970.75           2438       12520.00     54655.53
 1211.11        2971.00           2441       11156.00     48688.64
 1211.14        2971.25           2445        9307.00     40603.97
 1211.17        2971.50           2449        7464.00     32549.96
 1211.20        2971.75           2452        6065.00     26439.19
 1211.23        2972.00           2456        4492.00     19571.43
 1211.26        2972.25           2459        3366.00     14657.26
 1211.29        2972.50           2463        1872.00      8139.57
 1211.32        2972.75           2466         905.00      3922.49
 1211.35        2973.00           2470         259.00      1105.97
 1211.38        2973.25           2473         160.00       674.38
 1211.41        2973.50           2477         123.00       513.09
 1211.44        2973.75           2481         155.00       652.59
 1211.47        2974.00           2484         126.00       526.16
 1211.50        2974.25           2488         127.00       530.52
 1211.53        2974.50           2491         112.00       465.13
 1211.57        2974.75           2495         146.00       613.35
 1211.60        2975.00           2498          99.00       408.46
 1211.63        2975.25           2502         105.00       434.62
 1211.66        2975.50           2505          98.00       404.10
 1211.69        2975.75           2509          93.00       382.31
 1211.72        2976.00           2512         103.00       425.90
 1211.75        2976.25           2516         115.00       478.21
 1211.78        2976.50           2520         104.00       430.26
 1211.81        2976.75           2523          94.00       386.67
 1211.84        2977.00           2527          97.00       399.74
 1211.87        2977.25           2530         111.00       460.77
 1211.90        2977.50           2534         112.00       465.13
 1211.93        2977.75           2537         109.00       452.06
 1211.96        2978.00           2541          87.00       356.15
 1211.99        2978.25           2544          92.00       377.95
 1212.02        2978.50           2548         105.00       434.62
 1212.05        2978.75           2552          92.00       377.95
 1212.09        2979.00           2555          85.00       347.43
 1212.12        2979.25           2559          89.00       364.87
 1212.15        2979.50           2562          87.00       356.15
 1212.18        2979.75           2566          85.00       347.43
 1212.21        2980.00           2569          88.00       360.51
 1212.24        2980.25           2573          87.00       356.15
 1212.27        2980.50           2577          86.00       351.79
 1212.30        2980.75           2580          89.00       364.87
 1212.33        2981.00           2584          80.00       325.64
 1212.36        2981.25           2587          90.00       369.23
 1212.39        2981.50           2591          82.00       334.35
 1212.42        2981.75           2594          86.00       351.79
 1212.45        2982.00           2598          94.00       386.67
 1212.48        2982.25           2601          92.00       377.95
 1212.51        2982.50           2605          73.00       295.12
 1212.54        2982.75           2609          89.00       364.87
 1212.57        2983.00           2612          80.00       325.64
 1212.61        2983.25           2616          83.00       338.71
 1212.64        2983.50           2619          78.00       316.92
 1212.67        2983.75           2623          72.00       290.76
 1212.70        2984.00           2626          84.00       343.07
HS scan finished at 20:12:55
end
