************************************************************
  HS Scan of (1) Internal mercury lamp
************************************************************
Integration time is 0.2294 seconds per sample
dh270817Reading 51.44 .94 3.56pr1000
************************************************************
Dead Time -------------------------  3.4E-08 
Number of Cycles Used -------------  4 
Starting Wavelength (Angstroms) ---  2950 
Final Wavelength (Angstoms) -------  2984 
Wavelength Increment (Angstroms) --  .25 
Filter Wheel #1 Position ---------- (1) Ground quartz diffuser (ND=2.32)
Filter Wheel #2 Position ---------- (1) Neutral Density 0.494



************************************************************
HS scan start time = 01:17:26
Dark Count =  2.8 


Time (GMT)  Wavelength (Ang)  Step Number  Raw Counts  Counts/Second

   78.34        2950.00           2144         124.00       528.34
   78.53        2950.25           2147         150.00       641.69
   78.56        2950.50           2151         125.00       532.70
   78.59        2950.75           2155         132.00       563.22
   78.62        2951.00           2158         121.00       515.27
   78.66        2951.25           2162         149.00       637.33
   78.69        2951.50           2165         146.00       624.25
   78.72        2951.75           2169         131.00       558.86
   78.75        2952.00           2172         134.00       571.94
   78.78        2952.25           2176         158.00       676.56
   78.81        2952.50           2179         151.00       646.05
   78.84        2952.75           2183         135.00       576.30
   78.87        2953.00           2186         159.00       680.92
   78.90        2953.25           2190         146.00       624.25
   78.93        2953.50           2193         142.00       606.81
   78.96        2953.75           2197         143.00       611.17
   78.99        2954.00           2200         141.00       602.45
   79.02        2954.25           2204         129.00       550.14
   79.05        2954.50           2208         133.00       567.58
   79.08        2954.75           2211         140.00       598.09
   79.11        2955.00           2215         143.00       611.17
   79.14        2955.25           2218         158.00       676.56
   79.18        2955.50           2222         158.00       676.56
   79.21        2955.75           2225         140.00       598.09
   79.24        2956.00           2229         146.00       624.25
   79.27        2956.25           2232         158.00       676.56
   79.30        2956.50           2236         154.00       659.13
   79.33        2956.75           2239         157.00       672.20
   79.36        2957.00           2243         154.00       659.13
   79.39        2957.25           2246         148.00       632.97
   79.42        2957.50           2250         149.00       637.33
   79.45        2957.75           2254         159.00       680.92
   79.48        2958.00           2257         160.00       685.28
   79.51        2958.25           2261         167.00       715.80
   79.54        2958.50           2264         160.00       685.28
   79.57        2958.75           2268         156.00       667.84
   79.60        2959.00           2271         156.00       667.84
   79.63        2959.25           2275         163.00       698.36
   79.66        2959.50           2278         164.00       702.72
   79.69        2959.75           2282         180.00       772.47
   79.73        2960.00           2285         164.00       702.72
   79.76        2960.25           2289         187.00       802.99
   79.79        2960.50           2293         182.00       781.19
   79.82        2960.75           2296         193.00       829.14
   79.85        2961.00           2300         272.00      1173.54
   79.88        2961.25           2303         666.00      2891.30
   79.91        2961.50           2307        2172.00      9459.01
   79.94        2961.75           2310        3721.00     16217.31
   79.97        2962.00           2314        6522.00     28445.98
   80.00        2962.25           2317        8625.00     37634.01
   80.03        2962.50           2321       11352.00     49556.84
   80.06        2962.75           2324       13538.00     59121.34
   80.09        2963.00           2328       16436.00     71810.69
   80.12        2963.25           2331       18687.00     81674.62
   80.15        2963.50           2335       21379.00     93479.72
   80.18        2963.75           2339       24408.00    106774.00
   80.21        2964.00           2342       26519.00    116046.30
   80.25        2964.25           2346       29401.00    128714.60
   80.28        2964.50           2349       31273.00    136949.20
   80.31        2964.75           2353       33814.00    148133.90
   80.34        2965.00           2356       35699.00    156436.70
   80.37        2965.25           2360       37975.00    166467.90
   80.40        2965.50           2363       39885.00    174891.30
   80.43        2965.75           2367       42413.00    186047.60
   80.46        2966.00           2370       44413.00    194879.90
   80.49        2966.25           2374       46256.00    203023.50
   80.52        2966.50           2378       46882.00    205790.60
   80.55        2966.75           2381       47033.00    206458.10
   80.58        2967.00           2385       46972.00    206188.50
   80.61        2967.25           2388       46501.00    204106.40
   80.64        2967.50           2392       46334.00    203368.20
   80.67        2967.75           2395       45908.00    201485.40
   80.70        2968.00           2399       44315.00    194446.90
   80.73        2968.25           2402       42060.00    184489.30
   80.77        2968.50           2406       39691.00    174035.50
   80.80        2968.75           2409       37434.00    164082.90
   80.83        2969.00           2413       34926.00    153031.30
   80.86        2969.25           2417       32202.00    141037.40
   80.89        2969.50           2420       29982.00    131269.80
   80.92        2969.75           2424       27194.00    119012.40
   80.95        2970.00           2427       25193.00    110221.40
   80.98        2970.25           2431       22483.00     98323.79
   81.01        2970.50           2434       20761.00     90768.79
   81.04        2970.75           2438       18007.00     78694.15
   81.07        2971.00           2441       15827.00     69143.18
   81.10        2971.25           2445       13094.00     57178.19
   81.13        2971.50           2449       10192.00     44483.98
   81.16        2971.75           2452        8472.00     36965.35
   81.19        2972.00           2456        6036.00     26323.46
   81.22        2972.25           2459        4277.00     18643.90
   81.25        2972.50           2463        2169.00      9445.93
   81.29        2972.75           2466        1006.00      4373.80
   81.32        2973.00           2470         315.00      1361.00
   81.35        2973.25           2473         198.00       850.94
   81.38        2973.50           2477         170.00       728.88
   81.41        2973.75           2481         166.00       711.44
   81.44        2974.00           2484         176.00       755.03
   81.47        2974.25           2488         151.00       646.05
   81.50        2974.50           2491         145.00       619.89
   81.53        2974.75           2495         142.00       606.81
   81.56        2975.00           2498         153.00       654.77
   81.59        2975.25           2502         171.00       733.24
   81.62        2975.50           2505         133.00       567.58
   81.65        2975.75           2509         161.00       689.64
   81.68        2976.00           2512         126.00       537.06
   81.71        2976.25           2516         120.00       510.91
   81.74        2976.50           2520         175.00       750.67
   81.77        2976.75           2523         140.00       598.09
   81.81        2977.00           2527         126.00       537.06
   81.84        2977.25           2530         129.00       550.14
   81.87        2977.50           2534         126.00       537.06
   81.90        2977.75           2537         120.00       510.91
   81.93        2978.00           2541         117.00       497.83
   81.96        2978.25           2544         112.00       476.03
   81.99        2978.50           2548         123.00       523.98
   82.02        2978.75           2552         132.00       563.22
   82.05        2979.00           2555         110.00       467.31
   82.08        2979.25           2559         133.00       567.58
   82.11        2979.50           2562         102.00       432.44
   82.14        2979.75           2566         105.00       445.52
   82.17        2980.00           2569         126.00       537.06
   82.20        2980.25           2573         131.00       558.86
   82.23        2980.50           2577         116.00       493.47
   82.26        2980.75           2580         112.00       476.03
   82.29        2981.00           2584         111.00       471.67
   82.33        2981.25           2587         102.00       432.44
   82.36        2981.50           2591         104.00       441.16
   82.39        2981.75           2594         122.00       519.63
   82.42        2982.00           2598         103.00       436.80
   82.45        2982.25           2601         102.00       432.44
   82.48        2982.50           2605         101.00       428.08
   82.51        2982.75           2609         102.00       432.44
   82.54        2983.00           2612          97.00       410.64
   82.57        2983.25           2616         104.00       441.16
   82.60        2983.50           2619         100.00       423.72
   82.63        2983.75           2623          99.00       419.36
   82.66        2984.00           2626         104.00       441.16
HS scan finished at 01:22:53
end
************************************************************
  HS Scan of (1) Internal mercury lamp
************************************************************
Integration time is 0.2294 seconds per sample
dh270817Reading 51.44 .94 4.05pr1000
************************************************************
Dead Time -------------------------  3.4E-08 
Number of Cycles Used -------------  4 
Starting Wavelength (Angstroms) ---  2950 
Final Wavelength (Angstoms) -------  2984 
Wavelength Increment (Angstroms) --  .25 
Filter Wheel #1 Position ---------- (1) Ground quartz diffuser (ND=2.32)
Filter Wheel #2 Position ---------- (1) Neutral Density 0.494



************************************************************
HS scan start time = 20:07:19
Dark Count =  11.9 


Time (GMT)  Wavelength (Ang)  Step Number  Raw Counts  Counts/Second

 1208.22        2950.00           2144         105.00       405.85
 1208.41        2950.25           2147          99.00       379.69
 1208.44        2950.50           2151          94.00       357.89
 1208.47        2950.75           2155         101.00       388.41
 1208.50        2951.00           2158          99.00       379.69
 1208.53        2951.25           2162          99.00       379.69
 1208.57        2951.50           2165          97.00       370.97
 1208.60        2951.75           2169         101.00       388.41
 1208.63        2952.00           2172         120.00       471.24
 1208.66        2952.25           2176         116.00       453.80
 1208.69        2952.50           2179          94.00       357.89
 1208.72        2952.75           2183         102.00       392.77
 1208.75        2953.00           2186         108.00       418.92
 1208.78        2953.25           2190         106.00       410.21
 1208.81        2953.50           2193         140.00       558.42
 1208.84        2953.75           2197         102.00       392.77
 1208.87        2954.00           2200          98.00       375.33
 1208.90        2954.25           2204          98.00       375.33
 1208.93        2954.50           2208         102.00       392.77
 1208.96        2954.75           2211         107.00       414.57
 1208.99        2955.00           2215         105.00       405.85
 1209.02        2955.25           2218         124.00       488.67
 1209.05        2955.50           2222         110.00       427.64
 1209.09        2955.75           2225         124.00       488.67
 1209.12        2956.00           2229         107.00       414.57
 1209.15        2956.25           2232         134.00       532.27
 1209.18        2956.50           2236         143.00       571.50
 1209.21        2956.75           2239         116.00       453.80
 1209.24        2957.00           2243         126.00       497.39
 1209.27        2957.25           2246         135.00       536.63
 1209.30        2957.50           2250         138.00       549.71
 1209.33        2957.75           2254         131.00       519.19
 1209.36        2958.00           2257         149.00       597.66
 1209.39        2958.25           2261         135.00       536.63
 1209.42        2958.50           2264         115.00       449.44
 1209.45        2958.75           2268         122.00       479.96
 1209.48        2959.00           2271         145.00       580.22
 1209.51        2959.25           2275         152.00       610.74
 1209.54        2959.50           2278         140.00       558.42
 1209.57        2959.75           2282         152.00       610.74
 1209.61        2960.00           2285         152.00       610.74
 1209.64        2960.25           2289         147.00       588.94
 1209.67        2960.50           2293         143.00       571.50
 1209.70        2960.75           2296         164.00       663.05
 1209.73        2961.00           2300         184.00       750.24
 1209.76        2961.25           2303         352.00      1482.64
 1209.79        2961.50           2307        1071.00      4617.55
 1209.82        2961.75           2310        2150.00      9323.36
 1209.85        2962.00           2314        4268.00     18564.90
 1209.88        2962.25           2317        5993.00     26095.94
 1209.91        2962.50           2321        8128.00     35422.33
 1209.94        2962.75           2324        9760.00     42555.43
 1209.97        2963.00           2328       11948.00     52124.12
 1210.00        2963.25           2331       13611.00     59401.02
 1210.03        2963.50           2335       15972.00     69738.40
 1210.06        2963.75           2339       18069.00     78926.00
 1210.09        2964.00           2342       19719.00     86159.18
 1210.13        2964.25           2346       21971.00     96037.14
 1210.16        2964.50           2349       24020.00    105030.50
 1210.19        2964.75           2353       26410.00    115527.50
 1210.22        2965.00           2356       28086.00    122893.00
 1210.25        2965.25           2360       29814.00    130490.90
 1210.28        2965.50           2363       31574.00    138233.60
 1210.31        2965.75           2367       33639.00    147323.30
 1210.34        2966.00           2370       35646.00    156163.10
 1210.37        2966.25           2374       38193.00    167388.90
 1210.40        2966.50           2378       39097.00    171375.40
 1210.43        2966.75           2381       39322.00    172367.70
 1210.46        2967.00           2385       39431.00    172848.50
 1210.49        2967.25           2388       39210.00    171873.70
 1210.52        2967.50           2392       39396.00    172694.10
 1210.55        2967.75           2395       38839.00    170237.50
 1210.58        2968.00           2399       37548.00    164545.30
 1210.61        2968.25           2402       36302.00    159053.60
 1210.65        2968.50           2406       34113.00    149410.50
 1210.68        2968.75           2409       32648.00    142960.40
 1210.71        2969.00           2413       30443.00    133257.60
 1210.75        2969.25           2417       28364.00    124115.10
 1210.78        2969.50           2420       26786.00    117179.50
 1210.81        2969.75           2424       24310.00    106303.80
 1210.84        2970.00           2427       22421.00     98011.78
 1210.88        2970.25           2431       19930.00     87084.40
 1210.91        2970.50           2434       18168.00     79359.88
 1210.94        2970.75           2438       15976.00     69755.91
 1210.97        2971.00           2441       14522.00     63388.87
 1211.00        2971.25           2445       12183.00     53152.20
 1211.03        2971.50           2449        9768.00     42590.40
 1211.06        2971.75           2452        8067.00     35155.77
 1211.09        2972.00           2456        5699.00     24812.12
 1211.12        2972.25           2459        4115.00     17897.11
 1211.15        2972.50           2463        2224.00      9646.15
 1211.18        2972.75           2466        1220.00      5267.29
 1211.21        2973.00           2470         358.00      1508.80
 1211.24        2973.25           2473         194.00       793.83
 1211.27        2973.50           2477         164.00       663.05
 1211.30        2973.75           2481         156.00       628.17
 1211.33        2974.00           2484         143.00       571.50
 1211.36        2974.25           2488         164.00       663.05
 1211.39        2974.50           2491         146.00       584.58
 1211.42        2974.75           2495         157.00       632.53
 1211.46        2975.00           2498         151.00       606.38
 1211.49        2975.25           2502         144.00       575.86
 1211.52        2975.50           2505         137.00       545.35
 1211.55        2975.75           2509         126.00       497.39
 1211.58        2976.00           2512         140.00       558.42
 1211.61        2976.25           2516         155.00       623.81
 1211.64        2976.50           2520         132.00       523.55
 1211.67        2976.75           2523         139.00       554.06
 1211.70        2977.00           2527         155.00       623.81
 1211.73        2977.25           2530         138.00       549.71
 1211.76        2977.50           2534         115.00       449.44
 1211.79        2977.75           2537         145.00       580.22
 1211.82        2978.00           2541         130.00       514.83
 1211.85        2978.25           2544         129.00       510.47
 1211.88        2978.50           2548         117.00       458.16
 1211.91        2978.75           2552         114.00       445.08
 1211.95        2979.00           2555         148.00       593.30
 1211.98        2979.25           2559         116.00       453.80
 1212.01        2979.50           2562         129.00       510.47
 1212.04        2979.75           2566         105.00       405.85
 1212.07        2980.00           2569         104.00       401.49
 1212.10        2980.25           2573         105.00       405.85
 1212.13        2980.50           2577         100.00       384.05
 1212.16        2980.75           2580         105.00       405.85
 1212.19        2981.00           2584          98.00       375.33
 1212.22        2981.25           2587         122.00       479.96
 1212.25        2981.50           2591         106.00       410.21
 1212.28        2981.75           2594         118.00       462.52
 1212.31        2982.00           2598         100.00       384.05
 1212.34        2982.25           2601         121.00       475.60
 1212.37        2982.50           2605          95.00       362.25
 1212.40        2982.75           2609         105.00       405.85
 1212.43        2983.00           2612          91.00       344.82
 1212.46        2983.25           2616          98.00       375.33
 1212.50        2983.50           2619          89.00       336.10
 1212.53        2983.75           2623         104.00       401.49
 1212.56        2984.00           2626         101.00       388.41
HS scan finished at 20:12:47
end
