************************************************************
  HS Scan of (1) Internal mercury lamp
************************************************************
Integration time is 0.2294 seconds per sample
dh250817Reading 51.44 .94 3.33pr1000
************************************************************
Dead Time -------------------------  3.4E-08 
Number of Cycles Used -------------  4 
Starting Wavelength (Angstroms) ---  2950 
Final Wavelength (Angstoms) -------  2984 
Wavelength Increment (Angstroms) --  .25 
Filter Wheel #1 Position ---------- (1) Ground quartz diffuser (ND=2.32)
Filter Wheel #2 Position ---------- (1) Neutral Density 0.494



************************************************************
HS scan start time = 01:10:05
Dark Count =  2.1 


Time (GMT)  Wavelength (Ang)  Step Number  Raw Counts  Counts/Second

   70.98        2950.00           2144         160.00       688.33
   71.18        2950.25           2147         141.00       605.51
   71.21        2950.50           2151         178.00       766.80
   71.24        2950.75           2155         131.00       561.91
   71.27        2951.00           2158         145.00       622.94
   71.30        2951.25           2162         170.00       731.93
   71.33        2951.50           2165         131.00       561.91
   71.36        2951.75           2169         131.00       561.91
   71.39        2952.00           2172         144.00       618.58
   71.42        2952.25           2176         140.00       601.15
   71.45        2952.50           2179         140.00       601.15
   71.48        2952.75           2183         137.00       588.07
   71.51        2953.00           2186         146.00       627.30
   71.54        2953.25           2190         146.00       627.30
   71.57        2953.50           2193         154.00       662.18
   71.61        2953.75           2197         134.00       574.99
   71.64        2954.00           2200         146.00       627.30
   71.67        2954.25           2204         159.00       683.97
   71.70        2954.50           2208         165.00       710.13
   71.73        2954.75           2211         143.00       614.22
   71.76        2955.00           2215         139.00       596.79
   71.79        2955.25           2218         142.00       609.86
   71.82        2955.50           2222         166.00       714.49
   71.85        2955.75           2225         160.00       688.33
   71.88        2956.00           2229         148.00       636.02
   71.91        2956.25           2232         152.00       653.46
   71.94        2956.50           2236         144.00       618.58
   71.97        2956.75           2239         148.00       636.02
   72.00        2957.00           2243         139.00       596.79
   72.03        2957.25           2246         153.00       657.82
   72.06        2957.50           2250         166.00       714.49
   72.09        2957.75           2254         168.00       723.21
   72.12        2958.00           2257         161.00       692.69
   72.16        2958.25           2261         160.00       688.33
   72.19        2958.50           2264         163.00       701.41
   72.22        2958.75           2268         159.00       683.97
   72.25        2959.00           2271         176.00       758.08
   72.28        2959.25           2275         167.00       718.85
   72.31        2959.50           2278         174.00       749.37
   72.34        2959.75           2282         181.00       779.88
   72.37        2960.00           2285         173.00       745.01
   72.40        2960.25           2289         181.00       779.88
   72.43        2960.50           2293         196.00       845.27
   72.46        2960.75           2296         202.00       871.43
   72.49        2961.00           2300         259.00      1119.92
   72.52        2961.25           2303         535.00      2323.20
   72.55        2961.50           2307        1811.00      7887.47
   72.58        2961.75           2310        3580.00     15605.05
   72.61        2962.00           2314        6447.00     28121.47
   72.64        2962.25           2317        8968.00     39136.18
   72.68        2962.50           2321       12034.00     52543.22
   72.71        2962.75           2324       14301.00     62464.26
   72.74        2963.00           2328       17625.00     77023.16
   72.77        2963.25           2331       19879.00     86903.74
   72.80        2963.50           2335       22939.00    100328.20
   72.83        2963.75           2339       26037.00    113931.80
   72.86        2964.00           2342       28461.00    124584.60
   72.89        2964.25           2346       31957.00    139962.20
   72.92        2964.50           2349       34305.00    150299.20
   72.95        2964.75           2353       37581.00    164733.90
   72.98        2965.00           2356       39410.00    172799.10
   73.01        2965.25           2360       42548.00    186646.70
   73.04        2965.50           2363       44622.00    195806.20
   73.07        2965.75           2367       47569.00    208831.00
   73.10        2966.00           2370       49883.00    219066.30
   73.13        2966.25           2374       52447.00    230415.80
   73.16        2966.50           2378       53456.00    234884.50
   73.20        2966.75           2381       53648.00    235735.00
   73.23        2967.00           2385       53727.00    236084.90
   73.26        2967.25           2388       53773.00    236288.70
   73.29        2967.50           2392       53472.00    234955.40
   73.32        2967.75           2395       53118.00    233387.40
   73.35        2968.00           2399       51175.00    224784.20
   73.38        2968.25           2402       48915.00    214783.80
   73.41        2968.50           2406       46059.00    202155.90
   73.44        2968.75           2409       44117.00    193575.40
   73.47        2969.00           2413       40998.00    179805.10
   73.50        2969.25           2417       37902.00    166149.10
   73.53        2969.50           2420       35524.00    155668.70
   73.56        2969.75           2424       32300.00    141471.80
   73.59        2970.00           2427       29717.00    130107.40
   73.62        2970.25           2431       26798.00    117275.30
   73.65        2970.50           2434       24592.00    107585.10
   73.68        2970.75           2438       21718.00     94970.06
   73.72        2971.00           2441       19207.00     83957.28
   73.75        2971.25           2445       16058.00     70158.01
   73.78        2971.50           2449       13098.00     57198.76
   73.81        2971.75           2452       10995.00     47998.50
   73.84        2972.00           2456        7727.00     33712.99
   73.87        2972.25           2459        5513.00     24042.75
   73.90        2972.50           2463        3012.00     13126.61
   73.93        2972.75           2466        1567.00      6823.29
   73.96        2973.00           2470         495.00      2148.81
   73.99        2973.25           2473         271.00      1172.24
   74.02        2973.50           2477         219.00       945.54
   74.05        2973.75           2481         204.00       880.15
   74.08        2974.00           2484         210.00       906.31
   74.11        2974.25           2488         195.00       840.91
   74.14        2974.50           2491         175.00       753.72
   74.17        2974.75           2495         176.00       758.08
   74.20        2975.00           2498         185.00       797.32
   74.24        2975.25           2502         171.00       736.29
   74.27        2975.50           2505         170.00       731.93
   74.30        2975.75           2509         170.00       731.93
   74.33        2976.00           2512         160.00       688.33
   74.36        2976.25           2516         152.00       653.46
   74.39        2976.50           2520         155.00       666.54
   74.42        2976.75           2523         162.00       697.05
   74.45        2977.00           2527         166.00       714.49
   74.48        2977.25           2530         155.00       666.54
   74.51        2977.50           2534         150.00       644.74
   74.54        2977.75           2537         153.00       657.82
   74.57        2978.00           2541         148.00       636.02
   74.60        2978.25           2544         166.00       714.49
   74.63        2978.50           2548         145.00       622.94
   74.66        2978.75           2552         141.00       605.51
   74.69        2979.00           2555         145.00       622.94
   74.72        2979.25           2559         143.00       614.22
   74.76        2979.50           2562         144.00       618.58
   74.79        2979.75           2566         132.00       566.27
   74.82        2980.00           2569         158.00       679.61
   74.85        2980.25           2573         136.00       583.71
   74.88        2980.50           2577         131.00       561.91
   74.91        2980.75           2580         150.00       644.74
   74.94        2981.00           2584         132.00       566.27
   74.97        2981.25           2587         163.00       701.41
   75.00        2981.50           2591         137.00       588.07
   75.03        2981.75           2594         121.00       518.32
   75.06        2982.00           2598         153.00       657.82
   75.09        2982.25           2601         125.00       535.76
   75.12        2982.50           2605         137.00       588.07
   75.15        2982.75           2609         137.00       588.07
   75.18        2983.00           2612         132.00       566.27
   75.21        2983.25           2616         120.00       513.96
   75.24        2983.50           2619         118.00       505.24
   75.28        2983.75           2623         136.00       583.71
   75.31        2984.00           2626         135.00       579.35
HS scan finished at 01:15:32
end
************************************************************
  HS Scan of (1) Internal mercury lamp
************************************************************
Integration time is 0.2294 seconds per sample
dh250817Reading 51.44 .94 3.92pr1000
************************************************************
Dead Time -------------------------  3.4E-08 
Number of Cycles Used -------------  4 
Starting Wavelength (Angstroms) ---  2950 
Final Wavelength (Angstoms) -------  2984 
Wavelength Increment (Angstroms) --  .25 
Filter Wheel #1 Position ---------- (1) Ground quartz diffuser (ND=2.32)
Filter Wheel #2 Position ---------- (1) Neutral Density 0.494



************************************************************
HS scan start time = 20:07:19
Dark Count =  8 


Time (GMT)  Wavelength (Ang)  Step Number  Raw Counts  Counts/Second

 1208.21        2950.00           2144         120.00       488.24
 1208.40        2950.25           2147         119.00       483.88
 1208.43        2950.50           2151         127.00       518.75
 1208.46        2950.75           2155         113.00       457.72
 1208.49        2951.00           2158         133.00       544.91
 1208.52        2951.25           2162         139.00       571.07
 1208.55        2951.50           2165         114.00       462.08
 1208.58        2951.75           2169         131.00       536.19
 1208.61        2952.00           2172         143.00       588.50
 1208.64        2952.25           2176         146.00       601.58
 1208.68        2952.50           2179         138.00       566.71
 1208.71        2952.75           2183         152.00       627.74
 1208.74        2953.00           2186         113.00       457.72
 1208.77        2953.25           2190         153.00       632.10
 1208.80        2953.50           2193         122.00       496.96
 1208.83        2953.75           2197         122.00       496.96
 1208.86        2954.00           2200         131.00       536.19
 1208.89        2954.25           2204         142.00       584.14
 1208.92        2954.50           2208         123.00       501.32
 1208.95        2954.75           2211         148.00       610.30
 1208.98        2955.00           2215         165.00       684.41
 1209.01        2955.25           2218         141.00       579.78
 1209.04        2955.50           2222         139.00       571.07
 1209.07        2955.75           2225         148.00       610.30
 1209.10        2956.00           2229         154.00       636.46
 1209.13        2956.25           2232         151.00       623.38
 1209.16        2956.50           2236         150.00       619.02
 1209.20        2956.75           2239         134.00       549.27
 1209.23        2957.00           2243         134.00       549.27
 1209.26        2957.25           2246         126.00       514.39
 1209.29        2957.50           2250         159.00       658.25
 1209.32        2957.75           2254         142.00       584.14
 1209.35        2958.00           2257         139.00       571.07
 1209.38        2958.25           2261         148.00       610.30
 1209.41        2958.50           2264         158.00       653.89
 1209.44        2958.75           2268         150.00       619.02
 1209.47        2959.00           2271         156.00       645.18
 1209.50        2959.25           2275         140.00       575.43
 1209.53        2959.50           2278         153.00       632.10
 1209.56        2959.75           2282         164.00       680.05
 1209.59        2960.00           2285         167.00       693.13
 1209.62        2960.25           2289         157.00       649.53
 1209.65        2960.50           2293         172.00       714.93
 1209.68        2960.75           2296         164.00       680.05
 1209.72        2961.00           2300         227.00       954.70
 1209.75        2961.25           2303         406.00      1735.06
 1209.78        2961.50           2307        1493.00      6474.83
 1209.81        2961.75           2310        3158.00     13737.89
 1209.84        2962.00           2314        5568.00     24257.14
 1209.87        2962.25           2317        7323.00     31922.16
 1209.90        2962.50           2321        9554.00     41671.91
 1209.93        2962.75           2324       11129.00     48558.75
 1209.96        2963.00           2328       13537.00     59094.20
 1209.99        2963.25           2331       15304.00     66829.97
 1210.02        2963.50           2335       17849.00     77978.93
 1210.05        2963.75           2339       20647.00     90245.97
 1210.08        2964.00           2342       22521.00     98467.74
 1210.11        2964.25           2346       24850.00    108692.10
 1210.15        2964.50           2349       26531.00    116076.20
 1210.18        2964.75           2353       29038.00    127095.60
 1210.21        2965.00           2356       30521.00    133617.90
 1210.24        2965.25           2360       32844.00    143840.40
 1210.27        2965.50           2363       34289.00    150202.80
 1210.30        2965.75           2367       36480.00    159855.10
 1210.33        2966.00           2370       37976.00    166449.40
 1210.36        2966.25           2374       39886.00    174872.70
 1210.39        2966.50           2378       41046.00    179990.90
 1210.42        2966.75           2381       41151.00    180454.30
 1210.45        2967.00           2385       41024.00    179893.80
 1210.48        2967.25           2388       40957.00    179598.10
 1210.51        2967.50           2392       40883.00    179271.60
 1210.54        2967.75           2395       40417.00    177215.40
 1210.57        2968.00           2399       39567.00    173465.60
 1210.60        2968.25           2402       38061.00    166824.10
 1210.63        2968.50           2406       35884.00    157228.90
 1210.67        2968.75           2409       34193.00    149780.00
 1210.70        2969.00           2413       31632.00    138506.00
 1210.73        2969.25           2417       29130.00    127500.10
 1210.76        2969.50           2420       27149.00    118791.80
 1210.79        2969.75           2424       24917.00    108986.40
 1210.82        2970.00           2427       22902.00    100139.90
 1210.85        2970.25           2431       20337.00     88886.35
 1210.88        2970.50           2434       18523.00     80932.96
 1210.91        2970.75           2438       16345.00     71389.29
 1210.94        2971.00           2441       14490.00     63265.85
 1210.97        2971.25           2445       12087.00     52749.28
 1211.00        2971.50           2449        9714.00     42371.38
 1211.03        2971.75           2452        8182.00     35675.33
 1211.06        2972.00           2456        5955.00     25947.03
 1211.09        2972.25           2459        4378.00     19062.05
 1211.12        2972.50           2463        2207.00      9589.00
 1211.16        2972.75           2466        1004.00      4342.40
 1211.19        2973.00           2470         310.00      1316.54
 1211.22        2973.25           2473         178.00       741.08
 1211.25        2973.50           2477         163.00       675.69
 1211.28        2973.75           2481         154.00       636.46
 1211.31        2974.00           2484         154.00       636.46
 1211.34        2974.25           2488         144.00       592.86
 1211.37        2974.50           2491         149.00       614.66
 1211.40        2974.75           2495         154.00       636.46
 1211.43        2975.00           2498         157.00       649.53
 1211.47        2975.25           2502         131.00       536.19
 1211.50        2975.50           2505         155.00       640.82
 1211.53        2975.75           2509         134.00       549.27
 1211.56        2976.00           2512         124.00       505.68
 1211.59        2976.25           2516         130.00       531.83
 1211.62        2976.50           2520         128.00       523.11
 1211.65        2976.75           2523         124.00       505.68
 1211.68        2977.00           2527         118.00       479.52
 1211.71        2977.25           2530         122.00       496.96
 1211.74        2977.50           2534         125.00       510.03
 1211.77        2977.75           2537         143.00       588.50
 1211.80        2978.00           2541         106.00       427.21
 1211.83        2978.25           2544         129.00       527.47
 1211.86        2978.50           2548         113.00       457.72
 1211.89        2978.75           2552         128.00       523.11
 1211.92        2979.00           2555         146.00       601.58
 1211.95        2979.25           2559         118.00       479.52
 1211.98        2979.50           2562         109.00       440.29
 1212.02        2979.75           2566         100.00       401.05
 1212.05        2980.00           2569         128.00       523.11
 1212.08        2980.25           2573         108.00       435.93
 1212.11        2980.50           2577         101.00       405.41
 1212.14        2980.75           2580         118.00       479.52
 1212.17        2981.00           2584         110.00       444.64
 1212.20        2981.25           2587         106.00       427.21
 1212.23        2981.50           2591          98.00       392.33
 1212.26        2981.75           2594         103.00       414.13
 1212.29        2982.00           2598         114.00       462.08
 1212.32        2982.25           2601          96.00       383.61
 1212.35        2982.50           2605         100.00       401.05
 1212.38        2982.75           2609         118.00       479.52
 1212.41        2983.00           2612         112.00       453.36
 1212.44        2983.25           2616          93.00       370.54
 1212.47        2983.50           2619         118.00       479.52
 1212.50        2983.75           2623         107.00       431.57
 1212.54        2984.00           2626          94.00       374.90
HS scan finished at 20:12:45
end
