************************************************************
  HS Scan of (1) Internal mercury lamp
************************************************************
Integration time is 0.2294 seconds per sample
dh230817Reading 51.44 .94 3.58pr1000
************************************************************
Dead Time -------------------------  3.4E-08 
Number of Cycles Used -------------  4 
Starting Wavelength (Angstroms) ---  2950 
Final Wavelength (Angstoms) -------  2984 
Wavelength Increment (Angstroms) --  .25 
Filter Wheel #1 Position ---------- (1) Ground quartz diffuser (ND=2.32)
Filter Wheel #2 Position ---------- (1) Neutral Density 0.494



************************************************************
HS scan start time = 01:32:34
Dark Count =  2.5 


Time (GMT)  Wavelength (Ang)  Step Number  Raw Counts  Counts/Second

   93.46        2950.00           2144         132.00       564.53
   93.66        2950.25           2147         134.00       573.25
   93.69        2950.50           2151         125.00       534.01
   93.72        2950.75           2155         152.00       651.71
   93.75        2951.00           2158         155.00       664.79
   93.78        2951.25           2162         149.00       638.64
   93.81        2951.50           2165         152.00       651.71
   93.84        2951.75           2169         152.00       651.71
   93.87        2952.00           2172         146.00       625.56
   93.90        2952.25           2176         126.00       538.37
   93.93        2952.50           2179         126.00       538.37
   93.96        2952.75           2183         178.00       765.06
   93.99        2953.00           2186         130.00       555.81
   94.03        2953.25           2190         163.00       699.67
   94.06        2953.50           2193         130.00       555.81
   94.09        2953.75           2197         127.00       542.73
   94.12        2954.00           2200         117.00       499.14
   94.15        2954.25           2204         152.00       651.71
   94.18        2954.50           2208         164.00       704.03
   94.21        2954.75           2211         127.00       542.73
   94.24        2955.00           2215         149.00       638.64
   94.27        2955.25           2218         160.00       686.59
   94.30        2955.50           2222         143.00       612.48
   94.33        2955.75           2225         131.00       560.17
   94.36        2956.00           2229         143.00       612.48
   94.39        2956.25           2232         141.00       603.76
   94.42        2956.50           2236         147.00       629.92
   94.45        2956.75           2239         152.00       651.71
   94.48        2957.00           2243         151.00       647.36
   94.51        2957.25           2246         149.00       638.64
   94.55        2957.50           2250         166.00       712.75
   94.58        2957.75           2254         142.00       608.12
   94.61        2958.00           2257         152.00       651.71
   94.64        2958.25           2261         156.00       669.15
   94.67        2958.50           2264         156.00       669.15
   94.70        2958.75           2268         173.00       743.26
   94.73        2959.00           2271         171.00       734.54
   94.76        2959.25           2275         169.00       725.82
   94.79        2959.50           2278         175.00       751.98
   94.82        2959.75           2282         163.00       699.67
   94.85        2960.00           2285         172.00       738.90
   94.88        2960.25           2289         185.00       795.58
   94.91        2960.50           2293         190.00       817.37
   94.94        2960.75           2296         192.00       826.09
   94.97        2961.00           2300         245.00      1057.14
   95.00        2961.25           2303         499.00      2164.50
   95.03        2961.50           2307        1848.00      8047.10
   95.07        2961.75           2310        3794.00     16537.19
   95.10        2962.00           2314        6558.00     28604.53
   95.13        2962.25           2317        8706.00     37989.32
   95.16        2962.50           2321       11404.00     49785.60
   95.19        2962.75           2324       13594.00     59367.76
   95.22        2963.00           2328       16286.00     71154.94
   95.25        2963.25           2331       18709.00     81772.37
   95.28        2963.50           2335       21677.00     94788.42
   95.31        2963.75           2339       24858.00    108751.40
   95.34        2964.00           2342       27214.00    119101.60
   95.37        2964.25           2346       30498.00    133540.90
   95.40        2964.50           2349       32654.00    143028.20
   95.43        2964.75           2353       35345.00    154878.40
   95.46        2965.00           2356       37456.00    164181.10
   95.49        2965.25           2360       40274.00    176608.80
   95.52        2965.50           2363       42647.00    187082.00
   95.55        2965.75           2367       45385.00    199175.60
   95.58        2966.00           2370       47574.00    208851.40
   95.62        2966.25           2374       49758.00    218511.50
   95.65        2966.50           2378       51371.00    225650.10
   95.68        2966.75           2381       51761.00    227376.60
   95.71        2967.00           2385       51836.00    227708.60
   95.74        2967.25           2388       51811.00    227598.00
   95.77        2967.50           2392       51791.00    227509.40
   95.80        2967.75           2395       51067.00    224304.40
   95.83        2968.00           2399       49376.00    216821.40
   95.86        2968.25           2402       47552.00    208754.10
   95.89        2968.50           2406       44718.00    196228.60
   95.92        2968.75           2409       42703.00    187329.30
   95.95        2969.00           2413       39530.00    173326.60
   95.98        2969.25           2417       36465.00    159813.30
   96.01        2969.50           2420       34115.00    149460.70
   96.04        2969.75           2424       30942.00    135494.20
   96.07        2970.00           2427       28592.00    125158.80
   96.10        2970.25           2431       25893.00    113297.40
   96.14        2970.50           2434       23933.00    104689.80
   96.17        2970.75           2438       20641.00     90243.78
   96.20        2971.00           2441       17983.00     78590.28
   96.23        2971.25           2445       15117.00     66035.20
   96.26        2971.50           2449       12129.00     52957.09
   96.29        2971.75           2452       10204.00     44537.75
   96.32        2972.00           2456        7461.00     32549.08
   96.35        2972.25           2459        5111.00     22285.85
   96.38        2972.50           2463        2337.00     10180.07
   96.41        2972.75           2466         981.00      4266.09
   96.44        2973.00           2470         330.00      1427.71
   96.47        2973.25           2473         235.00      1013.55
   96.50        2973.50           2477         191.00       821.73
   96.53        2973.75           2481         193.00       830.45
   96.56        2974.00           2484         190.00       817.37
   96.59        2974.25           2488         187.00       804.29
   96.62        2974.50           2491         181.00       778.14
   96.66        2974.75           2495         174.00       747.62
   96.69        2975.00           2498         167.00       717.11
   96.72        2975.25           2502         165.00       708.39
   96.75        2975.50           2505         164.00       704.03
   96.78        2975.75           2509         156.00       669.15
   96.81        2976.00           2512         156.00       669.15
   96.84        2976.25           2516         152.00       651.71
   96.87        2976.50           2520         161.00       690.95
   96.90        2976.75           2523         150.00       643.00
   96.93        2977.00           2527         148.00       634.28
   96.96        2977.25           2530         144.00       616.84
   96.99        2977.50           2534         139.00       595.04
   97.02        2977.75           2537         139.00       595.04
   97.06        2978.00           2541         149.00       638.64
   97.09        2978.25           2544         155.00       664.79
   97.12        2978.50           2548         159.00       682.23
   97.15        2978.75           2552         129.00       551.45
   97.18        2979.00           2555         139.00       595.04
   97.21        2979.25           2559         139.00       595.04
   97.25        2979.50           2562         130.00       555.81
   97.28        2979.75           2566         139.00       595.04
   97.31        2980.00           2569         150.00       643.00
   97.34        2980.25           2573         147.00       629.92
   97.37        2980.50           2577         128.00       547.09
   97.40        2980.75           2580         124.00       529.65
   97.43        2981.00           2584         154.00       660.43
   97.46        2981.25           2587         146.00       625.56
   97.49        2981.50           2591         122.00       520.93
   97.52        2981.75           2594         129.00       551.45
   97.55        2982.00           2598         116.00       494.78
   97.58        2982.25           2601         129.00       551.45
   97.61        2982.50           2605         152.00       651.71
   97.64        2982.75           2609         144.00       616.84
   97.67        2983.00           2612         144.00       616.84
   97.70        2983.25           2616         154.00       660.43
   97.73        2983.50           2619         122.00       520.93
   97.77        2983.75           2623         126.00       538.37
   97.80        2984.00           2626         114.00       486.06
HS scan finished at 01:38:01
end
************************************************************
  HS Scan of (1) Internal mercury lamp
************************************************************
Integration time is 0.2294 seconds per sample
dh230817Reading 51.44 .94 3.58pr1000
************************************************************
Dead Time -------------------------  3.4E-08 
Number of Cycles Used -------------  4 
Starting Wavelength (Angstroms) ---  2950 
Final Wavelength (Angstoms) -------  2984 
Wavelength Increment (Angstroms) --  .25 
Filter Wheel #1 Position ---------- (1) Ground quartz diffuser (ND=2.32)
Filter Wheel #2 Position ---------- (1) Neutral Density 0.494



************************************************************
HS scan start time = 20:07:16
Dark Count =  3.9 


Time (GMT)  Wavelength (Ang)  Step Number  Raw Counts  Counts/Second

 1208.16        2950.00           2144          94.00       392.77
 1208.35        2950.25           2147          96.00       401.49
 1208.38        2950.50           2151          96.00       401.49
 1208.41        2950.75           2155          97.00       405.85
 1208.44        2951.00           2158          89.00       370.97
 1208.47        2951.25           2162         152.00       645.61
 1208.50        2951.50           2165          97.00       405.85
 1208.53        2951.75           2169         102.00       427.64
 1208.56        2952.00           2172         100.00       418.92
 1208.59        2952.25           2176          92.00       384.05
 1208.62        2952.50           2179          96.00       401.49
 1208.66        2952.75           2183          97.00       405.85
 1208.69        2953.00           2186          90.00       375.33
 1208.72        2953.25           2190          96.00       401.49
 1208.75        2953.50           2193         115.00       484.31
 1208.78        2953.75           2197         104.00       436.36
 1208.81        2954.00           2200          98.00       410.21
 1208.84        2954.25           2204         126.00       532.27
 1208.87        2954.50           2208         115.00       484.31
 1208.90        2954.75           2211         108.00       453.80
 1208.93        2955.00           2215         118.00       497.39
 1208.96        2955.25           2218          99.00       414.57
 1208.99        2955.50           2222         126.00       532.27
 1209.02        2955.75           2225         115.00       484.31
 1209.05        2956.00           2229         116.00       488.67
 1209.08        2956.25           2232         128.00       540.99
 1209.11        2956.50           2236         104.00       436.36
 1209.15        2956.75           2239         129.00       545.35
 1209.18        2957.00           2243         113.00       475.60
 1209.21        2957.25           2246         110.00       462.52
 1209.24        2957.50           2250         142.00       602.02
 1209.27        2957.75           2254         109.00       458.16
 1209.30        2958.00           2257         133.00       562.78
 1209.33        2958.25           2261         153.00       649.97
 1209.36        2958.50           2264         114.00       479.96
 1209.39        2958.75           2268         136.00       575.86
 1209.42        2959.00           2271         139.00       588.94
 1209.45        2959.25           2275         142.00       602.02
 1209.48        2959.50           2278         142.00       602.02
 1209.51        2959.75           2282         144.00       610.74
 1209.54        2960.00           2285         134.00       567.14
 1209.57        2960.25           2289         147.00       623.81
 1209.60        2960.50           2293         146.00       619.46
 1209.63        2960.75           2296         159.00       676.13
 1209.67        2961.00           2300         203.00       867.94
 1209.70        2961.25           2303         477.00      2062.48
 1209.73        2961.50           2307        1772.00      7709.52
 1209.76        2961.75           2310        3114.00     13563.80
 1209.79        2962.00           2314        5114.00     22292.83
 1209.82        2962.25           2317        6585.00     28716.34
 1209.85        2962.50           2321        8907.00     38861.69
 1209.88        2962.75           2324       10787.00     47080.98
 1209.91        2963.00           2328       12817.00     55961.22
 1209.94        2963.25           2331       14638.00     63931.76
 1209.97        2963.50           2335       16939.00     74009.46
 1210.00        2963.75           2339       19297.00     84343.97
 1210.03        2964.00           2342       21443.00     93755.68
 1210.06        2964.25           2346       23758.00    103915.30
 1210.09        2964.50           2349       25460.00    111389.20
 1210.12        2964.75           2353       27537.00    120515.00
 1210.15        2965.00           2356       29481.00    129061.60
 1210.18        2965.25           2360       31565.00    138229.20
 1210.22        2965.50           2363       33356.00    146112.50
 1210.25        2965.75           2367       35597.00    155982.40
 1210.28        2966.00           2370       36835.00    161437.80
 1210.31        2966.25           2374       38702.00    169668.60
 1210.34        2966.50           2378       39292.00    172270.70
 1210.37        2966.75           2381       39944.00    175146.70
 1210.40        2967.00           2385       39662.00    173902.70
 1210.43        2967.25           2388       39656.00    173876.30
 1210.46        2967.50           2392       39494.00    173161.70
 1210.49        2967.75           2395       39403.00    172760.30
 1210.52        2968.00           2399       38077.00    166912.70
 1210.55        2968.25           2402       36508.00    159996.60
 1210.58        2968.50           2406       34420.00    150797.80
 1210.61        2968.75           2409       32720.00    143312.60
 1210.64        2969.00           2413       30513.00    133600.70
 1210.67        2969.25           2417       28472.00    124625.00
 1210.70        2969.50           2420       26511.00    116006.40
 1210.74        2969.75           2424       24179.00    105763.70
 1210.77        2970.00           2427       22496.00     98376.02
 1210.80        2970.25           2431       20279.00     88649.97
 1210.83        2970.50           2434       18456.00     80657.25
 1210.86        2970.75           2438       16351.00     71433.53
 1210.89        2971.00           2441       14642.00     63949.27
 1210.92        2971.25           2445       12114.00     52885.33
 1210.95        2971.50           2449        9689.00     42280.00
 1210.98        2971.75           2452        7919.00     34544.04
 1211.01        2972.00           2456        5632.00     24554.49
 1211.04        2972.25           2459        4202.00     18311.75
 1211.07        2972.50           2463        2198.00      9567.63
 1211.10        2972.75           2466        1001.00      4347.20
 1211.13        2973.00           2470         260.00      1116.43
 1211.16        2973.25           2473         162.00       689.21
 1211.19        2973.50           2477         150.00       636.89
 1211.23        2973.75           2481         134.00       567.14
 1211.26        2974.00           2484         147.00       623.81
 1211.29        2974.25           2488         147.00       623.81
 1211.33        2974.50           2491         148.00       628.17
 1211.36        2974.75           2495         129.00       545.35
 1211.39        2975.00           2498         127.00       536.63
 1211.42        2975.25           2502         137.00       580.22
 1211.45        2975.50           2505         131.00       554.06
 1211.49        2975.75           2509         136.00       575.86
 1211.52        2976.00           2512         133.00       562.78
 1211.55        2976.25           2516         103.00       432.00
 1211.58        2976.50           2520         107.00       449.44
 1211.61        2976.75           2523         113.00       475.60
 1211.64        2977.00           2527         125.00       527.91
 1211.67        2977.25           2530         105.00       440.72
 1211.70        2977.50           2534         119.00       501.75
 1211.73        2977.75           2537         104.00       436.36
 1211.76        2978.00           2541         104.00       436.36
 1211.79        2978.25           2544         107.00       449.44
 1211.82        2978.50           2548         120.00       506.11
 1211.85        2978.75           2552         116.00       488.67
 1211.88        2979.00           2555          90.00       375.33
 1211.91        2979.25           2559          96.00       401.49
 1211.94        2979.50           2562          85.00       353.54
 1211.97        2979.75           2566          97.00       405.85
 1212.00        2980.00           2569          91.00       379.69
 1212.04        2980.25           2573          91.00       379.69
 1212.07        2980.50           2577         101.00       423.28
 1212.10        2980.75           2580          93.00       388.41
 1212.13        2981.00           2584          94.00       392.77
 1212.16        2981.25           2587          92.00       384.05
 1212.19        2981.50           2591         112.00       471.24
 1212.22        2981.75           2594          87.00       362.25
 1212.25        2982.00           2598          89.00       370.97
 1212.28        2982.25           2601          87.00       362.25
 1212.31        2982.50           2605          87.00       362.25
 1212.34        2982.75           2609          96.00       401.49
 1212.37        2983.00           2612          89.00       370.97
 1212.40        2983.25           2616          89.00       370.97
 1212.43        2983.50           2619          82.00       340.46
 1212.46        2983.75           2623          82.00       340.46
 1212.49        2984.00           2626          85.00       353.54
HS scan finished at 20:12:43
end
