************************************************************
  HS Scan of (1) Internal mercury lamp
************************************************************
Integration time is 0.2294 seconds per sample
dh250818Reading 51.44 .94 3.19pr1000
************************************************************
Dead Time -------------------------  3.4E-08 
Number of Cycles Used -------------  4 
Starting Wavelength (Angstroms) ---  2950 
Final Wavelength (Angstoms) -------  2984 
Wavelength Increment (Angstroms) --  .25 
Filter Wheel #1 Position ---------- (1) Ground quartz diffuser (ND=2.32)
Filter Wheel #2 Position ---------- (1) Neutral Density 0.494



************************************************************
HS scan start time = 01:10:08
Dark Count =  1.1 


Time (GMT)  Wavelength (Ang)  Step Number  Raw Counts  Counts/Second

   71.03        2950.00           2144          60.00       256.76
   71.22        2950.25           2147          65.00       278.56
   71.25        2950.50           2151          68.00       291.63
   71.28        2950.75           2155          66.00       282.91
   71.31        2951.00           2158          63.00       269.84
   71.34        2951.25           2162          65.00       278.56
   71.37        2951.50           2165          64.00       274.20
   71.40        2951.75           2169          80.00       343.94
   71.43        2952.00           2172          65.00       278.56
   71.46        2952.25           2176          65.00       278.56
   71.49        2952.50           2179          73.00       313.43
   71.52        2952.75           2183          60.00       256.76
   71.56        2953.00           2186          60.00       256.76
   71.59        2953.25           2190          67.00       287.27
   71.62        2953.50           2193          68.00       291.63
   71.65        2953.75           2197          70.00       300.35
   71.68        2954.00           2200          72.00       309.07
   71.71        2954.25           2204          71.00       304.71
   71.74        2954.50           2208          64.00       274.20
   71.77        2954.75           2211          71.00       304.71
   71.80        2955.00           2215          60.00       256.76
   71.83        2955.25           2218          73.00       313.43
   71.86        2955.50           2222          67.00       287.27
   71.89        2955.75           2225          66.00       282.91
   71.92        2956.00           2229          78.00       335.23
   71.95        2956.25           2232          78.00       335.23
   71.98        2956.50           2236          72.00       309.07
   72.01        2956.75           2239          71.00       304.71
   72.04        2957.00           2243          80.00       343.94
   72.07        2957.25           2246          77.00       330.87
   72.11        2957.50           2250          85.00       365.74
   72.14        2957.75           2254          74.00       317.79
   72.17        2958.00           2257          86.00       370.10
   72.20        2958.25           2261          77.00       330.87
   72.23        2958.50           2264          88.00       378.82
   72.26        2958.75           2268          79.00       339.59
   72.29        2959.00           2271          90.00       387.54
   72.32        2959.25           2275          83.00       357.02
   72.35        2959.50           2278          84.00       361.38
   72.38        2959.75           2282          86.00       370.10
   72.41        2960.00           2285          80.00       343.94
   72.44        2960.25           2289         110.00       474.72
   72.47        2960.50           2293          93.00       400.62
   72.50        2960.75           2296         113.00       487.80
   72.53        2961.00           2300         126.00       544.47
   72.56        2961.25           2303         285.00      1237.63
   72.59        2961.50           2307         962.00      4189.35
   72.63        2961.75           2310        1758.00      7660.67
   72.66        2962.00           2314        3035.00     13231.32
   72.69        2962.25           2317        4070.00     17747.85
   72.72        2962.50           2321        5210.00     22724.18
   72.75        2962.75           2324        6165.00     26894.24
   72.78        2963.00           2328        7546.00     32926.55
   72.81        2963.25           2331        8778.00     38310.12
   72.84        2963.50           2335       10282.00     44884.93
   72.87        2963.75           2339       11679.00     50994.62
   72.90        2964.00           2342       12908.00     56371.67
   72.93        2964.25           2346       14343.00     62652.50
   72.96        2964.50           2349       15417.00     67355.03
   72.99        2964.75           2353       16933.00     73995.44
   73.02        2965.00           2356       18027.00     78789.25
   73.05        2965.25           2360       19477.00     85145.44
   73.08        2965.50           2363       20310.00     88798.21
   73.11        2965.75           2367       21531.00     94154.03
   73.15        2966.00           2370       22334.00     97677.39
   73.18        2966.25           2374       23268.00    101776.60
   73.21        2966.50           2378       25712.00    112508.50
   73.24        2966.75           2381       25595.00    111994.50
   73.27        2967.00           2385       25977.00    113672.60
   73.30        2967.25           2388       25979.00    113681.40
   73.33        2967.50           2392       25837.00    113057.60
   73.36        2967.75           2395       24886.00    108880.50
   73.39        2968.00           2399       23239.00    101649.30
   73.42        2968.25           2402       22052.00     96439.94
   73.45        2968.50           2406       20561.00     89899.05
   73.48        2968.75           2409       19910.00     87044.06
   73.51        2969.00           2413       18410.00     80467.90
   73.54        2969.25           2417       17138.00     74893.61
   73.57        2969.50           2420       16398.00     71651.68
   73.60        2969.75           2424       14998.00     65520.26
   73.63        2970.00           2427       13877.00     60612.58
   73.67        2970.25           2431       12385.00     54083.23
   73.70        2970.50           2434       11185.00     48833.85
   73.73        2970.75           2438        9595.00     41881.31
   73.76        2971.00           2441        8607.00     37562.77
   73.79        2971.25           2445        7403.00     32301.81
   73.82        2971.50           2449        5951.00     25959.69
   73.85        2971.75           2452        5244.00     22872.62
   73.88        2972.00           2456        3865.00     16853.16
   73.91        2972.25           2459        2643.00     11521.08
   73.94        2972.50           2463        1310.00      5706.86
   73.97        2972.75           2466         645.00      2807.16
   74.00        2973.00           2470         245.00      1063.25
   74.03        2973.25           2473         130.00       561.91
   74.06        2973.50           2477         117.00       505.24
   74.09        2973.75           2481          98.00       422.41
   74.12        2974.00           2484          98.00       422.41
   74.15        2974.25           2488          96.00       413.69
   74.19        2974.50           2491         103.00       444.21
   74.22        2974.75           2495          95.00       409.33
   74.25        2975.00           2498         123.00       531.40
   74.28        2975.25           2502          91.00       391.90
   74.31        2975.50           2505          94.00       404.98
   74.34        2975.75           2509          94.00       404.98
   74.37        2976.00           2512          98.00       422.41
   74.40        2976.25           2516          94.00       404.98
   74.43        2976.50           2520          87.00       374.46
   74.46        2976.75           2523          85.00       365.74
   74.49        2977.00           2527          81.00       348.30
   74.52        2977.25           2530          78.00       335.23
   74.55        2977.50           2534          87.00       374.46
   74.58        2977.75           2537          76.00       326.51
   74.61        2978.00           2541          76.00       326.51
   74.64        2978.25           2544          82.00       352.66
   74.67        2978.50           2548          77.00       330.87
   74.71        2978.75           2552          78.00       335.23
   74.74        2979.00           2555          78.00       335.23
   74.77        2979.25           2559          78.00       335.23
   74.80        2979.50           2562          77.00       330.87
   74.83        2979.75           2566          79.00       339.59
   74.86        2980.00           2569          73.00       313.43
   74.89        2980.25           2573          69.00       295.99
   74.92        2980.50           2577          80.00       343.94
   74.95        2980.75           2580          77.00       330.87
   74.98        2981.00           2584          72.00       309.07
   75.01        2981.25           2587          77.00       330.87
   75.04        2981.50           2591          78.00       335.23
   75.07        2981.75           2594          79.00       339.59
   75.10        2982.00           2598          77.00       330.87
   75.13        2982.25           2601          68.00       291.63
   75.16        2982.50           2605          67.00       287.27
   75.19        2982.75           2609          78.00       335.23
   75.23        2983.00           2612          68.00       291.63
   75.26        2983.25           2616          71.00       304.71
   75.29        2983.50           2619          67.00       287.27
   75.32        2983.75           2623          72.00       309.07
   75.35        2984.00           2626          71.00       304.71
HS scan finished at 01:15:34
end
************************************************************
  HS Scan of (1) Internal mercury lamp
************************************************************
Integration time is 0.2294 seconds per sample
dh250818Reading 51.44 .94 3.5pr1000
************************************************************
Dead Time -------------------------  3.4E-08 
Number of Cycles Used -------------  4 
Starting Wavelength (Angstroms) ---  2950 
Final Wavelength (Angstoms) -------  2984 
Wavelength Increment (Angstroms) --  .25 
Filter Wheel #1 Position ---------- (1) Ground quartz diffuser (ND=2.32)
Filter Wheel #2 Position ---------- (1) Neutral Density 0.494



************************************************************
HS scan start time = 20:07:19
Dark Count =  3.5 


Time (GMT)  Wavelength (Ang)  Step Number  Raw Counts  Counts/Second

 1208.22        2950.00           2144          64.00       263.73
 1208.41        2950.25           2147          66.00       272.45
 1208.44        2950.50           2151          65.00       268.09
 1208.47        2950.75           2155          66.00       272.45
 1208.50        2951.00           2158          67.00       276.81
 1208.53        2951.25           2162          66.00       272.45
 1208.56        2951.50           2165          66.00       272.45
 1208.59        2951.75           2169          61.00       250.66
 1208.62        2952.00           2172          68.00       281.17
 1208.65        2952.25           2176          65.00       268.09
 1208.68        2952.50           2179          64.00       263.73
 1208.71        2952.75           2183          68.00       281.17
 1208.74        2953.00           2186          70.00       289.89
 1208.78        2953.25           2190          68.00       281.17
 1208.81        2953.50           2193          68.00       281.17
 1208.84        2953.75           2197          80.00       333.48
 1208.87        2954.00           2200          69.00       285.53
 1208.90        2954.25           2204          68.00       281.17
 1208.93        2954.50           2208          73.00       302.97
 1208.96        2954.75           2211          71.00       294.25
 1208.99        2955.00           2215          71.00       294.25
 1209.02        2955.25           2218          76.00       316.05
 1209.05        2955.50           2222          72.00       298.61
 1209.08        2955.75           2225          73.00       302.97
 1209.11        2956.00           2229          71.00       294.25
 1209.14        2956.25           2232          78.00       324.76
 1209.17        2956.50           2236          76.00       316.05
 1209.20        2956.75           2239          79.00       329.12
 1209.23        2957.00           2243          75.00       311.69
 1209.27        2957.25           2246          77.00       320.40
 1209.30        2957.50           2250          85.00       355.28
 1209.33        2957.75           2254          82.00       342.20
 1209.36        2958.00           2257          90.00       377.08
 1209.39        2958.25           2261          83.00       346.56
 1209.42        2958.50           2264          82.00       342.20
 1209.45        2958.75           2268          92.00       385.79
 1209.48        2959.00           2271          87.00       364.00
 1209.51        2959.25           2275          87.00       364.00
 1209.54        2959.50           2278          93.00       390.15
 1209.57        2959.75           2282         121.00       512.21
 1209.60        2960.00           2285         116.00       490.42
 1209.63        2960.25           2289          98.00       411.95
 1209.66        2960.50           2293         126.00       534.01
 1209.69        2960.75           2296         101.00       425.03
 1209.72        2961.00           2300         128.00       542.73
 1209.75        2961.25           2303         250.00      1074.58
 1209.79        2961.50           2307         956.00      4152.72
 1209.82        2961.75           2310        1913.00      8326.25
 1209.85        2962.00           2314        3515.00     15315.30
 1209.88        2962.25           2317        4691.00     20447.95
 1209.91        2962.50           2321        6224.00     27141.43
 1209.94        2962.75           2324        7521.00     32806.85
 1209.97        2963.00           2328        8905.00     38854.70
 1210.00        2963.25           2331       10108.00     44113.63
 1210.03        2963.50           2335       11818.00     51592.17
 1210.06        2963.75           2339       13674.00     59713.53
 1210.09        2964.00           2342       15451.00     67493.41
 1210.12        2964.25           2346       17321.00     75684.93
 1210.15        2964.50           2349       18560.00     81114.86
 1210.18        2964.75           2353       20129.00     87993.91
 1210.21        2965.00           2356       21541.00     94187.36
 1210.24        2965.25           2360       23219.00    101551.00
 1210.27        2965.50           2363       24627.00    107732.60
 1210.31        2965.75           2367       26391.00    115480.90
 1210.34        2966.00           2370       27468.00    120213.50
 1210.37        2966.25           2374       28957.00    126759.20
 1210.40        2966.50           2378       29823.00    130567.40
 1210.43        2966.75           2381       30008.00    131381.10
 1210.46        2967.00           2385       29872.00    130783.00
 1210.49        2967.25           2388       30167.00    132080.50
 1210.52        2967.50           2392       30069.00    131649.40
 1210.55        2967.75           2395       30045.00    131543.90
 1210.58        2968.00           2399       29249.00    128043.10
 1210.61        2968.25           2402       28190.00    123387.10
 1210.64        2968.50           2406       26355.00    115322.70
 1210.67        2968.75           2409       25127.00    109928.40
 1210.70        2969.00           2413       22984.00    100519.50
 1210.73        2969.25           2417       21068.00     92112.36
 1210.76        2969.50           2420       20142.00     88050.92
 1210.79        2969.75           2424       18347.00     80181.24
 1210.83        2970.00           2427       17129.00     74843.66
 1210.86        2970.25           2431       15183.00     66319.82
 1210.89        2970.50           2434       13976.00     61035.42
 1210.92        2970.75           2438       12145.00     53022.71
 1210.95        2971.00           2441       10824.00     47244.54
 1210.98        2971.25           2445        9094.00     39680.79
 1211.01        2971.50           2449        7286.00     31780.18
 1211.04        2971.75           2452        6043.00     26350.98
 1211.07        2972.00           2456        4379.00     19086.05
 1211.10        2972.25           2459        3169.00     13805.52
 1211.13        2972.50           2463        1577.00      6860.80
 1211.16        2972.75           2466         700.00      3036.49
 1211.19        2973.00           2470         239.00      1026.63
 1211.22        2973.25           2473         156.00       664.79
 1211.25        2973.50           2477         147.00       625.56
 1211.28        2973.75           2481         124.00       525.29
 1211.31        2974.00           2484          99.00       416.31
 1211.34        2974.25           2488          99.00       416.31
 1211.38        2974.50           2491         114.00       481.70
 1211.41        2974.75           2495         104.00       438.11
 1211.44        2975.00           2498         104.00       438.11
 1211.47        2975.25           2502         102.00       429.39
 1211.50        2975.50           2505          94.00       394.51
 1211.53        2975.75           2509          89.00       372.72
 1211.56        2976.00           2512          96.00       403.23
 1211.59        2976.25           2516          86.00       359.64
 1211.62        2976.50           2520          89.00       372.72
 1211.65        2976.75           2523          87.00       364.00
 1211.68        2977.00           2527          88.00       368.36
 1211.71        2977.25           2530          82.00       342.20
 1211.74        2977.50           2534          85.00       355.28
 1211.77        2977.75           2537          79.00       329.12
 1211.80        2978.00           2541          81.00       337.84
 1211.83        2978.25           2544          76.00       316.05
 1211.86        2978.50           2548          77.00       320.40
 1211.90        2978.75           2552          82.00       342.20
 1211.93        2979.00           2555          87.00       364.00
 1211.96        2979.25           2559          79.00       329.12
 1211.99        2979.50           2562          77.00       320.40
 1212.02        2979.75           2566          73.00       302.97
 1212.05        2980.00           2569          79.00       329.12
 1212.08        2980.25           2573          77.00       320.40
 1212.11        2980.50           2577          75.00       311.69
 1212.14        2980.75           2580          78.00       324.76
 1212.17        2981.00           2584          77.00       320.40
 1212.20        2981.25           2587          73.00       302.97
 1212.23        2981.50           2591          69.00       285.53
 1212.26        2981.75           2594          74.00       307.33
 1212.29        2982.00           2598          72.00       298.61
 1212.32        2982.25           2601          68.00       281.17
 1212.35        2982.50           2605          71.00       294.25
 1212.38        2982.75           2609          70.00       289.89
 1212.42        2983.00           2612          71.00       294.25
 1212.45        2983.25           2616          70.00       289.89
 1212.48        2983.50           2619          68.00       281.17
 1212.51        2983.75           2623          75.00       311.69
 1212.54        2984.00           2626          75.00       311.69
HS scan finished at 20:12:46
end
