************************************************************
  HS Scan of (1) Internal mercury lamp
************************************************************
Integration time is 0.2294 seconds per sample
dh270818Reading 51.44 .94 3.39pr1000
************************************************************
Dead Time -------------------------  3.4E-08 
Number of Cycles Used -------------  4 
Starting Wavelength (Angstroms) ---  2950 
Final Wavelength (Angstoms) -------  2984 
Wavelength Increment (Angstroms) --  .25 
Filter Wheel #1 Position ---------- (1) Ground quartz diffuser (ND=2.32)
Filter Wheel #2 Position ---------- (1) Neutral Density 0.494



************************************************************
HS scan start time = 01:17:38
Dark Count =  1.8 


Time (GMT)  Wavelength (Ang)  Step Number  Raw Counts  Counts/Second

   78.52        2950.00           2144          65.00       275.50
   78.72        2950.25           2147          63.00       266.79
   78.75        2950.50           2151          71.00       301.66
   78.78        2950.75           2155          74.00       314.74
   78.81        2951.00           2158          68.00       288.58
   78.84        2951.25           2162          64.00       271.14
   78.87        2951.50           2165          66.00       279.86
   78.90        2951.75           2169          69.00       292.94
   78.93        2952.00           2172          73.00       310.38
   78.96        2952.25           2176          72.00       306.02
   79.00        2952.50           2179          69.00       292.94
   79.03        2952.75           2183          73.00       310.38
   79.06        2953.00           2186          65.00       275.50
   79.09        2953.25           2190          76.00       323.46
   79.12        2953.50           2193          72.00       306.02
   79.15        2953.75           2197          72.00       306.02
   79.18        2954.00           2200          75.00       319.10
   79.21        2954.25           2204          72.00       306.02
   79.24        2954.50           2208          79.00       336.53
   79.27        2954.75           2211          81.00       345.25
   79.30        2955.00           2215          80.00       340.89
   79.33        2955.25           2218          74.00       314.74
   79.37        2955.50           2222          75.00       319.10
   79.40        2955.75           2225          85.00       362.69
   79.43        2956.00           2229          74.00       314.74
   79.46        2956.25           2232          78.00       332.17
   79.49        2956.50           2236          76.00       323.46
   79.52        2956.75           2239          71.00       301.66
   79.55        2957.00           2243          82.00       349.61
   79.58        2957.25           2246          80.00       340.89
   79.61        2957.50           2250          87.00       371.41
   79.64        2957.75           2254          78.00       332.17
   79.67        2958.00           2257          85.00       362.69
   79.70        2958.25           2261          94.00       401.92
   79.73        2958.50           2264          89.00       380.13
   79.76        2958.75           2268          94.00       401.92
   79.79        2959.00           2271         109.00       467.31
   79.82        2959.25           2275          87.00       371.41
   79.85        2959.50           2278         107.00       458.59
   79.89        2959.75           2282         118.00       506.55
   79.92        2960.00           2285         100.00       428.08
   79.95        2960.25           2289          92.00       393.20
   79.98        2960.50           2293          99.00       423.72
   80.01        2960.75           2296         105.00       449.88
   80.04        2961.00           2300         130.00       558.86
   80.07        2961.25           2303         266.00      1151.75
   80.10        2961.50           2307        1019.00      4434.84
   80.13        2961.75           2310        1943.00      8464.51
   80.16        2962.00           2314        3392.00     14785.98
   80.19        2962.25           2317        4470.00     19490.68
   80.22        2962.50           2321        6098.00     26598.59
   80.25        2962.75           2324        7327.00     31966.72
   80.28        2963.00           2328        9100.00     39714.45
   80.31        2963.25           2331       10479.00     45743.28
   80.34        2963.50           2335       11827.00     51638.98
   80.37        2963.75           2339       13704.00     59852.28
   80.41        2964.00           2342       15048.00     65736.13
   80.44        2964.25           2346       16662.00     72805.11
   80.47        2964.50           2349       17827.00     77909.68
   80.50        2964.75           2353       19476.00     85137.99
   80.53        2965.00           2356       20979.00     91729.41
   80.56        2965.25           2360       22450.00     98183.36
   80.59        2965.50           2363       23592.00    103195.80
   80.62        2965.75           2367       25341.00    110875.80
   80.65        2966.00           2370       26473.00    115848.60
   80.68        2966.25           2374       27760.00    121504.40
   80.71        2966.50           2378       28660.00    125460.80
   80.74        2966.75           2381       28979.00    126863.40
   80.77        2967.00           2385       29013.00    127012.90
   80.80        2967.25           2388       28958.00    126771.10
   80.83        2967.50           2392       28731.00    125773.00
   80.86        2967.75           2395       28938.00    126683.10
   80.89        2968.00           2399       27996.00    122541.80
   80.93        2968.25           2402       26429.00    115655.30
   80.96        2968.50           2406       24732.00    108201.20
   80.99        2968.75           2409       23657.00    103481.10
   81.02        2969.00           2413       22000.00     96208.71
   81.05        2969.25           2417       20464.00     89470.54
   81.08        2969.50           2420       19328.00     84489.09
   81.11        2969.75           2424       17497.00     76463.57
   81.14        2970.00           2427       16070.00     70211.88
   81.17        2970.25           2431       14335.00     62614.41
   81.20        2970.50           2434       13100.00     57208.82
   81.23        2970.75           2438       11336.00     49491.23
   81.26        2971.00           2441       10377.00     45297.26
   81.29        2971.25           2445        8848.00     38613.00
   81.32        2971.50           2449        7524.00     32827.38
   81.35        2971.75           2452        6227.00     27161.96
   81.38        2972.00           2456        4336.00     18905.79
   81.41        2972.25           2459        3044.00     13267.54
   81.45        2972.50           2463        1661.00      7234.56
   81.48        2972.75           2466         863.00      3754.62
   81.51        2973.00           2470         294.00      1273.81
   81.54        2973.25           2473         155.00       667.84
   81.57        2973.50           2477         147.00       632.97
   81.60        2973.75           2481         119.00       510.91
   81.63        2974.00           2484         146.00       628.61
   81.66        2974.25           2488         101.00       432.44
   81.69        2974.50           2491         133.00       571.94
   81.72        2974.75           2495         105.00       449.88
   81.75        2975.00           2498          96.00       410.64
   81.78        2975.25           2502          95.00       406.28
   81.81        2975.50           2505          95.00       406.28
   81.84        2975.75           2509         109.00       467.31
   81.87        2976.00           2512         118.00       506.55
   81.90        2976.25           2516          99.00       423.72
   81.93        2976.50           2520          89.00       380.13
   81.97        2976.75           2523         116.00       497.83
   82.00        2977.00           2527          91.00       388.85
   82.03        2977.25           2530          91.00       388.85
   82.06        2977.50           2534          92.00       393.20
   82.09        2977.75           2537          94.00       401.92
   82.12        2978.00           2541          81.00       345.25
   82.15        2978.25           2544          79.00       336.53
   82.18        2978.50           2548          88.00       375.77
   82.21        2978.75           2552          83.00       353.97
   82.24        2979.00           2555          80.00       340.89
   82.27        2979.25           2559          84.00       358.33
   82.30        2979.50           2562          88.00       375.77
   82.33        2979.75           2566          88.00       375.77
   82.36        2980.00           2569          81.00       345.25
   82.39        2980.25           2573          78.00       332.17
   82.42        2980.50           2577          77.00       327.82
   82.45        2980.75           2580          86.00       367.05
   82.49        2981.00           2584          86.00       367.05
   82.52        2981.25           2587          80.00       340.89
   82.55        2981.50           2591          73.00       310.38
   82.58        2981.75           2594          78.00       332.17
   82.61        2982.00           2598          69.00       292.94
   82.64        2982.25           2601          78.00       332.17
   82.67        2982.50           2605          71.00       301.66
   82.70        2982.75           2609          76.00       323.46
   82.73        2983.00           2612          78.00       332.17
   82.76        2983.25           2616          72.00       306.02
   82.79        2983.50           2619          74.00       314.74
   82.82        2983.75           2623          74.00       314.74
   82.85        2984.00           2626          67.00       284.22
HS scan finished at 01:23:04
end
