************************************************************
  HS Scan of (1) Internal mercury lamp
************************************************************
Integration time is 0.2294 seconds per sample
dh190817Reading 51.44 .94 3.31pr1000
************************************************************
Dead Time -------------------------  3.4E-08 
Number of Cycles Used -------------  4 
Starting Wavelength (Angstroms) ---  2950 
Final Wavelength (Angstoms) -------  2984 
Wavelength Increment (Angstroms) --  .25 
Filter Wheel #1 Position ---------- (1) Ground quartz diffuser (ND=2.32)
Filter Wheel #2 Position ---------- (1) Neutral Density 0.494



************************************************************
HS scan start time = 01:16:11
Dark Count =  1.2 


Time (GMT)  Wavelength (Ang)  Step Number  Raw Counts  Counts/Second

   77.08        2950.00           2144         130.00       561.48
   77.27        2950.25           2147         144.00       622.51
   77.30        2950.50           2151         131.00       565.83
   77.33        2950.75           2155         146.00       631.23
   77.36        2951.00           2158         146.00       631.23
   77.40        2951.25           2162         154.00       666.10
   77.43        2951.50           2165         140.00       605.07
   77.46        2951.75           2169         162.00       700.98
   77.49        2952.00           2172         135.00       583.27
   77.52        2952.25           2176         136.00       587.63
   77.55        2952.50           2179         179.00       775.09
   77.58        2952.75           2183         132.00       570.19
   77.61        2953.00           2186         139.00       600.71
   77.64        2953.25           2190         145.00       626.87
   77.67        2953.50           2193         151.00       653.02
   77.70        2953.75           2197         161.00       696.62
   77.73        2954.00           2200         150.00       648.66
   77.76        2954.25           2204         144.00       622.51
   77.79        2954.50           2208         132.00       570.19
   77.82        2954.75           2211         149.00       644.30
   77.85        2955.00           2215         142.00       613.79
   77.88        2955.25           2218         170.00       735.85
   77.92        2955.50           2222         172.00       744.57
   77.95        2955.75           2225         147.00       635.58
   77.98        2956.00           2229         169.00       731.49
   78.01        2956.25           2232         144.00       622.51
   78.04        2956.50           2236         148.00       639.94
   78.07        2956.75           2239         158.00       683.54
   78.10        2957.00           2243         166.00       718.41
   78.13        2957.25           2246         146.00       631.23
   78.16        2957.50           2250         173.00       748.93
   78.19        2957.75           2254         153.00       661.74
   78.22        2958.00           2257         163.00       705.34
   78.25        2958.25           2261         156.00       674.82
   78.28        2958.50           2264         173.00       748.93
   78.31        2958.75           2268         171.00       740.21
   78.34        2959.00           2271         179.00       775.09
   78.37        2959.25           2275         176.00       762.01
   78.40        2959.50           2278         177.00       766.37
   78.43        2959.75           2282         179.00       775.09
   78.47        2960.00           2285         183.00       792.52
   78.50        2960.25           2289         185.00       801.24
   78.53        2960.50           2293         196.00       849.20
   78.56        2960.75           2296         210.00       910.23
   78.59        2961.00           2300         232.00      1006.14
   78.62        2961.25           2303         399.00      1734.19
   78.65        2961.50           2307        1576.00      6866.47
   78.68        2961.75           2310        3352.00     14614.06
   78.71        2962.00           2314        6350.00     27701.76
   78.74        2962.25           2317        8288.00     36168.25
   78.77        2962.50           2321       11378.00     49677.57
   78.80        2962.75           2324       13432.00     58664.42
   78.83        2963.00           2328       16622.00     72632.50
   78.86        2963.25           2331       18680.00     81650.96
   78.89        2963.50           2335       22531.00     98541.46
   78.92        2963.75           2339       25843.00    113083.50
   78.96        2964.00           2342       28694.00    125612.90
   78.99        2964.25           2346       31148.00    136406.20
   79.02        2964.50           2349       33933.00    148665.00
   79.05        2964.75           2353       37423.00    164041.40
   79.08        2965.00           2356       39765.00    174369.00
   79.11        2965.25           2360       41610.00    182510.00
   79.14        2965.50           2363       44544.00    195465.60
   79.17        2965.75           2367       47788.00    209803.40
   79.20        2966.00           2370       49023.00    215265.50
   79.23        2966.25           2374       52987.00    232811.20
   79.26        2966.50           2378       54799.00    240838.50
   79.29        2966.75           2381       54745.00    240599.20
   79.32        2967.00           2385       55744.00    245026.70
   79.35        2967.25           2388       55779.00    245181.90
   79.38        2967.50           2392       54082.00    237661.60
   79.41        2967.75           2395       55212.00    242668.80
   79.44        2968.00           2399       54485.00    239447.20
   79.48        2968.25           2402       52143.00    229073.70
   79.51        2968.50           2406       49967.00    219442.00
   79.54        2968.75           2409       47462.00    208361.90
   79.57        2969.00           2413       42494.00    186412.30
   79.60        2969.25           2417       40284.00    176658.60
   79.63        2969.50           2420       38170.00    167334.70
   79.66        2969.75           2424       34321.00    150373.70
   79.69        2970.00           2427       32116.00    140665.90
   79.72        2970.25           2431       28063.00    122838.90
   79.75        2970.50           2434       26191.00    114612.30
   79.78        2970.75           2438       22807.00     99752.75
   79.81        2971.00           2441       20489.00     89582.82
   79.84        2971.25           2445       16833.00     73556.90
   79.87        2971.50           2449       14239.00     62196.78
   79.90        2971.75           2452       11791.00     51484.12
   79.93        2972.00           2456        8787.00     38349.01
   79.96        2972.25           2459        6363.00     27758.53
   79.99        2972.50           2463        3571.00     15569.71
   80.03        2972.75           2466        1806.00      7869.59
   80.06        2973.00           2470         513.00      2231.21
   80.09        2973.25           2473         290.00      1258.99
   80.12        2973.50           2477         215.00       932.03
   80.15        2973.75           2481         214.00       927.67
   80.18        2974.00           2484         200.00       866.63
   80.21        2974.25           2488         176.00       762.01
   80.24        2974.50           2491         193.00       836.12
   80.27        2974.75           2495         183.00       792.52
   80.30        2975.00           2498         182.00       788.16
   80.33        2975.25           2502         173.00       748.93
   80.36        2975.50           2505         172.00       744.57
   80.39        2975.75           2509         179.00       775.09
   80.44        2976.00           2512         167.00       722.77
   80.47        2976.25           2516         164.00       709.69
   80.50        2976.50           2520         157.00       679.18
   80.53        2976.75           2523         166.00       718.41
   80.56        2977.00           2527         155.00       670.46
   80.59        2977.25           2530         150.00       648.66
   80.62        2977.50           2534         148.00       639.94
   80.65        2977.75           2537         138.00       596.35
   80.69        2978.00           2541         160.00       692.26
   80.72        2978.25           2544         145.00       626.87
   80.75        2978.50           2548         143.00       618.15
   80.78        2978.75           2552         139.00       600.71
   80.81        2979.00           2555         147.00       635.58
   80.84        2979.25           2559         158.00       683.54
   80.87        2979.50           2562         147.00       635.58
   80.90        2979.75           2566         152.00       657.38
   80.93        2980.00           2569         158.00       683.54
   80.96        2980.25           2573         160.00       692.26
   80.99        2980.50           2577         149.00       644.30
   81.02        2980.75           2580         150.00       648.66
   81.05        2981.00           2584         145.00       626.87
   81.08        2981.25           2587         153.00       661.74
   81.11        2981.50           2591         125.00       539.68
   81.14        2981.75           2594         127.00       548.40
   81.17        2982.00           2598         144.00       622.51
   81.21        2982.25           2601         125.00       539.68
   81.24        2982.50           2605         141.00       609.43
   81.27        2982.75           2609         170.00       735.85
   81.30        2983.00           2612         126.00       544.04
   81.33        2983.25           2616         133.00       574.55
   81.36        2983.50           2619         140.00       605.07
   81.39        2983.75           2623         120.00       517.88
   81.42        2984.00           2626         133.00       574.55
HS scan finished at 01:21:38
end
************************************************************
  HS Scan of (1) Internal mercury lamp
************************************************************
Integration time is 0.2294 seconds per sample
dh190817Reading 51.44 .94 3.41pr1000
************************************************************
Dead Time -------------------------  3.4E-08 
Number of Cycles Used -------------  4 
Starting Wavelength (Angstroms) ---  2950 
Final Wavelength (Angstoms) -------  2984 
Wavelength Increment (Angstroms) --  .25 
Filter Wheel #1 Position ---------- (1) Ground quartz diffuser (ND=2.32)
Filter Wheel #2 Position ---------- (1) Neutral Density 0.494



************************************************************
HS scan start time = 20:07:29
Dark Count =  2.4 


Time (GMT)  Wavelength (Ang)  Step Number  Raw Counts  Counts/Second

 1208.38        2950.00           2144         157.00       673.95
 1208.57        2950.25           2147         146.00       625.99
 1208.60        2950.50           2151         137.00       586.76
 1208.63        2950.75           2155         137.00       586.76
 1208.66        2951.00           2158         139.00       595.48
 1208.69        2951.25           2162         146.00       625.99
 1208.72        2951.50           2165         140.00       599.84
 1208.76        2951.75           2169         139.00       595.48
 1208.79        2952.00           2172         127.00       543.17
 1208.82        2952.25           2176         143.00       612.92
 1208.85        2952.50           2179         139.00       595.48
 1208.88        2952.75           2183         138.00       591.12
 1208.91        2953.00           2186         133.00       569.32
 1208.94        2953.25           2190         151.00       647.79
 1208.97        2953.50           2193         135.00       578.04
 1209.00        2953.75           2197         153.00       656.51
 1209.03        2954.00           2200         136.00       582.40
 1209.06        2954.25           2204         133.00       569.32
 1209.09        2954.50           2208         143.00       612.92
 1209.12        2954.75           2211         136.00       582.40
 1209.15        2955.00           2215         136.00       582.40
 1209.18        2955.25           2218         147.00       630.35
 1209.21        2955.50           2222         156.00       669.59
 1209.24        2955.75           2225         159.00       682.67
 1209.28        2956.00           2229         152.00       652.15
 1209.31        2956.25           2232         139.00       595.48
 1209.34        2956.50           2236         145.00       621.63
 1209.37        2956.75           2239         149.00       639.07
 1209.40        2957.00           2243         155.00       665.23
 1209.43        2957.25           2246         147.00       630.35
 1209.46        2957.50           2250         142.00       608.56
 1209.49        2957.75           2254         158.00       678.31
 1209.52        2958.00           2257         165.00       708.82
 1209.55        2958.25           2261         166.00       713.18
 1209.58        2958.50           2264         177.00       761.14
 1209.61        2958.75           2268         168.00       721.90
 1209.64        2959.00           2271         167.00       717.54
 1209.67        2959.25           2275         167.00       717.54
 1209.70        2959.50           2278         166.00       713.18
 1209.73        2959.75           2282         178.00       765.50
 1209.77        2960.00           2285         181.00       778.57
 1209.80        2960.25           2289         166.00       713.18
 1209.83        2960.50           2293         183.00       787.29
 1209.86        2960.75           2296         201.00       865.76
 1209.89        2961.00           2300         266.00      1149.13
 1209.92        2961.25           2303         482.00      2090.82
 1209.95        2961.50           2307        1898.00      8265.62
 1209.98        2961.75           2310        3694.00     16101.23
 1210.01        2962.00           2314        6543.00     28539.45
 1210.04        2962.25           2317        8670.00     37832.42
 1210.07        2962.50           2321       11355.00     49571.71
 1210.10        2962.75           2324       13592.00     59359.44
 1210.13        2963.00           2328       16720.00     73056.57
 1210.16        2963.25           2331       19338.00     84530.31
 1210.19        2963.50           2335       22290.00     97478.59
 1210.22        2963.75           2339       25095.00    109792.70
 1210.25        2964.00           2342       27507.00    120389.80
 1210.28        2964.25           2346       30693.00    134399.20
 1210.32        2964.50           2349       33028.00    144675.10
 1210.35        2964.75           2353       35923.00    157425.40
 1210.38        2965.00           2356       38481.00    168700.70
 1210.41        2965.25           2360       41619.00    182544.50
 1210.44        2965.50           2363       43642.00    191476.20
 1210.47        2965.75           2367       46233.00    202923.60
 1210.50        2966.00           2370       48623.00    213490.90
 1210.53        2966.25           2374       50707.00    222711.50
 1210.56        2966.50           2378       52033.00    228581.30
 1210.59        2966.75           2381       52341.00    229945.10
 1210.62        2967.00           2385       52200.00    229320.70
 1210.65        2967.25           2388       52435.00    230361.30
 1210.68        2967.50           2392       52280.00    229675.00
 1210.71        2967.75           2395       51741.00    227288.50
 1210.74        2968.00           2399       49719.00    218339.40
 1210.77        2968.25           2402       48054.00    210974.40
 1210.81        2968.50           2406       45138.00    198084.60
 1210.84        2968.75           2409       42979.00    188548.40
 1210.87        2969.00           2413       40458.00    177421.00
 1210.90        2969.25           2417       37380.00    163846.60
 1210.93        2969.50           2420       35338.00    154848.00
 1210.96        2969.75           2424       32539.00    142522.40
 1210.99        2970.00           2427       29885.00    130845.00
 1211.02        2970.25           2431       26737.00    117006.00
 1211.05        2970.50           2434       24496.00    107162.20
 1211.08        2970.75           2438       21145.00     92454.96
 1211.11        2971.00           2441       18979.00     82956.41
 1211.14        2971.25           2445       16284.00     71146.61
 1211.17        2971.50           2449       13416.00     58589.13
 1211.20        2971.75           2452       11185.00     48828.17
 1211.23        2972.00           2456        8286.00     36154.27
 1211.26        2972.25           2459        6156.00     26849.26
 1211.29        2972.50           2463        3350.00     14600.10
 1211.32        2972.75           2466        1598.00      6957.18
 1211.36        2973.00           2470         423.00      1833.59
 1211.39        2973.25           2473         274.00      1184.01
 1211.42        2973.50           2477         210.00       905.00
 1211.45        2973.75           2481         198.00       852.68
 1211.48        2974.00           2484         194.00       835.25
 1211.51        2974.25           2488         166.00       713.18
 1211.54        2974.50           2491         175.00       752.42
 1211.57        2974.75           2495         183.00       787.29
 1211.60        2975.00           2498         175.00       752.42
 1211.63        2975.25           2502         165.00       708.82
 1211.66        2975.50           2505         171.00       734.98
 1211.69        2975.75           2509         161.00       691.39
 1211.72        2976.00           2512         162.00       695.74
 1211.75        2976.25           2516         158.00       678.31
 1211.78        2976.50           2520         160.00       687.03
 1211.81        2976.75           2523         172.00       739.34
 1211.84        2977.00           2527         148.00       634.71
 1211.88        2977.25           2530         151.00       647.79
 1211.91        2977.50           2534         149.00       639.07
 1211.94        2977.75           2537         157.00       673.95
 1211.97        2978.00           2541         146.00       625.99
 1212.00        2978.25           2544         169.00       726.26
 1212.03        2978.50           2548         152.00       652.15
 1212.06        2978.75           2552         154.00       660.87
 1212.09        2979.00           2555         129.00       551.88
 1212.12        2979.25           2559         154.00       660.87
 1212.15        2979.50           2562         142.00       608.56
 1212.18        2979.75           2566         123.00       525.73
 1212.21        2980.00           2569         174.00       748.06
 1212.24        2980.25           2573         142.00       608.56
 1212.27        2980.50           2577         154.00       660.87
 1212.30        2980.75           2580         138.00       591.12
 1212.33        2981.00           2584         136.00       582.40
 1212.36        2981.25           2587         137.00       586.76
 1212.40        2981.50           2591         167.00       717.54
 1212.43        2981.75           2594         147.00       630.35
 1212.46        2982.00           2598         142.00       608.56
 1212.49        2982.25           2601         154.00       660.87
 1212.52        2982.50           2605         128.00       547.53
 1212.55        2982.75           2609         128.00       547.53
 1212.58        2983.00           2612         132.00       564.96
 1212.61        2983.25           2616         141.00       604.20
 1212.64        2983.50           2619         149.00       639.07
 1212.67        2983.75           2623         154.00       660.87
 1212.70        2984.00           2626         116.00       495.21
HS scan finished at 20:12:55
end
