************************************************************
  HS Scan of (1) Internal mercury lamp
************************************************************
Integration time is 0.2294 seconds per sample
dh190818Reading 51.44 .94 3.66pr1000
************************************************************
Dead Time -------------------------  3.4E-08 
Number of Cycles Used -------------  4 
Starting Wavelength (Angstroms) ---  2950 
Final Wavelength (Angstoms) -------  2984 
Wavelength Increment (Angstroms) --  .25 
Filter Wheel #1 Position ---------- (1) Ground quartz diffuser (ND=2.32)
Filter Wheel #2 Position ---------- (1) Neutral Density 0.494



************************************************************
HS scan start time = 01:16:23
Dark Count =  3.2 


Time (GMT)  Wavelength (Ang)  Step Number  Raw Counts  Counts/Second

   77.29        2950.00           2144          66.00       273.76
   77.48        2950.25           2147          64.00       265.04
   77.51        2950.50           2151          66.00       273.76
   77.54        2950.75           2155          69.00       286.84
   77.57        2951.00           2158          63.00       260.68
   77.60        2951.25           2162          70.00       291.20
   77.63        2951.50           2165          69.00       286.84
   77.67        2951.75           2169          70.00       291.20
   77.70        2952.00           2172          69.00       286.84
   77.73        2952.25           2176          71.00       295.56
   77.76        2952.50           2179          66.00       273.76
   77.79        2952.75           2183          71.00       295.56
   77.82        2953.00           2186          66.00       273.76
   77.85        2953.25           2190          69.00       286.84
   77.88        2953.50           2193          71.00       295.56
   77.91        2953.75           2197          73.00       304.28
   77.94        2954.00           2200          67.00       278.12
   77.97        2954.25           2204          72.00       299.92
   78.00        2954.50           2208          78.00       326.07
   78.03        2954.75           2211          69.00       286.84
   78.06        2955.00           2215          76.00       317.35
   78.09        2955.25           2218          77.00       321.71
   78.12        2955.50           2222          68.00       282.48
   78.15        2955.75           2225          79.00       330.43
   78.19        2956.00           2229          80.00       334.79
   78.22        2956.25           2232          69.00       286.84
   78.25        2956.50           2236          77.00       321.71
   78.28        2956.75           2239          77.00       321.71
   78.31        2957.00           2243          77.00       321.71
   78.34        2957.25           2246          74.00       308.63
   78.37        2957.50           2250          84.00       352.23
   78.40        2957.75           2254          81.00       339.15
   78.43        2958.00           2257          99.00       417.62
   78.46        2958.25           2261          79.00       330.43
   78.49        2958.50           2264          83.00       347.87
   78.52        2958.75           2268          85.00       356.59
   78.55        2959.00           2271          87.00       365.31
   78.58        2959.25           2275          95.00       400.18
   78.61        2959.50           2278          92.00       387.10
   78.64        2959.75           2282         111.00       469.93
   78.67        2960.00           2285          89.00       374.02
   78.71        2960.25           2289          98.00       413.26
   78.74        2960.50           2293         120.00       509.16
   78.77        2960.75           2296         114.00       483.01
   78.80        2961.00           2300         169.00       722.77
   78.83        2961.25           2303         299.00      1289.51
   78.86        2961.50           2307        1081.00      4699.09
   78.89        2961.75           2310        1935.00      8423.51
   78.92        2962.00           2314        3309.00     14417.70
   78.95        2962.25           2317        4352.00     18969.51
   78.98        2962.50           2321        6024.00     26269.31
   79.01        2962.75           2324        7276.00     31737.81
   79.04        2963.00           2328        8797.00     38383.98
   79.07        2963.25           2331       10024.00     43747.68
   79.10        2963.50           2335       11450.00     49983.74
   79.13        2963.75           2339       13225.00     57749.73
   79.16        2964.00           2342       14758.00     64460.21
   79.19        2964.25           2346       16505.00     72111.21
   79.23        2964.50           2349       17870.00     78091.99
   79.26        2964.75           2353       19414.00     84860.01
   79.29        2965.00           2356       20584.00     89990.71
   79.32        2965.25           2360       22126.00     96755.44
   79.35        2965.50           2363       23249.00    101684.00
   79.38        2965.75           2367       24704.00    108072.10
   79.41        2966.00           2370       25678.00    112349.90
   79.44        2966.25           2374       27111.00    118645.90
   79.47        2966.50           2378       27813.00    121731.20
   79.50        2966.75           2381       28003.00    122566.40
   79.53        2967.00           2385       28019.00    122636.70
   79.56        2967.25           2388       27660.00    121058.70
   79.59        2967.50           2392       27880.00    122025.70
   79.62        2967.75           2395       28733.00    125775.60
   79.65        2968.00           2399       27519.00    120439.00
   79.68        2968.25           2402       26419.00    115605.20
   79.71        2968.50           2406       24840.00    108669.30
   79.75        2968.75           2409       23599.00    103220.40
   79.78        2969.00           2413       22193.00     97049.44
   79.81        2969.25           2417       20591.00     90021.41
   79.84        2969.50           2420       19229.00     84048.91
   79.87        2969.75           2424       17377.00     75931.62
   79.90        2970.00           2427       16061.00     70166.32
   79.93        2970.25           2431       14427.00     63011.05
   79.96        2970.50           2434       13233.00     57784.74
   79.99        2970.75           2438       11371.00     49638.20
   80.02        2971.00           2441       10126.00     44193.65
   80.05        2971.25           2445        8807.00     38427.68
   80.08        2971.50           2449        7133.00     31113.11
   80.11        2971.75           2452        5725.00     24963.64
   80.14        2972.00           2456        4008.00     17468.09
   80.17        2972.25           2459        2852.00     12423.73
   80.20        2972.50           2463        1573.00      6844.66
   80.23        2972.75           2466         907.00      3940.37
   80.27        2973.00           2470         351.00      1516.21
   80.30        2973.25           2473         162.00       692.26
   80.33        2973.50           2477         112.00       474.29
   80.36        2973.75           2481         122.00       517.88
   80.39        2974.00           2484         110.00       465.57
   80.42        2974.25           2488         123.00       522.24
   80.45        2974.50           2491          97.00       408.90
   80.48        2974.75           2495          98.00       413.26
   80.51        2975.00           2498          98.00       413.26
   80.54        2975.25           2502          91.00       382.74
   80.57        2975.50           2505         113.00       478.65
   80.60        2975.75           2509          83.00       347.87
   80.63        2976.00           2512          91.00       382.74
   80.66        2976.25           2516          91.00       382.74
   80.69        2976.50           2520         113.00       478.65
   80.72        2976.75           2523          85.00       356.59
   80.75        2977.00           2527          77.00       321.71
   80.78        2977.25           2530          88.00       369.66
   80.82        2977.50           2534          80.00       334.79
   80.85        2977.75           2537          86.00       360.95
   80.88        2978.00           2541          76.00       317.35
   80.91        2978.25           2544          85.00       356.59
   80.94        2978.50           2548          83.00       347.87
   80.97        2978.75           2552          78.00       326.07
   81.00        2979.00           2555          88.00       369.66
   81.03        2979.25           2559          86.00       360.95
   81.06        2979.50           2562          79.00       330.43
   81.09        2979.75           2566          88.00       369.66
   81.12        2980.00           2569          79.00       330.43
   81.15        2980.25           2573          70.00       291.20
   81.18        2980.50           2577          74.00       308.63
   81.21        2980.75           2580          72.00       299.92
   81.24        2981.00           2584          77.00       321.71
   81.27        2981.25           2587          74.00       308.63
   81.30        2981.50           2591          76.00       317.35
   81.34        2981.75           2594          68.00       282.48
   81.37        2982.00           2598          73.00       304.28
   81.40        2982.25           2601          80.00       334.79
   81.43        2982.50           2605          72.00       299.92
   81.46        2982.75           2609          69.00       286.84
   81.49        2983.00           2612          66.00       273.76
   81.52        2983.25           2616          83.00       347.87
   81.55        2983.50           2619          72.00       299.92
   81.58        2983.75           2623          67.00       278.12
   81.61        2984.00           2626          71.00       295.56
HS scan finished at 01:21:50
end
************************************************************
  HS Scan of (1) Internal mercury lamp
************************************************************
Integration time is 0.2294 seconds per sample
dh190818Reading 51.44 .94 3.82pr1000
************************************************************
Dead Time -------------------------  3.4E-08 
Number of Cycles Used -------------  4 
Starting Wavelength (Angstroms) ---  2950 
Final Wavelength (Angstoms) -------  2984 
Wavelength Increment (Angstroms) --  .25 
Filter Wheel #1 Position ---------- (1) Ground quartz diffuser (ND=2.32)
Filter Wheel #2 Position ---------- (1) Neutral Density 0.494



************************************************************
HS scan start time = 20:07:28
Dark Count =  5.9 


Time (GMT)  Wavelength (Ang)  Step Number  Raw Counts  Counts/Second

 1208.36        2950.00           2144          46.00       174.80
 1208.55        2950.25           2147          48.00       183.52
 1208.58        2950.50           2151          53.00       205.32
 1208.61        2950.75           2155          56.00       218.40
 1208.64        2951.00           2158          52.00       200.96
 1208.67        2951.25           2162          51.00       196.60
 1208.70        2951.50           2165          53.00       205.32
 1208.73        2951.75           2169          52.00       200.96
 1208.76        2952.00           2172          49.00       187.88
 1208.80        2952.25           2176          53.00       205.32
 1208.83        2952.50           2179          48.00       183.52
 1208.86        2952.75           2183          51.00       196.60
 1208.89        2953.00           2186          53.00       205.32
 1208.92        2953.25           2190          59.00       231.48
 1208.95        2953.50           2193          46.00       174.80
 1208.98        2953.75           2197          53.00       205.32
 1209.01        2954.00           2200          58.00       227.12
 1209.04        2954.25           2204          59.00       231.48
 1209.07        2954.50           2208          65.00       257.63
 1209.10        2954.75           2211          58.00       227.12
 1209.13        2955.00           2215          58.00       227.12
 1209.16        2955.25           2218          57.00       222.76
 1209.19        2955.50           2222          62.00       244.55
 1209.22        2955.75           2225          53.00       205.32
 1209.25        2956.00           2229          54.00       209.68
 1209.28        2956.25           2232          58.00       227.12
 1209.32        2956.50           2236          59.00       231.48
 1209.35        2956.75           2239          60.00       235.83
 1209.38        2957.00           2243          54.00       209.68
 1209.41        2957.25           2246          60.00       235.83
 1209.44        2957.50           2250          64.00       253.27
 1209.47        2957.75           2254          61.00       240.19
 1209.50        2958.00           2257          65.00       257.63
 1209.53        2958.25           2261          55.00       214.04
 1209.56        2958.50           2264          66.00       261.99
 1209.59        2958.75           2268          66.00       261.99
 1209.62        2959.00           2271          69.00       275.07
 1209.65        2959.25           2275          64.00       253.27
 1209.68        2959.50           2278          70.00       279.43
 1209.71        2959.75           2282          66.00       261.99
 1209.74        2960.00           2285          70.00       279.43
 1209.77        2960.25           2289          74.00       296.86
 1209.80        2960.50           2293          74.00       296.86
 1209.83        2960.75           2296          81.00       327.38
 1209.87        2961.00           2300         111.00       458.16
 1209.90        2961.25           2303         286.00      1221.06
 1209.93        2961.50           2307         848.00      3671.34
 1209.96        2961.75           2310        1520.00      6601.74
 1209.99        2962.00           2314        2535.00     11028.98
 1210.02        2962.25           2317        3284.00     14296.84
 1210.05        2962.50           2321        4330.00     18861.70
 1210.08        2962.75           2324        5078.00     22126.93
 1210.11        2963.00           2328        6043.00     26340.50
 1210.14        2963.25           2331        6830.00     29777.74
 1210.17        2963.50           2335        8018.00     34967.88
 1210.20        2963.75           2339        9142.00     39880.11
 1210.23        2964.00           2342       10025.00     43740.24
 1210.26        2964.25           2346       11196.00     48860.96
 1210.29        2964.50           2349       12099.00     52810.96
 1210.32        2964.75           2353       13151.00     57414.06
 1210.35        2965.00           2356       13869.00     60556.55
 1210.39        2965.25           2360       14906.00     65096.40
 1210.42        2965.50           2363       15517.00     67771.94
 1210.45        2965.75           2367       16879.00     73737.81
 1210.48        2966.00           2370       18725.00     81827.61
 1210.51        2966.25           2374       19732.00     86242.49
 1210.54        2966.50           2378       20133.00     88000.93
 1210.57        2966.75           2381       20168.00     88154.41
 1210.60        2967.00           2385       20135.00     88009.69
 1210.63        2967.25           2388       20237.00     88457.01
 1210.66        2967.50           2392       20106.00     87882.52
 1210.69        2967.75           2395       19539.00     85396.22
 1210.72        2968.00           2399       18897.00     82581.59
 1210.75        2968.25           2402       18360.00     80227.70
 1210.78        2968.50           2406       17073.00     74587.78
 1210.81        2968.75           2409       16307.00     71232.03
 1210.84        2969.00           2413       15120.00     66033.44
 1210.87        2969.25           2417       14043.00     61318.20
 1210.91        2969.50           2420       13193.00     57597.87
 1210.94        2969.75           2424       12064.00     52657.84
 1210.97        2970.00           2427       11025.00     48113.08
 1211.00        2970.25           2431        9761.00     42586.03
 1211.03        2970.50           2434        8904.00     38839.84
 1211.06        2970.75           2438        7597.00     33128.40
 1211.09        2971.00           2441        6725.00     29319.10
 1211.12        2971.25           2445        5628.00     24528.30
 1211.15        2971.50           2449        4485.00     19538.26
 1211.18        2971.75           2452        3740.00     16286.70
 1211.21        2972.00           2456        2737.00     11910.23
 1211.24        2972.25           2459        1796.00      7805.47
 1211.27        2972.50           2463         823.00      3562.33
 1211.30        2972.75           2466         370.00      1587.27
 1211.33        2973.00           2470         141.00       588.94
 1211.36        2973.25           2473          94.00       384.05
 1211.39        2973.50           2477          86.00       349.18
 1211.43        2973.75           2481          83.00       336.10
 1211.46        2974.00           2484          71.00       283.79
 1211.49        2974.25           2488          80.00       323.02
 1211.52        2974.50           2491          72.00       288.15
 1211.55        2974.75           2495          69.00       275.07
 1211.58        2975.00           2498          79.00       318.66
 1211.61        2975.25           2502          72.00       288.15
 1211.64        2975.50           2505          63.00       248.91
 1211.67        2975.75           2509          74.00       296.86
 1211.70        2976.00           2512          66.00       261.99
 1211.73        2976.25           2516          64.00       253.27
 1211.76        2976.50           2520          66.00       261.99
 1211.79        2976.75           2523          67.00       266.35
 1211.82        2977.00           2527          72.00       288.15
 1211.85        2977.25           2530          61.00       240.19
 1211.88        2977.50           2534          63.00       248.91
 1211.91        2977.75           2537          62.00       244.55
 1211.95        2978.00           2541          63.00       248.91
 1211.98        2978.25           2544          62.00       244.55
 1212.01        2978.50           2548          63.00       248.91
 1212.04        2978.75           2552          61.00       240.19
 1212.07        2979.00           2555          60.00       235.83
 1212.10        2979.25           2559          64.00       253.27
 1212.13        2979.50           2562          63.00       248.91
 1212.16        2979.75           2566          62.00       244.55
 1212.19        2980.00           2569          54.00       209.68
 1212.22        2980.25           2573          59.00       231.48
 1212.25        2980.50           2577          54.00       209.68
 1212.28        2980.75           2580          51.00       196.60
 1212.31        2981.00           2584          54.00       209.68
 1212.34        2981.25           2587          63.00       248.91
 1212.37        2981.50           2591          59.00       231.48
 1212.40        2981.75           2594          56.00       218.40
 1212.43        2982.00           2598          53.00       205.32
 1212.47        2982.25           2601          58.00       227.12
 1212.50        2982.50           2605          54.00       209.68
 1212.53        2982.75           2609          55.00       214.04
 1212.56        2983.00           2612          59.00       231.48
 1212.59        2983.25           2616          58.00       227.12
 1212.62        2983.50           2619          54.00       209.68
 1212.65        2983.75           2623          52.00       200.96
 1212.68        2984.00           2626          55.00       214.04
HS scan finished at 20:12:54
end
