************************************************************
  HS Scan of (1) Internal mercury lamp
************************************************************
Integration time is 0.2294 seconds per sample
dh260817Reading 51.44 .94 3.41pr1000
************************************************************
Dead Time -------------------------  3.4E-08 
Number of Cycles Used -------------  4 
Starting Wavelength (Angstroms) ---  2950 
Final Wavelength (Angstoms) -------  2984 
Wavelength Increment (Angstroms) --  .25 
Filter Wheel #1 Position ---------- (1) Ground quartz diffuser (ND=2.32)
Filter Wheel #2 Position ---------- (1) Neutral Density 0.494



************************************************************
HS scan start time = 01:14:28
Dark Count =  2.1 


Time (GMT)  Wavelength (Ang)  Step Number  Raw Counts  Counts/Second

   75.36        2950.00           2144         142.00       609.86
   75.55        2950.25           2147         130.00       557.55
   75.58        2950.50           2151         142.00       609.86
   75.61        2950.75           2155         135.00       579.35
   75.64        2951.00           2158         145.00       622.94
   75.68        2951.25           2162         133.00       570.63
   75.71        2951.50           2165         134.00       574.99
   75.74        2951.75           2169         124.00       531.40
   75.77        2952.00           2172         135.00       579.35
   75.80        2952.25           2176         152.00       653.46
   75.83        2952.50           2179         150.00       644.74
   75.86        2952.75           2183         128.00       548.83
   75.89        2953.00           2186         174.00       749.37
   75.92        2953.25           2190         136.00       583.71
   75.95        2953.50           2193         157.00       675.26
   75.98        2953.75           2197         141.00       605.51
   76.01        2954.00           2200         152.00       653.46
   76.04        2954.25           2204         183.00       788.60
   76.07        2954.50           2208         135.00       579.35
   76.10        2954.75           2211         171.00       736.29
   76.13        2955.00           2215         140.00       601.15
   76.16        2955.25           2218         167.00       718.85
   76.20        2955.50           2222         132.00       566.27
   76.23        2955.75           2225         150.00       644.74
   76.26        2956.00           2229         144.00       618.58
   76.29        2956.25           2232         137.00       588.07
   76.32        2956.50           2236         149.00       640.38
   76.35        2956.75           2239         167.00       718.85
   76.38        2957.00           2243         150.00       644.74
   76.41        2957.25           2246         166.00       714.49
   76.44        2957.50           2250         155.00       666.54
   76.47        2957.75           2254         174.00       749.37
   76.50        2958.00           2257         163.00       701.41
   76.53        2958.25           2261         157.00       675.26
   76.56        2958.50           2264         164.00       705.77
   76.59        2958.75           2268         168.00       723.21
   76.62        2959.00           2271         174.00       749.37
   76.65        2959.25           2275         173.00       745.01
   76.68        2959.50           2278         168.00       723.21
   76.71        2959.75           2282         185.00       797.32
   76.75        2960.00           2285         187.00       806.04
   76.78        2960.25           2289         183.00       788.60
   76.81        2960.50           2293         191.00       823.48
   76.84        2960.75           2296         205.00       884.51
   76.87        2961.00           2300         249.00      1076.33
   76.90        2961.25           2303         412.00      1786.94
   76.93        2961.50           2307        1488.00      6478.76
   76.96        2961.75           2310        3121.00     13602.19
   76.99        2962.00           2314        5897.00     25719.52
   77.02        2962.25           2317        8156.00     35587.50
   77.06        2962.50           2321       11227.00     49013.17
   77.09        2962.75           2324       13607.00     59426.40
   77.12        2963.00           2328       16579.00     72440.19
   77.15        2963.25           2331       18752.00     81962.62
   77.18        2963.50           2335       21928.00     95891.47
   77.21        2963.75           2339       24907.00    108968.40
   77.24        2964.00           2342       27699.00    121235.00
   77.27        2964.25           2346       30946.00    135513.50
   77.31        2964.50           2349       33375.00    146204.10
   77.34        2964.75           2353       36552.00    160198.40
   77.37        2965.00           2356       38763.00    169945.60
   77.40        2965.25           2360       41786.00    183282.90
   77.43        2965.50           2363       44070.00    193367.90
   77.46        2965.75           2367       46915.00    205939.60
   77.49        2966.00           2370       49274.00    216371.90
   77.52        2966.25           2374       51833.00    227697.10
   77.55        2966.50           2378       53699.00    235960.90
   77.58        2966.75           2381       53563.00    235358.40
   77.62        2967.00           2385       54220.00    238269.00
   77.65        2967.25           2388       54199.00    238176.00
   77.68        2967.50           2392       53390.00    234592.10
   77.71        2967.75           2395       53308.00    234228.90
   77.74        2968.00           2399       51749.00    227325.20
   77.77        2968.25           2402       49572.00    217690.30
   77.80        2968.50           2406       47405.00    208105.90
   77.83        2968.75           2409       44996.00    197458.50
   77.86        2969.00           2413       41738.00    183071.00
   77.89        2969.25           2417       38981.00    170907.00
   77.92        2969.50           2420       36506.00    159995.70
   77.95        2969.75           2424       33050.00    144773.20
   77.98        2970.00           2427       30534.00    133701.00
   78.01        2970.25           2431       27536.00    120518.60
   78.04        2970.50           2434       25164.00    110097.10
   78.07        2970.75           2438       21738.00     95057.83
   78.10        2971.00           2441       19248.00     84137.03
   78.14        2971.25           2445       16368.00     71515.88
   78.17        2971.50           2449       13104.00     57225.01
   78.20        2971.75           2452       10948.00     47792.95
   78.23        2972.00           2456        7991.00     34866.51
   78.26        2972.25           2459        5759.00     25116.91
   78.29        2972.50           2463        3085.00     13445.12
   78.32        2972.75           2466        1413.00      6151.68
   78.35        2973.00           2470         402.00      1743.35
   78.38        2973.25           2473         259.00      1119.92
   78.41        2973.50           2477         231.00       997.85
   78.44        2973.75           2481         199.00       858.35
   78.47        2974.00           2484         196.00       845.27
   78.50        2974.25           2488         189.00       814.76
   78.53        2974.50           2491         179.00       771.16
   78.56        2974.75           2495         186.00       801.68
   78.59        2975.00           2498         179.00       771.16
   78.62        2975.25           2502         169.00       727.57
   78.66        2975.50           2505         181.00       779.88
   78.69        2975.75           2509         160.00       688.33
   78.72        2976.00           2512         171.00       736.29
   78.75        2976.25           2516         149.00       640.38
   78.78        2976.50           2520         151.00       649.10
   78.81        2976.75           2523         158.00       679.61
   78.84        2977.00           2527         151.00       649.10
   78.87        2977.25           2530         164.00       705.77
   78.90        2977.50           2534         171.00       736.29
   78.93        2977.75           2537         151.00       649.10
   78.96        2978.00           2541         148.00       636.02
   78.99        2978.25           2544         148.00       636.02
   79.02        2978.50           2548         147.00       631.66
   79.05        2978.75           2552         144.00       618.58
   79.09        2979.00           2555         136.00       583.71
   79.12        2979.25           2559         155.00       666.54
   79.15        2979.50           2562         162.00       697.05
   79.18        2979.75           2566         166.00       714.49
   79.21        2980.00           2569         148.00       636.02
   79.24        2980.25           2573         148.00       636.02
   79.27        2980.50           2577         142.00       609.86
   79.30        2980.75           2580         137.00       588.07
   79.33        2981.00           2584         151.00       649.10
   79.37        2981.25           2587         125.00       535.76
   79.40        2981.50           2591         149.00       640.38
   79.43        2981.75           2594         131.00       561.91
   79.46        2982.00           2598         133.00       570.63
   79.49        2982.25           2601         137.00       588.07
   79.52        2982.50           2605         117.00       500.88
   79.55        2982.75           2609         136.00       583.71
   79.58        2983.00           2612         147.00       631.66
   79.61        2983.25           2616         163.00       701.41
   79.64        2983.50           2619         129.00       553.19
   79.67        2983.75           2623         124.00       531.40
   79.70        2984.00           2626         124.00       531.40
HS scan finished at 01:19:55
end
************************************************************
  HS Scan of (1) Internal mercury lamp
************************************************************
Integration time is 0.2294 seconds per sample
dh260817Reading 51.44 .94 3.9pr1000
************************************************************
Dead Time -------------------------  3.4E-08 
Number of Cycles Used -------------  4 
Starting Wavelength (Angstroms) ---  2950 
Final Wavelength (Angstoms) -------  2984 
Wavelength Increment (Angstroms) --  .25 
Filter Wheel #1 Position ---------- (1) Ground quartz diffuser (ND=2.32)
Filter Wheel #2 Position ---------- (1) Neutral Density 0.494



************************************************************
HS scan start time = 20:07:18
Dark Count =  6.9 


Time (GMT)  Wavelength (Ang)  Step Number  Raw Counts  Counts/Second

 1208.20        2950.00           2144         115.00       471.24
 1208.39        2950.25           2147         140.00       580.22
 1208.43        2950.50           2151         155.00       645.61
 1208.46        2950.75           2155         117.00       479.96
 1208.49        2951.00           2158         115.00       471.24
 1208.52        2951.25           2162         114.00       466.88
 1208.55        2951.50           2165         151.00       628.17
 1208.58        2951.75           2169         109.00       445.08
 1208.61        2952.00           2172         122.00       501.75
 1208.64        2952.25           2176         118.00       484.31
 1208.67        2952.50           2179         117.00       479.96
 1208.70        2952.75           2183         125.00       514.83
 1208.73        2953.00           2186         131.00       540.99
 1208.76        2953.25           2190         122.00       501.75
 1208.79        2953.50           2193         115.00       471.24
 1208.82        2953.75           2197         168.00       702.28
 1208.85        2954.00           2200         149.00       619.46
 1208.88        2954.25           2204         144.00       597.66
 1208.91        2954.50           2208         131.00       540.99
 1208.95        2954.75           2211         123.00       506.11
 1208.98        2955.00           2215         128.00       527.91
 1209.01        2955.25           2218         136.00       562.78
 1209.04        2955.50           2222         125.00       514.83
 1209.07        2955.75           2225         119.00       488.67
 1209.10        2956.00           2229         132.00       545.35
 1209.13        2956.25           2232         137.00       567.14
 1209.16        2956.50           2236         161.00       671.77
 1209.19        2956.75           2239         139.00       575.86
 1209.22        2957.00           2243         142.00       588.94
 1209.25        2957.25           2246         136.00       562.78
 1209.28        2957.50           2250         139.00       575.86
 1209.31        2957.75           2254         161.00       671.77
 1209.34        2958.00           2257         132.00       545.35
 1209.37        2958.25           2261         141.00       584.58
 1209.40        2958.50           2264         149.00       619.46
 1209.44        2958.75           2268         150.00       623.81
 1209.47        2959.00           2271         173.00       724.08
 1209.50        2959.25           2275         154.00       641.25
 1209.53        2959.50           2278         160.00       667.41
 1209.56        2959.75           2282         157.00       654.33
 1209.59        2960.00           2285         165.00       689.21
 1209.62        2960.25           2289         162.00       676.13
 1209.65        2960.50           2293         184.00       772.03
 1209.68        2960.75           2296         180.00       754.60
 1209.71        2961.00           2300         271.00      1151.31
 1209.74        2961.25           2303         567.00      2441.79
 1209.77        2961.50           2307        1895.00      8232.91
 1209.80        2961.75           2310        3421.00     14890.28
 1209.83        2962.00           2314        6016.00     26218.22
 1209.86        2962.25           2317        8112.00     35374.26
 1209.89        2962.50           2321       10721.00     46779.23
 1209.92        2962.75           2324       12651.00     55221.72
 1209.96        2963.00           2328       15477.00     67592.38
 1209.99        2963.25           2331       17869.00     78071.40
 1210.02        2963.50           2335       20966.00     91650.02
 1210.05        2963.75           2339       23689.00    103599.20
 1210.08        2964.00           2342       25907.00    113339.60
 1210.11        2964.25           2346       28343.00    124044.70
 1210.14        2964.50           2349       30263.00    132487.80
 1210.17        2964.75           2353       33177.00    145311.20
 1210.20        2965.00           2356       35485.00    155475.80
 1210.23        2965.25           2360       38087.00    166943.60
 1210.26        2965.50           2363       39736.00    174215.90
 1210.29        2965.75           2367       42327.00    185649.90
 1210.32        2966.00           2370       44449.00    195020.80
 1210.35        2966.25           2374       45934.00    201582.20
 1210.38        2966.50           2378       46732.00    205109.40
 1210.41        2966.75           2381       47025.00    206404.60
 1210.44        2967.00           2385       46871.00    205723.90
 1210.47        2967.25           2388       46642.00    204711.50
 1210.51        2967.50           2392       46658.00    204782.30
 1210.54        2967.75           2395       45999.00    201869.50
 1210.57        2968.00           2399       44112.00    193532.20
 1210.60        2968.25           2402       42637.00    187018.50
 1210.63        2968.50           2406       40398.00    177136.40
 1210.66        2968.75           2409       37977.00    166458.60
 1210.69        2969.00           2413       35307.00    154691.60
 1210.72        2969.25           2417       32610.00    142815.20
 1210.75        2969.50           2420       30822.00    134946.90
 1210.78        2969.75           2424       28212.00    123468.90
 1210.81        2970.00           2427       26269.00    114929.90
 1210.84        2970.25           2431       23669.00    103511.40
 1210.87        2970.50           2434       21553.00     94225.09
 1210.90        2970.75           2438       18578.00     81178.85
 1210.93        2971.00           2441       16471.00     71946.05
 1210.96        2971.25           2445       13644.00     59567.34
 1210.99        2971.50           2449       11169.00     48738.50
 1211.03        2971.75           2452        9370.00     40872.36
 1211.06        2972.00           2456        6871.00     29952.46
 1211.09        2972.25           2459        5187.00     22598.44
 1211.12        2972.50           2463        2765.00     12028.02
 1211.15        2972.75           2466        1260.00      5463.53
 1211.18        2973.00           2470         343.00      1465.20
 1211.21        2973.25           2473         208.00       876.66
 1211.24        2973.50           2477         173.00       724.08
 1211.27        2973.75           2481         171.00       715.36
 1211.30        2974.00           2484         155.00       645.61
 1211.33        2974.25           2488         155.00       645.61
 1211.36        2974.50           2491         150.00       623.81
 1211.39        2974.75           2495         148.00       615.10
 1211.42        2975.00           2498         138.00       571.50
 1211.45        2975.25           2502         142.00       588.94
 1211.48        2975.50           2505         133.00       549.71
 1211.51        2975.75           2509         126.00       519.19
 1211.55        2976.00           2512         159.00       663.05
 1211.58        2976.25           2516         117.00       479.96
 1211.61        2976.50           2520         124.00       510.47
 1211.64        2976.75           2523         116.00       475.60
 1211.67        2977.00           2527         107.00       436.36
 1211.70        2977.25           2530         103.00       418.92
 1211.73        2977.50           2534         115.00       471.24
 1211.76        2977.75           2537         149.00       619.46
 1211.79        2978.00           2541          95.00       384.05
 1211.82        2978.25           2544         111.00       453.80
 1211.85        2978.50           2548         128.00       527.91
 1211.88        2978.75           2552         120.00       493.03
 1211.91        2979.00           2555          99.00       401.49
 1211.94        2979.25           2559         140.00       580.22
 1211.97        2979.50           2562         120.00       493.03
 1212.00        2979.75           2566         162.00       676.13
 1212.03        2980.00           2569         122.00       501.75
 1212.07        2980.25           2573          92.00       370.97
 1212.10        2980.50           2577         123.00       506.11
 1212.13        2980.75           2580          95.00       384.05
 1212.16        2981.00           2584         104.00       423.28
 1212.19        2981.25           2587         120.00       493.03
 1212.22        2981.50           2591         111.00       453.80
 1212.25        2981.75           2594         115.00       471.24
 1212.28        2982.00           2598         106.00       432.00
 1212.31        2982.25           2601         117.00       479.96
 1212.34        2982.50           2605         117.00       479.96
 1212.37        2982.75           2609         125.00       514.83
 1212.40        2983.00           2612         100.00       405.85
 1212.43        2983.25           2616         102.00       414.57
 1212.46        2983.50           2619         116.00       475.60
 1212.49        2983.75           2623         136.00       562.78
 1212.52        2984.00           2626         109.00       445.08
HS scan finished at 20:12:45
end
