************************************************************
  HS Scan of (1) Internal mercury lamp
************************************************************
Integration time is 0.2294 seconds per sample
dh200817Reading 51.44 .94 3.23pr1000
************************************************************
Dead Time -------------------------  3.4E-08 
Number of Cycles Used -------------  4 
Starting Wavelength (Angstroms) ---  2950 
Final Wavelength (Angstoms) -------  2984 
Wavelength Increment (Angstroms) --  .25 
Filter Wheel #1 Position ---------- (1) Ground quartz diffuser (ND=2.32)
Filter Wheel #2 Position ---------- (1) Neutral Density 0.494



************************************************************
HS scan start time = 01:19:23
Dark Count =  1.5 


Time (GMT)  Wavelength (Ang)  Step Number  Raw Counts  Counts/Second

   80.28        2950.00           2144         170.00       734.54
   80.48        2950.25           2147         158.00       682.23
   80.51        2950.50           2151         170.00       734.54
   80.54        2950.75           2155         146.00       629.92
   80.57        2951.00           2158         144.00       621.20
   80.60        2951.25           2162         132.00       568.89
   80.63        2951.50           2165         147.00       634.28
   80.66        2951.75           2169         142.00       612.48
   80.69        2952.00           2172         173.00       747.62
   80.72        2952.25           2176         144.00       621.20
   80.75        2952.50           2179         140.00       603.76
   80.78        2952.75           2183         135.00       581.96
   80.81        2953.00           2186         137.00       590.68
   80.84        2953.25           2190         138.00       595.04
   80.87        2953.50           2193         150.00       647.36
   80.90        2953.75           2197         143.00       616.84
   80.93        2954.00           2200         160.00       690.95
   80.96        2954.25           2204         168.00       725.82
   81.00        2954.50           2208         151.00       651.71
   81.03        2954.75           2211         145.00       625.56
   81.06        2955.00           2215         138.00       595.04
   81.09        2955.25           2218         163.00       704.03
   81.12        2955.50           2222         148.00       638.64
   81.15        2955.75           2225         142.00       612.48
   81.18        2956.00           2229         149.00       643.00
   81.21        2956.25           2232         163.00       704.03
   81.24        2956.50           2236         150.00       647.36
   81.27        2956.75           2239         145.00       625.56
   81.30        2957.00           2243         163.00       704.03
   81.33        2957.25           2246         160.00       690.95
   81.36        2957.50           2250         166.00       717.11
   81.39        2957.75           2254         165.00       712.75
   81.42        2958.00           2257         171.00       738.90
   81.45        2958.25           2261         162.00       699.67
   81.48        2958.50           2264         161.00       695.31
   81.52        2958.75           2268         181.00       782.50
   81.55        2959.00           2271         163.00       704.03
   81.58        2959.25           2275         183.00       791.22
   81.61        2959.50           2278         187.00       808.65
   81.64        2959.75           2282         180.00       778.14
   81.67        2960.00           2285         198.00       856.61
   81.70        2960.25           2289         193.00       834.81
   81.73        2960.50           2293         208.00       900.20
   81.76        2960.75           2296         221.00       956.88
   81.79        2961.00           2300         297.00      1288.20
   81.82        2961.25           2303         665.00      2892.61
   81.85        2961.50           2307        2339.00     10193.16
   81.88        2961.75           2310        4193.00     18282.94
   81.91        2962.00           2314        6884.00     30032.83
   81.94        2962.25           2317        9327.00     40708.00
   81.97        2962.50           2321       12583.00     54947.81
   82.01        2962.75           2324       15124.00     66070.22
   82.04        2963.00           2328       18467.00     80715.99
   82.07        2963.25           2331       20706.00     90533.26
   82.10        2963.50           2335       23845.00    104307.80
   82.13        2963.75           2339       27251.00    119268.60
   82.16        2964.00           2342       29942.00    131099.60
   82.19        2964.25           2346       33194.00    145409.80
   82.22        2964.50           2349       35602.00    156015.00
   82.25        2964.75           2353       38549.00    169004.50
   82.28        2965.00           2356       40904.00    179392.90
   82.31        2965.25           2360       43689.00    191687.70
   82.34        2965.50           2363       46481.00    204023.70
   82.37        2965.75           2367       49563.00    217653.10
   82.40        2966.00           2370       51811.00    227602.40
   82.43        2966.25           2374       54091.00    237700.20
   82.46        2966.50           2378       55364.00    243341.10
   82.49        2966.75           2381       55860.00    245539.60
   82.52        2967.00           2385       55792.00    245238.20
   82.56        2967.25           2388       55723.00    244932.30
   82.59        2967.50           2392       55809.00    245313.50
   82.62        2967.75           2395       55119.00    242255.30
   82.65        2968.00           2399       53651.00    235750.90
   82.68        2968.25           2402       51252.00    225127.70
   82.71        2968.50           2406       48468.00    212809.30
   82.74        2968.75           2409       46388.00    203612.60
   82.77        2969.00           2413       42841.00    187943.00
   82.80        2969.25           2417       40155.00    176088.10
   82.83        2969.50           2420       37562.00    164652.90
   82.86        2969.75           2424       34143.00    149588.40
   82.89        2970.00           2427       31847.00    139480.70
   82.92        2970.25           2431       28217.00    123514.60
   82.95        2970.50           2434       26128.00    114334.20
   82.98        2970.75           2438       23363.00    102191.90
   83.01        2971.00           2441       20889.00     91335.96
   83.04        2971.25           2445       17041.00     74466.86
   83.08        2971.50           2449       13523.00     59061.38
   83.11        2971.75           2452       10980.00     47935.52
   83.14        2972.00           2456        7703.00     33610.75
   83.17        2972.25           2459        5480.00     23901.28
   83.20        2972.50           2463        3065.00     13360.47
   83.23        2972.75           2466        1391.00      6058.35
   83.26        2973.00           2470         410.00      1780.84
   83.29        2973.25           2473         262.00      1135.61
   83.32        2973.50           2477         211.00       913.28
   83.35        2973.75           2481         213.00       922.00
   83.38        2974.00           2484         196.00       847.89
   83.41        2974.25           2488         198.00       856.61
   83.44        2974.50           2491         193.00       834.81
   83.47        2974.75           2495         185.00       799.93
   83.50        2975.00           2498         184.00       795.58
   83.53        2975.25           2502         175.00       756.34
   83.56        2975.50           2505         177.00       765.06
   83.60        2975.75           2509         169.00       730.18
   83.63        2976.00           2512         185.00       799.93
   83.66        2976.25           2516         173.00       747.62
   83.69        2976.50           2520         169.00       730.18
   83.72        2976.75           2523         168.00       725.82
   83.75        2977.00           2527         175.00       756.34
   83.78        2977.25           2530         156.00       673.51
   83.81        2977.50           2534         163.00       704.03
   83.84        2977.75           2537         161.00       695.31
   83.87        2978.00           2541         153.00       660.43
   83.90        2978.25           2544         147.00       634.28
   83.93        2978.50           2548         150.00       647.36
   83.96        2978.75           2552         138.00       595.04
   83.99        2979.00           2555         145.00       625.56
   84.02        2979.25           2559         139.00       599.40
   84.05        2979.50           2562         150.00       647.36
   84.08        2979.75           2566         137.00       590.68
   84.12        2980.00           2569         138.00       595.04
   84.15        2980.25           2573         156.00       673.51
   84.18        2980.50           2577         153.00       660.43
   84.21        2980.75           2580         128.00       551.45
   84.24        2981.00           2584         128.00       551.45
   84.27        2981.25           2587         131.00       564.53
   84.30        2981.50           2591         149.00       643.00
   84.33        2981.75           2594         133.00       573.25
   84.37        2982.00           2598         157.00       677.87
   84.41        2982.25           2601         142.00       612.48
   84.44        2982.50           2605         131.00       564.53
   84.47        2982.75           2609         137.00       590.68
   84.50        2983.00           2612         127.00       547.09
   84.53        2983.25           2616         131.00       564.53
   84.56        2983.50           2619         160.00       690.95
   84.59        2983.75           2623         157.00       677.87
   84.62        2984.00           2626         154.00       664.79
HS scan finished at 01:24:50
end
************************************************************
  HS Scan of (1) Internal mercury lamp
************************************************************
Integration time is 0.2294 seconds per sample
dh200817Reading 51.44 .94 3.39pr1000
************************************************************
Dead Time -------------------------  3.4E-08 
Number of Cycles Used -------------  4 
Starting Wavelength (Angstroms) ---  2950 
Final Wavelength (Angstoms) -------  2984 
Wavelength Increment (Angstroms) --  .25 
Filter Wheel #1 Position ---------- (1) Ground quartz diffuser (ND=2.32)
Filter Wheel #2 Position ---------- (1) Neutral Density 0.494



************************************************************
HS scan start time = 20:07:25
Dark Count =  2.2 


Time (GMT)  Wavelength (Ang)  Step Number  Raw Counts  Counts/Second

 1208.32        2950.00           2144         172.00       740.21
 1208.52        2950.25           2147         170.00       731.49
 1208.55        2950.50           2151         169.00       727.13
 1208.58        2950.75           2155         162.00       696.62
 1208.61        2951.00           2158         146.00       626.87
 1208.64        2951.25           2162         144.00       618.15
 1208.67        2951.50           2165         137.00       587.63
 1208.70        2951.75           2169         137.00       587.63
 1208.73        2952.00           2172         130.00       557.12
 1208.76        2952.25           2176         148.00       635.58
 1208.79        2952.50           2179         137.00       587.63
 1208.82        2952.75           2183         136.00       583.27
 1208.85        2953.00           2186         129.00       552.76
 1208.88        2953.25           2190         139.00       596.35
 1208.91        2953.50           2193         148.00       635.58
 1208.94        2953.75           2197         144.00       618.15
 1208.97        2954.00           2200         159.00       683.54
 1209.00        2954.25           2204         150.00       644.30
 1209.04        2954.50           2208         161.00       692.26
 1209.07        2954.75           2211         148.00       635.58
 1209.10        2955.00           2215         154.00       661.74
 1209.13        2955.25           2218         160.00       687.90
 1209.16        2955.50           2222         150.00       644.30
 1209.19        2955.75           2225         151.00       648.66
 1209.22        2956.00           2229         143.00       613.79
 1209.25        2956.25           2232         150.00       644.30
 1209.28        2956.50           2236         164.00       705.34
 1209.31        2956.75           2239         164.00       705.34
 1209.34        2957.00           2243         162.00       696.62
 1209.37        2957.25           2246         151.00       648.66
 1209.40        2957.50           2250         162.00       696.62
 1209.43        2957.75           2254         159.00       683.54
 1209.46        2958.00           2257         172.00       740.21
 1209.49        2958.25           2261         174.00       748.93
 1209.52        2958.50           2264         172.00       740.21
 1209.55        2958.75           2268         174.00       748.93
 1209.59        2959.00           2271         176.00       757.65
 1209.62        2959.25           2275         177.00       762.01
 1209.65        2959.50           2278         170.00       731.49
 1209.68        2959.75           2282         180.00       775.09
 1209.71        2960.00           2285         192.00       827.40
 1209.74        2960.25           2289         204.00       879.71
 1209.77        2960.50           2293         210.00       905.87
 1209.80        2960.75           2296         211.00       910.23
 1209.83        2961.00           2300         284.00      1228.47
 1209.86        2961.25           2303         582.00      2527.68
 1209.89        2961.50           2307        2245.00      9780.06
 1209.92        2961.75           2310        4218.00     18389.00
 1209.95        2962.00           2314        6998.00     30527.75
 1209.98        2962.25           2317        9146.00     39913.76
 1210.01        2962.50           2321       12045.00     52590.90
 1210.04        2962.75           2324       14264.00     62301.84
 1210.07        2963.00           2328       17296.00     75581.07
 1210.11        2963.25           2331       19700.00     86118.41
 1210.14        2963.50           2335       23271.00    101785.00
 1210.17        2963.75           2339       26573.00    116286.20
 1210.20        2964.00           2342       29319.00    128356.70
 1210.23        2964.25           2346       32772.00    143549.00
 1210.26        2964.50           2349       34821.00    152571.40
 1210.29        2964.75           2353       37884.00    166069.30
 1210.32        2965.00           2356       40032.00    175542.40
 1210.35        2965.25           2360       43461.00    190677.70
 1210.38        2965.50           2363       45477.00    199583.40
 1210.41        2965.75           2367       48716.00    213903.10
 1210.44        2966.00           2370       50774.00    223008.90
 1210.47        2966.25           2374       53457.00    234888.50
 1210.50        2966.50           2378       55055.00    241968.60
 1210.53        2966.75           2381       55288.00    243001.20
 1210.56        2967.00           2385       55294.00    243027.80
 1210.59        2967.25           2388       55527.00    244060.50
 1210.63        2967.50           2392       55112.00    242221.20
 1210.66        2967.75           2395       54682.00    240315.70
 1210.69        2968.00           2399       53612.00    235575.10
 1210.72        2968.25           2402       51768.00    227408.90
 1210.75        2968.50           2406       48814.00    214336.60
 1210.78        2968.75           2409       46580.00    204458.20
 1210.81        2969.00           2413       42686.00    187255.60
 1210.84        2969.25           2417       39341.00    172494.30
 1210.87        2969.50           2420       36796.00    161273.40
 1210.90        2969.75           2424       33464.00    146595.50
 1210.93        2970.00           2427       31204.00    136648.20
 1210.96        2970.25           2431       27649.00    121014.80
 1210.99        2970.50           2434       25157.00    110065.90
 1211.02        2970.75           2438       21976.00     96101.64
 1211.05        2971.00           2441       19556.00     85487.00
 1211.08        2971.25           2445       16340.00     71392.79
 1211.11        2971.50           2449       13173.00     57526.53
 1211.15        2971.75           2452       11064.00     48299.83
 1211.18        2972.00           2456        8284.00     36146.40
 1211.21        2972.25           2459        5892.00     25697.25
 1211.24        2972.50           2463        2803.00     12214.31
 1211.27        2972.75           2466        1272.00      5536.35
 1211.30        2973.00           2470         393.00      1703.67
 1211.33        2973.25           2473         296.00      1280.79
 1211.36        2973.50           2477         221.00       953.82
 1211.39        2973.75           2481         199.00       857.92
 1211.42        2974.00           2484         193.00       831.76
 1211.45        2974.25           2488         187.00       805.60
 1211.48        2974.50           2491         194.00       836.12
 1211.51        2974.75           2495         168.00       722.77
 1211.54        2975.00           2498         178.00       766.37
 1211.57        2975.25           2502         168.00       722.77
 1211.60        2975.50           2505         178.00       766.37
 1211.63        2975.75           2509         160.00       687.90
 1211.67        2976.00           2512         161.00       692.26
 1211.70        2976.25           2516         160.00       687.90
 1211.73        2976.50           2520         165.00       709.69
 1211.76        2976.75           2523         161.00       692.26
 1211.79        2977.00           2527         150.00       644.30
 1211.82        2977.25           2530         154.00       661.74
 1211.85        2977.50           2534         174.00       748.93
 1211.88        2977.75           2537         157.00       674.82
 1211.91        2978.00           2541         140.00       600.71
 1211.94        2978.25           2544         156.00       670.46
 1211.97        2978.50           2548         143.00       613.79
 1212.00        2978.75           2552         155.00       666.10
 1212.03        2979.00           2555         148.00       635.58
 1212.06        2979.25           2559         141.00       605.07
 1212.09        2979.50           2562         164.00       705.34
 1212.12        2979.75           2566         160.00       687.90
 1212.15        2980.00           2569         129.00       552.76
 1212.19        2980.25           2573         153.00       657.38
 1212.22        2980.50           2577         138.00       591.99
 1212.25        2980.75           2580         145.00       622.51
 1212.28        2981.00           2584         138.00       591.99
 1212.31        2981.25           2587         145.00       622.51
 1212.34        2981.50           2591         121.00       517.88
 1212.37        2981.75           2594         160.00       687.90
 1212.40        2982.00           2598         130.00       557.12
 1212.43        2982.25           2601         143.00       613.79
 1212.46        2982.50           2605         143.00       613.79
 1212.49        2982.75           2609         120.00       513.52
 1212.52        2983.00           2612         120.00       513.52
 1212.55        2983.25           2616         123.00       526.60
 1212.58        2983.50           2619         133.00       570.19
 1212.61        2983.75           2623         135.00       578.91
 1212.64        2984.00           2626         123.00       526.60
HS scan finished at 20:12:52
end
