************************************************************
  HS Scan of (1) Internal mercury lamp
************************************************************
Integration time is 0.2294 seconds per sample
dh240817Reading 51.44 .94 3.31pr1000
************************************************************
Dead Time -------------------------  3.4E-08 
Number of Cycles Used -------------  4 
Starting Wavelength (Angstroms) ---  2950 
Final Wavelength (Angstoms) -------  2984 
Wavelength Increment (Angstroms) --  .25 
Filter Wheel #1 Position ---------- (1) Ground quartz diffuser (ND=2.32)
Filter Wheel #2 Position ---------- (1) Neutral Density 0.494



************************************************************
HS scan start time = 01:10:15
Dark Count =  1.7 


Time (GMT)  Wavelength (Ang)  Step Number  Raw Counts  Counts/Second

   71.14        2950.00           2144         148.00       637.76
   71.34        2950.25           2147         150.00       646.48
   71.37        2950.50           2151         153.00       659.56
   71.40        2950.75           2155         144.00       620.33
   71.43        2951.00           2158         157.00       677.00
   71.46        2951.25           2162         140.00       602.89
   71.49        2951.50           2165         169.00       729.31
   71.52        2951.75           2169         161.00       694.44
   71.55        2952.00           2172         135.00       581.09
   71.58        2952.25           2176         149.00       642.12
   71.61        2952.50           2179         142.00       611.61
   71.64        2952.75           2183         132.00       568.01
   71.67        2953.00           2186         140.00       602.89
   71.71        2953.25           2190         158.00       681.36
   71.74        2953.50           2193         159.00       685.72
   71.77        2953.75           2197         144.00       620.33
   71.80        2954.00           2200         135.00       581.09
   71.83        2954.25           2204         142.00       611.61
   71.86        2954.50           2208         157.00       677.00
   71.89        2954.75           2211         155.00       668.28
   71.92        2955.00           2215         169.00       729.31
   71.95        2955.25           2218         154.00       663.92
   71.98        2955.50           2222         146.00       629.05
   72.01        2955.75           2225         155.00       668.28
   72.04        2956.00           2229         149.00       642.12
   72.07        2956.25           2232         160.00       690.08
   72.10        2956.50           2236         153.00       659.56
   72.13        2956.75           2239         182.00       785.98
   72.16        2957.00           2243         154.00       663.92
   72.19        2957.25           2246         151.00       650.84
   72.23        2957.50           2250         157.00       677.00
   72.26        2957.75           2254         156.00       672.64
   72.29        2958.00           2257         167.00       720.59
   72.32        2958.25           2261         170.00       733.67
   72.35        2958.50           2264         160.00       690.08
   72.38        2958.75           2268         173.00       746.75
   72.41        2959.00           2271         174.00       751.11
   72.44        2959.25           2275         181.00       781.63
   72.47        2959.50           2278         190.00       820.86
   72.50        2959.75           2282         176.00       759.83
   72.53        2960.00           2285         183.00       790.34
   72.56        2960.25           2289         189.00       816.50
   72.59        2960.50           2293         197.00       851.38
   72.62        2960.75           2296         197.00       851.38
   72.65        2961.00           2300         251.00      1086.79
   72.68        2961.25           2303         609.00      2647.58
   72.71        2961.50           2307        2116.00      9219.54
   72.75        2961.75           2310        3810.00     16610.51
   72.78        2962.00           2314        6612.00     28843.88
   72.81        2962.25           2317        8786.00     38342.46
   72.84        2962.50           2321       11888.00     51906.26
   72.87        2962.75           2324       14268.00     62321.55
   72.90        2963.00           2328       17686.00     77292.22
   72.93        2963.25           2331       20215.00     88378.96
   72.96        2963.50           2335       23134.00    101185.80
   72.99        2963.75           2339       26299.00    115084.60
   73.02        2964.00           2342       28362.00    124151.10
   73.05        2964.25           2346       32114.00    140654.90
   73.08        2964.50           2349       34386.00    150657.70
   73.11        2964.75           2353       37539.00    164550.60
   73.14        2965.00           2356       39564.00    173480.10
   73.17        2965.25           2360       41978.00    184132.20
   73.20        2965.50           2363       44656.00    195958.20
   73.23        2965.75           2367       47742.00    209597.80
   73.27        2966.00           2370       49845.00    218900.00
   73.30        2966.25           2374       52317.00    229841.90
   73.33        2966.50           2378       53945.00    237052.50
   73.36        2966.75           2381       54152.00    237969.50
   73.39        2967.00           2385       54105.00    237761.30
   73.42        2967.25           2388       54185.00    238115.70
   73.45        2967.50           2392       53407.00    234669.20
   73.48        2967.75           2395       54019.00    237380.30
   73.51        2968.00           2399       52320.00    229855.20
   73.54        2968.25           2402       50494.00    221771.90
   73.57        2968.50           2406       47424.00    208191.70
   73.60        2968.75           2409       45098.00    197911.00
   73.63        2969.00           2413       42420.00    186083.40
   73.66        2969.25           2417       39519.00    173281.60
   73.69        2969.50           2420       37180.00    162968.10
   73.72        2969.75           2424       33492.00    146721.00
   73.75        2970.00           2427       31390.00    137468.90
   73.78        2970.25           2431       27828.00    121803.70
   73.82        2970.50           2434       25368.00    110994.80
   73.85        2970.75           2438       21985.00     96143.33
   73.88        2971.00           2441       19341.00     84546.52
   73.91        2971.25           2445       16246.00     70983.23
   73.94        2971.50           2449       12812.00     55948.97
   73.97        2971.75           2452       10528.00     45957.99
   74.00        2972.00           2456        7483.00     32648.69
   74.03        2972.25           2459        5249.00     22891.83
   74.06        2972.50           2463        2775.00     12094.34
   74.09        2972.75           2466        1410.00      6140.34
   74.12        2973.00           2470         452.00      1963.08
   74.15        2973.25           2473         247.00      1069.35
   74.18        2973.50           2477         206.00       890.61
   74.21        2973.75           2481         206.00       890.61
   74.24        2974.00           2484         189.00       816.50
   74.27        2974.25           2488         195.00       842.66
   74.30        2974.50           2491         192.00       829.58
   74.34        2974.75           2495         182.00       785.98
   74.37        2975.00           2498         182.00       785.98
   74.40        2975.25           2502         179.00       772.91
   74.43        2975.50           2505         178.00       768.55
   74.46        2975.75           2509         173.00       746.75
   74.49        2976.00           2512         160.00       690.08
   74.53        2976.25           2516         160.00       690.08
   74.56        2976.50           2520         143.00       615.97
   74.59        2976.75           2523         158.00       681.36
   74.62        2977.00           2527         148.00       637.76
   74.65        2977.25           2530         158.00       681.36
   74.68        2977.50           2534         151.00       650.84
   74.71        2977.75           2537         146.00       629.05
   74.74        2978.00           2541         151.00       650.84
   74.77        2978.25           2544         154.00       663.92
   74.80        2978.50           2548         160.00       690.08
   74.83        2978.75           2552         164.00       707.51
   74.86        2979.00           2555         159.00       685.72
   74.89        2979.25           2559         163.00       703.16
   74.92        2979.50           2562         143.00       615.97
   74.95        2979.75           2566         132.00       568.01
   74.98        2980.00           2569         149.00       642.12
   75.01        2980.25           2573         153.00       659.56
   75.05        2980.50           2577         141.00       607.25
   75.08        2980.75           2580         146.00       629.05
   75.11        2981.00           2584         146.00       629.05
   75.14        2981.25           2587         140.00       602.89
   75.17        2981.50           2591         134.00       576.73
   75.20        2981.75           2594         120.00       515.70
   75.23        2982.00           2598         134.00       576.73
   75.26        2982.25           2601         123.00       528.78
   75.29        2982.50           2605         125.00       537.50
   75.32        2982.75           2609         135.00       581.09
   75.35        2983.00           2612         122.00       524.42
   75.38        2983.25           2616         137.00       589.81
   75.41        2983.50           2619         147.00       633.41
   75.44        2983.75           2623         169.00       729.31
   75.47        2984.00           2626         138.00       594.17
HS scan finished at 01:15:42
end
************************************************************
  HS Scan of (1) Internal mercury lamp
************************************************************
Integration time is 0.2294 seconds per sample
dh240817Reading 51.44 .94 3.62pr1000
************************************************************
Dead Time -------------------------  3.4E-08 
Number of Cycles Used -------------  4 
Starting Wavelength (Angstroms) ---  2950 
Final Wavelength (Angstoms) -------  2984 
Wavelength Increment (Angstroms) --  .25 
Filter Wheel #1 Position ---------- (1) Ground quartz diffuser (ND=2.32)
Filter Wheel #2 Position ---------- (1) Neutral Density 0.494



************************************************************
HS scan start time = 20:07:15
Dark Count =  4.6 


Time (GMT)  Wavelength (Ang)  Step Number  Raw Counts  Counts/Second

 1208.15        2950.00           2144         118.00       494.34
 1208.34        2950.25           2147         115.00       481.26
 1208.37        2950.50           2151         129.00       542.29
 1208.40        2950.75           2155         111.00       463.83
 1208.43        2951.00           2158         128.00       537.93
 1208.46        2951.25           2162         143.00       603.33
 1208.50        2951.50           2165         140.00       590.25
 1208.53        2951.75           2169         126.00       529.22
 1208.56        2952.00           2172         131.00       551.01
 1208.59        2952.25           2176         117.00       489.98
 1208.62        2952.50           2179         140.00       590.25
 1208.65        2952.75           2183         135.00       568.45
 1208.68        2953.00           2186         143.00       603.33
 1208.71        2953.25           2190         133.00       559.73
 1208.74        2953.50           2193         123.00       516.14
 1208.77        2953.75           2197         130.00       546.65
 1208.80        2954.00           2200         161.00       681.79
 1208.83        2954.25           2204         130.00       546.65
 1208.86        2954.50           2208         175.00       742.83
 1208.89        2954.75           2211         143.00       603.33
 1208.92        2955.00           2215         129.00       542.29
 1208.95        2955.25           2218         151.00       638.20
 1208.98        2955.50           2222         139.00       585.89
 1209.02        2955.75           2225         123.00       516.14
 1209.05        2956.00           2229         139.00       585.89
 1209.08        2956.25           2232         165.00       699.23
 1209.11        2956.50           2236         137.00       577.17
 1209.14        2956.75           2239         147.00       620.76
 1209.17        2957.00           2243         157.00       664.36
 1209.20        2957.25           2246         126.00       529.22
 1209.23        2957.50           2250         145.00       612.04
 1209.26        2957.75           2254         150.00       633.84
 1209.29        2958.00           2257         153.00       646.92
 1209.32        2958.25           2261         148.00       625.12
 1209.35        2958.50           2264         134.00       564.09
 1209.38        2958.75           2268         159.00       673.08
 1209.41        2959.00           2271         168.00       712.31
 1209.44        2959.25           2275         158.00       668.72
 1209.47        2959.50           2278         152.00       642.56
 1209.50        2959.75           2282         157.00       664.36
 1209.54        2960.00           2285         146.00       616.40
 1209.57        2960.25           2289         165.00       699.23
 1209.60        2960.50           2293         174.00       738.47
 1209.63        2960.75           2296         174.00       738.47
 1209.66        2961.00           2300         253.00      1082.86
 1209.70        2961.25           2303         490.00      2116.11
 1209.73        2961.50           2307        1962.00      8535.17
 1209.76        2961.75           2310        3408.00     14843.58
 1209.79        2962.00           2314        5519.00     24058.03
 1209.82        2962.25           2317        7397.00     32260.30
 1209.85        2962.50           2321       10069.00     43938.31
 1209.88        2962.75           2324       12022.00     52479.78
 1209.91        2963.00           2328       14689.00     64151.99
 1209.94        2963.25           2331       16740.00     73134.55
 1209.97        2963.50           2335       19204.00     83933.16
 1210.00        2963.75           2339       21968.00     96056.01
 1210.03        2964.00           2342       24279.00    106199.70
 1210.06        2964.25           2346       27245.00    119228.70
 1210.09        2964.50           2349       29259.00    128082.30
 1210.12        2964.75           2353       31906.00    139726.80
 1210.15        2965.00           2356       33860.00    148328.60
 1210.18        2965.25           2360       36472.00    159834.90
 1210.21        2965.50           2363       38443.00    168523.40
 1210.25        2965.75           2367       40952.00    179591.10
 1210.28        2966.00           2370       42592.00    186829.90
 1210.31        2966.25           2374       44809.00    196621.30
 1210.34        2966.50           2378       45962.00    201716.10
 1210.37        2966.75           2381       45845.00    201199.00
 1210.40        2967.00           2385       45322.00    198887.90
 1210.43        2967.25           2388       45512.00    199727.50
 1210.46        2967.50           2392       45540.00    199851.20
 1210.49        2967.75           2395       45269.00    198653.70
 1210.52        2968.00           2399       43404.00    190415.40
 1210.55        2968.25           2402       41901.00    183779.50
 1210.58        2968.50           2406       39714.00    174129.00
 1210.61        2968.75           2409       37759.00    165507.60
 1210.64        2969.00           2413       35332.00    154811.90
 1210.67        2969.25           2417       32936.00    144260.30
 1210.70        2969.50           2420       31100.00    136180.10
 1210.73        2969.75           2424       27986.00    122485.50
 1210.77        2970.00           2427       26172.00    114513.90
 1210.80        2970.25           2431       23183.00    101388.10
 1210.83        2970.50           2434       20895.00     91348.66
 1210.86        2970.75           2438       18513.00     80904.03
 1210.89        2971.00           2441       16745.00     73156.46
 1210.92        2971.25           2445       14164.00     61853.57
 1210.95        2971.50           2449       11431.00     49894.51
 1210.98        2971.75           2452        9335.00     40729.43
 1211.01        2972.00           2456        6676.00     29110.75
 1211.04        2972.25           2459        4943.00     21543.24
 1211.07        2972.50           2463        2732.00     11894.09
 1211.10        2972.75           2466        1392.00      6049.20
 1211.13        2973.00           2470         434.00      1871.96
 1211.16        2973.25           2473         256.00      1095.94
 1211.19        2973.50           2477         189.00       803.86
 1211.22        2973.75           2481         175.00       742.83
 1211.25        2974.00           2484         178.00       755.90
 1211.29        2974.25           2488         156.00       660.00
 1211.32        2974.50           2491         157.00       664.36
 1211.35        2974.75           2495         167.00       707.95
 1211.39        2975.00           2498         151.00       638.20
 1211.42        2975.25           2502         162.00       686.15
 1211.45        2975.50           2505         150.00       633.84
 1211.48        2975.75           2509         163.00       690.51
 1211.51        2976.00           2512         151.00       638.20
 1211.55        2976.25           2516         127.00       533.58
 1211.58        2976.50           2520         146.00       616.40
 1211.61        2976.75           2523         134.00       564.09
 1211.64        2977.00           2527         128.00       537.93
 1211.67        2977.25           2530         133.00       559.73
 1211.70        2977.50           2534         124.00       520.50
 1211.73        2977.75           2537         125.00       524.86
 1211.76        2978.00           2541         141.00       594.61
 1211.79        2978.25           2544         126.00       529.22
 1211.82        2978.50           2548         137.00       577.17
 1211.85        2978.75           2552         116.00       485.62
 1211.88        2979.00           2555         116.00       485.62
 1211.91        2979.25           2559         120.00       503.06
 1211.94        2979.50           2562         119.00       498.70
 1211.97        2979.75           2566         125.00       524.86
 1212.00        2980.00           2569         167.00       707.95
 1212.03        2980.25           2573         136.00       572.81
 1212.07        2980.50           2577         140.00       590.25
 1212.10        2980.75           2580         139.00       585.89
 1212.13        2981.00           2584         115.00       481.26
 1212.16        2981.25           2587         134.00       564.09
 1212.19        2981.50           2591         132.00       555.37
 1212.22        2981.75           2594         110.00       459.47
 1212.25        2982.00           2598         115.00       481.26
 1212.28        2982.25           2601         115.00       481.26
 1212.31        2982.50           2605         114.00       476.90
 1212.34        2982.75           2609         101.00       420.23
 1212.37        2983.00           2612         106.00       442.03
 1212.40        2983.25           2616         126.00       529.22
 1212.43        2983.50           2619         122.00       511.78
 1212.46        2983.75           2623         113.00       472.54
 1212.49        2984.00           2626         133.00       559.73
HS scan finished at 20:12:43
end
