************************************************************
  HS Scan of (1) Internal mercury lamp
************************************************************
Integration time is 0.2294 seconds per sample
dh200818Reading 51.44 .94 3.7pr1000
************************************************************
Dead Time -------------------------  3.4E-08 
Number of Cycles Used -------------  4 
Starting Wavelength (Angstroms) ---  2950 
Final Wavelength (Angstoms) -------  2984 
Wavelength Increment (Angstroms) --  .25 
Filter Wheel #1 Position ---------- (1) Ground quartz diffuser (ND=2.32)
Filter Wheel #2 Position ---------- (1) Neutral Density 0.494



************************************************************
HS scan start time = 01:19:31
Dark Count =  3.3 


Time (GMT)  Wavelength (Ang)  Step Number  Raw Counts  Counts/Second

   80.42        2950.00           2144         128.00       543.60
   80.61        2950.25           2147         143.00       608.99
   80.64        2950.50           2151         100.00       421.54
   80.67        2950.75           2155         129.00       547.96
   80.70        2951.00           2158         110.00       465.13
   80.73        2951.25           2162         102.00       430.26
   80.76        2951.50           2165         122.00       517.45
   80.79        2951.75           2169         138.00       587.20
   80.82        2952.00           2172         106.00       447.70
   80.85        2952.25           2176         109.00       460.77
   80.88        2952.50           2179         120.00       508.73
   80.91        2952.75           2183         124.00       526.16
   80.95        2953.00           2186         134.00       569.76
   80.98        2953.25           2190         109.00       460.77
   81.01        2953.50           2193         154.00       656.95
   81.04        2953.75           2197         111.00       469.49
   81.07        2954.00           2200         138.00       587.20
   81.10        2954.25           2204         143.00       608.99
   81.13        2954.50           2208         124.00       526.16
   81.16        2954.75           2211         109.00       460.77
   81.19        2955.00           2215         118.00       500.01
   81.22        2955.25           2218         170.00       726.70
   81.25        2955.50           2222         127.00       539.24
   81.28        2955.75           2225         125.00       530.52
   81.31        2956.00           2229         141.00       600.27
   81.34        2956.25           2232         124.00       526.16
   81.37        2956.50           2236         139.00       591.56
   81.40        2956.75           2239         122.00       517.45
   81.43        2957.00           2243         159.00       678.74
   81.46        2957.25           2246         123.00       521.81
   81.50        2957.50           2250         158.00       674.38
   81.53        2957.75           2254         195.00       835.68
   81.56        2958.00           2257         148.00       630.79
   81.59        2958.25           2261         182.00       779.01
   81.62        2958.50           2264         158.00       674.38
   81.65        2958.75           2268         145.00       617.71
   81.68        2959.00           2271         146.00       622.07
   81.71        2959.25           2275         152.00       648.23
   81.74        2959.50           2278         154.00       656.95
   81.77        2959.75           2282         147.00       626.43
   81.80        2960.00           2285         156.00       665.66
   81.83        2960.25           2289         162.00       691.82
   81.86        2960.50           2293         174.00       744.13
   81.89        2960.75           2296         162.00       691.82
   81.92        2961.00           2300         268.00      1153.93
   81.95        2961.25           2303         640.00      2775.76
   81.98        2961.50           2307        2427.00     10569.19
   82.02        2961.75           2310        4541.00     19794.05
   82.05        2962.00           2314        7268.00     31702.42
   82.08        2962.25           2317        9261.00     40411.64
   82.11        2962.50           2321       12339.00     53872.35
   82.14        2962.75           2324       14423.00     62993.10
   82.17        2963.00           2328       17369.00     75896.11
   82.20        2963.25           2331       19682.00     86034.64
   82.23        2963.50           2335       22978.00    100494.10
   82.26        2963.75           2339       26317.00    115156.60
   82.29        2964.00           2342       28837.00    126232.40
   82.32        2964.25           2346       31688.00    138773.10
   82.35        2964.50           2349       33837.00    148233.00
   82.38        2964.75           2353       36844.00    161480.10
   82.41        2965.00           2356       38962.00    170817.90
   82.44        2965.25           2360       41954.00    184019.20
   82.47        2965.50           2363       43765.00    192015.40
   82.50        2965.75           2367       47561.00    208790.40
   82.54        2966.00           2370       49130.00    215729.60
   82.57        2966.25           2374       51090.00    224402.60
   82.60        2966.50           2378       52784.00    231902.80
   82.63        2966.75           2381       53504.00    235091.80
   82.66        2967.00           2385       53145.00    233501.70
   82.69        2967.25           2388       53277.00    234086.30
   82.72        2967.50           2392       53174.00    233630.10
   82.75        2967.75           2395       52910.00    232460.80
   82.78        2968.00           2399       51355.00    225575.70
   82.81        2968.25           2402       49437.00    217087.70
   82.84        2968.50           2406       46712.00    205036.90
   82.87        2968.75           2409       44307.00    194409.40
   82.90        2969.00           2413       40746.00    178687.80
   82.93        2969.25           2417       37301.00    163494.40
   82.96        2969.50           2420       34809.00    152513.80
   82.99        2969.75           2424       31910.00    139750.10
   83.02        2970.00           2427       29691.00    129987.80
   83.06        2970.25           2431       26335.00    115235.70
   83.09        2970.50           2434       23908.00    104576.50
   83.12        2970.75           2438       20393.00     89152.56
   83.15        2971.00           2441       18148.00     79309.91
   83.18        2971.25           2445       15214.00     66456.45
   83.21        2971.50           2449       12383.00     54064.86
   83.24        2971.75           2452       10300.00     44954.01
   83.27        2972.00           2456        7276.00     31737.37
   83.30        2972.25           2459        5050.00     22016.04
   83.33        2972.50           2463        2368.00     10311.81
   83.36        2972.75           2466        1044.00      4537.32
   83.39        2973.00           2470         338.00      1459.10
   83.42        2973.25           2473         214.00       918.51
   83.45        2973.50           2477         216.00       927.23
   83.48        2973.75           2481         185.00       792.09
   83.51        2974.00           2484         165.00       704.90
   83.54        2974.25           2488         167.00       713.62
   83.58        2974.50           2491         158.00       674.38
   83.61        2974.75           2495         150.00       639.51
   83.64        2975.00           2498         171.00       731.06
   83.67        2975.25           2502         152.00       648.23
   83.70        2975.50           2505         164.00       700.54
   83.73        2975.75           2509         134.00       569.76
   83.76        2976.00           2512         157.00       670.02
   83.79        2976.25           2516         125.00       530.52
   83.82        2976.50           2520         142.00       604.63
   83.86        2976.75           2523         135.00       574.12
   83.89        2977.00           2527         132.00       561.04
   83.92        2977.25           2530         123.00       521.81
   83.95        2977.50           2534         122.00       517.45
   83.98        2977.75           2537         122.00       517.45
   84.01        2978.00           2541         121.00       513.09
   84.04        2978.25           2544         138.00       587.20
   84.07        2978.50           2548         118.00       500.01
   84.10        2978.75           2552         136.00       578.48
   84.13        2979.00           2555         149.00       635.15
   84.16        2979.25           2559         103.00       434.62
   84.19        2979.50           2562         109.00       460.77
   84.22        2979.75           2566         122.00       517.45
   84.25        2980.00           2569         125.00       530.52
   84.28        2980.25           2573         119.00       504.37
   84.32        2980.50           2577         104.00       438.98
   84.35        2980.75           2580         111.00       469.49
   84.38        2981.00           2584         119.00       504.37
   84.41        2981.25           2587          94.00       395.38
   84.44        2981.50           2591         103.00       434.62
   84.47        2981.75           2594         123.00       521.81
   84.50        2982.00           2598         127.00       539.24
   84.53        2982.25           2601         121.00       513.09
   84.56        2982.50           2605          92.00       386.67
   84.59        2982.75           2609          95.00       399.74
   84.62        2983.00           2612         100.00       421.54
   84.65        2983.25           2616         116.00       491.29
   84.68        2983.50           2619          87.00       364.87
   84.71        2983.75           2623          96.00       404.10
   84.74        2984.00           2626          99.00       417.18
HS scan finished at 01:24:58
end
************************************************************
  HS Scan of (1) Internal mercury lamp
************************************************************
Integration time is 0.2294 seconds per sample
dh200818Reading 51.44 .94 3.9pr1000
************************************************************
Dead Time -------------------------  3.4E-08 
Number of Cycles Used -------------  4 
Starting Wavelength (Angstroms) ---  2950 
Final Wavelength (Angstoms) -------  2984 
Wavelength Increment (Angstroms) --  .25 
Filter Wheel #1 Position ---------- (1) Ground quartz diffuser (ND=2.32)
Filter Wheel #2 Position ---------- (1) Neutral Density 0.494



************************************************************
HS scan start time = 20:07:30
Dark Count =  6.5 


Time (GMT)  Wavelength (Ang)  Step Number  Raw Counts  Counts/Second

 1208.41        2950.00           2144          59.00       228.86
 1208.60        2950.25           2147          67.00       263.73
 1208.63        2950.50           2151          65.00       255.02
 1208.66        2950.75           2155          61.00       237.58
 1208.69        2951.00           2158          67.00       263.73
 1208.72        2951.25           2162          51.00       193.99
 1208.75        2951.50           2165          64.00       250.66
 1208.78        2951.75           2169          63.00       246.30
 1208.81        2952.00           2172          56.00       215.78
 1208.84        2952.25           2176          70.00       276.81
 1208.87        2952.50           2179          66.00       259.37
 1208.91        2952.75           2183          61.00       237.58
 1208.94        2953.00           2186          67.00       263.73
 1208.97        2953.25           2190          62.00       241.94
 1209.00        2953.50           2193          63.00       246.30
 1209.03        2953.75           2197          67.00       263.73
 1209.06        2954.00           2200          61.00       237.58
 1209.09        2954.25           2204          66.00       259.37
 1209.12        2954.50           2208          67.00       263.73
 1209.15        2954.75           2211          78.00       311.69
 1209.18        2955.00           2215          63.00       246.30
 1209.21        2955.25           2218          67.00       263.73
 1209.24        2955.50           2222          73.00       289.89
 1209.27        2955.75           2225          67.00       263.73
 1209.30        2956.00           2229          64.00       250.66
 1209.33        2956.25           2232          77.00       307.33
 1209.36        2956.50           2236          75.00       298.61
 1209.39        2956.75           2239          71.00       281.17
 1209.42        2957.00           2243          70.00       276.81
 1209.46        2957.25           2246          74.00       294.25
 1209.49        2957.50           2250          77.00       307.33
 1209.52        2957.75           2254          73.00       289.89
 1209.55        2958.00           2257          67.00       263.73
 1209.58        2958.25           2261          72.00       285.53
 1209.61        2958.50           2264          86.00       346.56
 1209.64        2958.75           2268          85.00       342.20
 1209.67        2959.00           2271          82.00       329.12
 1209.70        2959.25           2275          93.00       377.08
 1209.73        2959.50           2278          94.00       381.43
 1209.76        2959.75           2282          88.00       355.28
 1209.79        2960.00           2285          96.00       390.15
 1209.82        2960.25           2289          91.00       368.36
 1209.85        2960.50           2293         105.00       429.39
 1209.88        2960.75           2296         101.00       411.95
 1209.91        2961.00           2300         160.00       669.15
 1209.94        2961.25           2303         370.00      1584.65
 1209.98        2961.50           2307        1139.00      4937.62
 1210.01        2961.75           2310        2143.00      9316.38
 1210.04        2962.00           2314        3777.00     16445.55
 1210.07        2962.25           2317        4912.00     21399.61
 1210.10        2962.50           2321        6431.00     28032.37
 1210.13        2962.75           2324        7591.00     33099.57
 1210.16        2963.00           2328        9295.00     40546.27
 1210.19        2963.25           2331       10556.00     46059.44
 1210.22        2963.50           2335       12337.00     53849.60
 1210.25        2963.75           2339       14105.00     61586.98
 1210.28        2964.00           2342       15555.00     67935.74
 1210.31        2964.25           2346       17189.00     75093.41
 1210.34        2964.50           2349       18299.00     79957.71
 1210.37        2964.75           2353       20816.00     90993.82
 1210.40        2965.00           2356       22440.00     98118.84
 1210.43        2965.25           2360       23828.00    104211.20
 1210.46        2965.50           2363       25501.00    111557.90
 1210.50        2965.75           2367       27114.00    118644.60
 1210.53        2966.00           2370       28590.00    125132.40
 1210.56        2966.25           2374       29573.00    129454.80
 1210.59        2966.50           2378       30323.00    132753.50
 1210.62        2966.75           2381       30404.00    133109.80
 1210.65        2967.00           2385       30430.00    133224.10
 1210.68        2967.25           2388       31030.00    135863.70
 1210.71        2967.50           2392       31114.00    136233.30
 1210.74        2967.75           2395       30749.00    134627.50
 1210.77        2968.00           2399       30444.00    133285.70
 1210.80        2968.25           2402       28793.00    126024.90
 1210.83        2968.50           2406       27286.00    119400.50
 1210.86        2968.75           2409       25844.00    113064.60
 1210.89        2969.00           2413       24340.00    106459.20
 1210.92        2969.25           2417       22712.00     99312.55
 1210.95        2969.50           2420       21291.00     93077.44
 1210.98        2969.75           2424       19532.00     85362.91
 1211.02        2970.00           2427       18653.00     81509.37
 1211.05        2970.25           2431       16824.00     73494.24
 1211.08        2970.50           2434       15180.00     66293.55
 1211.11        2970.75           2438       13042.00     56934.43
 1211.14        2971.00           2441       11651.00     50848.51
 1211.17        2971.25           2445        9955.00     43431.57
 1211.20        2971.50           2449        8314.00     36258.71
 1211.23        2971.75           2452        6933.00     30225.03
 1211.26        2972.00           2456        4922.00     21443.27
 1211.29        2972.25           2459        3484.00     15166.93
 1211.32        2972.50           2463        1790.00      7776.69
 1211.35        2972.75           2466         791.00      3420.19
 1211.38        2973.00           2470         247.00      1048.42
 1211.41        2973.25           2473         164.00       686.59
 1211.44        2973.50           2477         133.00       551.45
 1211.47        2973.75           2481         148.00       616.84
 1211.50        2974.00           2484         138.00       573.25
 1211.54        2974.25           2488         136.00       564.53
 1211.57        2974.50           2491         125.00       516.57
 1211.60        2974.75           2495         161.00       673.51
 1211.63        2975.00           2498         136.00       564.53
 1211.66        2975.25           2502         130.00       538.37
 1211.69        2975.50           2505         141.00       586.32
 1211.72        2975.75           2509         123.00       507.86
 1211.75        2976.00           2512         136.00       564.53
 1211.78        2976.25           2516         121.00       499.14
 1211.81        2976.50           2520         103.00       420.67
 1211.84        2976.75           2523         135.00       560.17
 1211.87        2977.00           2527         103.00       420.67
 1211.90        2977.25           2530         128.00       529.65
 1211.93        2977.50           2534         101.00       411.95
 1211.96        2977.75           2537         100.00       407.59
 1211.99        2978.00           2541          95.00       385.79
 1212.02        2978.25           2544          91.00       368.36
 1212.06        2978.50           2548         129.00       534.01
 1212.09        2978.75           2552          96.00       390.15
 1212.12        2979.00           2555          96.00       390.15
 1212.15        2979.25           2559          95.00       385.79
 1212.18        2979.50           2562          97.00       394.51
 1212.21        2979.75           2566          86.00       346.56
 1212.24        2980.00           2569          81.00       324.76
 1212.27        2980.25           2573         123.00       507.86
 1212.30        2980.50           2577          92.00       372.72
 1212.33        2980.75           2580          96.00       390.15
 1212.36        2981.00           2584          94.00       381.43
 1212.39        2981.25           2587          91.00       368.36
 1212.42        2981.50           2591          93.00       377.08
 1212.45        2981.75           2594          94.00       381.43
 1212.48        2982.00           2598          89.00       359.64
 1212.51        2982.25           2601         105.00       429.39
 1212.54        2982.50           2605          86.00       346.56
 1212.57        2982.75           2609          97.00       394.51
 1212.61        2983.00           2612          92.00       372.72
 1212.64        2983.25           2616          82.00       329.12
 1212.67        2983.50           2619          89.00       359.64
 1212.70        2983.75           2623          92.00       372.72
 1212.73        2984.00           2626          87.00       350.92
HS scan finished at 20:12:57
end
