************************************************************
  HS Scan of (1) Internal mercury lamp
************************************************************
Integration time is 0.2294 seconds per sample
dh050918Reading 51.44 .94 3.66pr1000
************************************************************
Dead Time -------------------------  3.4E-08 
Number of Cycles Used -------------  4 
Starting Wavelength (Angstroms) ---  2950 
Final Wavelength (Angstoms) -------  2984 
Wavelength Increment (Angstroms) --  .25 
Filter Wheel #1 Position ---------- (1) Ground quartz diffuser (ND=2.32)
Filter Wheel #2 Position ---------- (1) Neutral Density 0.494



************************************************************
HS scan start time = 02:34:30
Dark Count =  3.6 


Time (GMT)  Wavelength (Ang)  Step Number  Raw Counts  Counts/Second

  155.41        2950.00           2144          61.00       250.22
  155.60        2950.25           2147          64.00       263.30
  155.63        2950.50           2151          67.00       276.38
  155.66        2950.75           2155          66.00       272.02
  155.69        2951.00           2158          75.00       311.25
  155.72        2951.25           2162          70.00       289.45
  155.75        2951.50           2165          71.00       293.81
  155.78        2951.75           2169          73.00       302.53
  155.81        2952.00           2172          69.00       285.09
  155.85        2952.25           2176          77.00       319.97
  155.88        2952.50           2179          65.00       267.66
  155.91        2952.75           2183          76.00       315.61
  155.94        2953.00           2186          75.00       311.25
  155.97        2953.25           2190          69.00       285.09
  156.00        2953.50           2193          79.00       328.69
  156.03        2953.75           2197          79.00       328.69
  156.06        2954.00           2200          74.00       306.89
  156.09        2954.25           2204          80.00       333.05
  156.12        2954.50           2208          82.00       341.77
  156.15        2954.75           2211          76.00       315.61
  156.18        2955.00           2215          77.00       319.97
  156.21        2955.25           2218          81.00       337.41
  156.24        2955.50           2222          78.00       324.33
  156.27        2955.75           2225          74.00       306.89
  156.30        2956.00           2229          76.00       315.61
  156.33        2956.25           2232          77.00       319.97
  156.37        2956.50           2236          79.00       328.69
  156.40        2956.75           2239          82.00       341.77
  156.43        2957.00           2243          87.00       363.56
  156.46        2957.25           2246          85.00       354.84
  156.49        2957.50           2250          83.00       346.12
  156.52        2957.75           2254          83.00       346.12
  156.55        2958.00           2257          84.00       350.48
  156.58        2958.25           2261          98.00       411.51
  156.61        2958.50           2264          88.00       367.92
  156.64        2958.75           2268          89.00       372.28
  156.67        2959.00           2271          91.00       381.00
  156.70        2959.25           2275          97.00       407.15
  156.73        2959.50           2278         111.00       468.19
  156.76        2959.75           2282         100.00       420.23
  156.79        2960.00           2285         100.00       420.23
  156.82        2960.25           2289         103.00       433.31
  156.85        2960.50           2293         108.00       455.11
  156.89        2960.75           2296         101.00       424.59
  156.92        2961.00           2300         144.00       612.04
  156.95        2961.25           2303         267.00      1148.26
  156.98        2961.50           2307         961.00      4174.09
  157.01        2961.75           2310        1920.00      8356.34
  157.04        2962.00           2314        3395.00     14791.22
  157.07        2962.25           2317        4535.00     19766.55
  157.10        2962.50           2321        6413.00     27966.42
  157.13        2962.75           2324        7764.00     33868.10
  157.16        2963.00           2328        9708.00     42364.39
  157.19        2963.25           2331       10965.00     47860.74
  157.22        2963.50           2335       12876.00     56220.71
  157.25        2963.75           2339       14788.00     64589.82
  157.28        2964.00           2342       16160.00     70598.21
  157.31        2964.25           2346       18066.00     78949.22
  157.34        2964.50           2349       19216.00     83990.16
  157.37        2964.75           2353       21517.00     94081.63
  157.40        2965.00           2356       22823.00     99812.43
  157.44        2965.25           2360       24767.00    108347.00
  157.47        2965.50           2363       26164.00    114483.10
  157.50        2965.75           2367       27497.00    120340.60
  157.53        2966.00           2370       28944.00    126701.60
  157.56        2966.25           2374       30568.00    133844.00
  157.59        2966.50           2378       31787.00    139207.50
  157.62        2966.75           2381       31905.00    139726.80
  157.65        2967.00           2385       31672.00    138701.40
  157.68        2967.25           2388       31651.00    138609.00
  157.71        2967.50           2392       31354.00    137302.10
  157.74        2967.75           2395       30994.00    135718.10
  157.77        2968.00           2399       30106.00    131811.70
  157.80        2968.25           2402       28757.00    125879.40
  157.83        2968.50           2406       26959.00    117976.20
  157.86        2968.75           2409       25714.00    112506.30
  157.89        2969.00           2413       23920.00    104627.90
  157.92        2969.25           2417       22326.00     97631.31
  157.96        2969.50           2420       21027.00     91932.06
  157.99        2969.75           2424       19246.00     84121.69
  158.02        2970.00           2427       17754.00     77581.88
  158.05        2970.25           2431       15600.00     68145.50
  158.08        2970.50           2434       14098.00     61569.04
  158.11        2970.75           2438       12266.00     53551.65
  158.14        2971.00           2441       10822.00     47235.35
  158.17        2971.25           2445        9100.00     39706.58
  158.20        2971.50           2449        7393.00     32247.19
  158.23        2971.75           2452        5953.00     25957.51
  158.26        2972.00           2456        4076.00     17763.12
  158.29        2972.25           2459        2891.00     12592.14
  158.32        2972.50           2463        1391.00      6049.20
  158.35        2972.75           2466         667.00      2892.18
  158.38        2973.00           2470         239.00      1026.19
  158.41        2973.25           2473         161.00       686.15
  158.44        2973.50           2477         130.00       551.01
  158.48        2973.75           2481         130.00       551.01
  158.51        2974.00           2484         130.00       551.01
  158.54        2974.25           2488         128.00       542.29
  158.57        2974.50           2491         108.00       455.11
  158.60        2974.75           2495          98.00       411.51
  158.63        2975.00           2498         101.00       424.59
  158.66        2975.25           2502         121.00       511.78
  158.69        2975.50           2505          92.00       385.36
  158.72        2975.75           2509         100.00       420.23
  158.75        2976.00           2512          95.00       398.44
  158.78        2976.25           2516          91.00       381.00
  158.81        2976.50           2520          96.00       402.80
  158.84        2976.75           2523          84.00       350.48
  158.87        2977.00           2527         101.00       424.59
  158.90        2977.25           2530          78.00       324.33
  158.93        2977.50           2534          87.00       363.56
  158.96        2977.75           2537          91.00       381.00
  159.00        2978.00           2541          83.00       346.12
  159.03        2978.25           2544          84.00       350.48
  159.06        2978.50           2548          85.00       354.84
  159.09        2978.75           2552          84.00       350.48
  159.12        2979.00           2555          86.00       359.20
  159.15        2979.25           2559          82.00       341.77
  159.18        2979.50           2562          84.00       350.48
  159.21        2979.75           2566          82.00       341.77
  159.24        2980.00           2569          74.00       306.89
  159.27        2980.25           2573          84.00       350.48
  159.30        2980.50           2577          80.00       333.05
  159.33        2980.75           2580          71.00       293.81
  159.36        2981.00           2584          74.00       306.89
  159.39        2981.25           2587          83.00       346.12
  159.42        2981.50           2591          75.00       311.25
  159.45        2981.75           2594          72.00       298.17
  159.48        2982.00           2598          64.00       263.30
  159.52        2982.25           2601          80.00       333.05
  159.55        2982.50           2605          69.00       285.09
  159.58        2982.75           2609          71.00       293.81
  159.61        2983.00           2612          72.00       298.17
  159.64        2983.25           2616          70.00       289.45
  159.67        2983.50           2619          65.00       267.66
  159.70        2983.75           2623          71.00       293.81
  159.73        2984.00           2626          70.00       289.45
HS scan finished at 02:39:57
end
************************************************************
  HS Scan of (1) Internal mercury lamp
************************************************************
Integration time is 0.2294 seconds per sample
dh050918Reading 51.44 .94 3.74pr1000
************************************************************
Dead Time -------------------------  3.4E-08 
Number of Cycles Used -------------  4 
Starting Wavelength (Angstroms) ---  2950 
Final Wavelength (Angstoms) -------  2984 
Wavelength Increment (Angstroms) --  .25 
Filter Wheel #1 Position ---------- (1) Ground quartz diffuser (ND=2.32)
Filter Wheel #2 Position ---------- (1) Neutral Density 0.494



************************************************************
HS scan start time = 19:37:25
Dark Count =  4.5 


Time (GMT)  Wavelength (Ang)  Step Number  Raw Counts  Counts/Second

 1178.31        2950.00           2144          51.00       202.70
 1178.50        2950.25           2147          50.00       198.34
 1178.53        2950.50           2151          50.00       198.34
 1178.56        2950.75           2155          53.00       211.42
 1178.59        2951.00           2158          50.00       198.34
 1178.62        2951.25           2162          52.00       207.06
 1178.65        2951.50           2165          53.00       211.42
 1178.68        2951.75           2169          45.00       176.55
 1178.71        2952.00           2172          55.00       220.14
 1178.75        2952.25           2176          56.00       224.50
 1178.78        2952.50           2179          50.00       198.34
 1178.81        2952.75           2183          48.00       189.63
 1178.84        2953.00           2186          53.00       211.42
 1178.87        2953.25           2190          53.00       211.42
 1178.90        2953.50           2193          60.00       241.94
 1178.93        2953.75           2197          57.00       228.86
 1178.96        2954.00           2200          58.00       233.22
 1178.99        2954.25           2204          59.00       237.58
 1179.02        2954.50           2208          56.00       224.50
 1179.05        2954.75           2211          61.00       246.30
 1179.08        2955.00           2215          59.00       237.58
 1179.11        2955.25           2218          60.00       241.94
 1179.14        2955.50           2222          58.00       233.22
 1179.17        2955.75           2225          58.00       233.22
 1179.20        2956.00           2229          55.00       220.14
 1179.23        2956.25           2232          55.00       220.14
 1179.27        2956.50           2236          61.00       246.30
 1179.30        2956.75           2239          61.00       246.30
 1179.33        2957.00           2243          54.00       215.78
 1179.36        2957.25           2246          69.00       281.17
 1179.39        2957.50           2250          62.00       250.66
 1179.42        2957.75           2254          54.00       215.78
 1179.45        2958.00           2257          58.00       233.22
 1179.48        2958.25           2261          67.00       272.45
 1179.51        2958.50           2264          59.00       237.58
 1179.54        2958.75           2268          66.00       268.09
 1179.57        2959.00           2271          63.00       255.02
 1179.60        2959.25           2275          69.00       281.17
 1179.63        2959.50           2278          67.00       272.45
 1179.66        2959.75           2282          74.00       302.97
 1179.69        2960.00           2285          85.00       350.92
 1179.72        2960.25           2289          77.00       316.05
 1179.75        2960.50           2293          80.00       329.12
 1179.79        2960.75           2296          78.00       320.40
 1179.82        2961.00           2300         100.00       416.31
 1179.85        2961.25           2303         255.00      1092.02
 1179.88        2961.50           2307         785.00      3402.75
 1179.91        2961.75           2310        1443.00      6272.04
 1179.94        2962.00           2314        2531.00     11017.64
 1179.97        2962.25           2317        3345.00     14569.12
 1180.00        2962.50           2321        4408.00     19208.27
 1180.03        2962.75           2324        5219.00     22748.63
 1180.06        2963.00           2328        6587.00     28722.46
 1180.09        2963.25           2331        7599.00     33143.26
 1180.12        2963.50           2335        8991.00     39226.21
 1180.15        2963.75           2339       10115.00     44139.87
 1180.18        2964.00           2342       11162.00     48718.39
 1180.21        2964.25           2346       12257.00     53508.33
 1180.24        2964.50           2349       13050.00     56978.20
 1180.27        2964.75           2353       14536.00     63482.57
 1180.31        2965.00           2356       15481.00     67620.41
 1180.34        2965.25           2360       16543.00     72271.96
 1180.37        2965.50           2363       17400.00     76026.71
 1180.40        2965.75           2367       18388.00     80356.56
 1180.43        2966.00           2370       19222.00     84012.52
 1180.46        2966.25           2374       20439.00     89349.05
 1180.49        2966.50           2378       20861.00     91199.98
 1180.52        2966.75           2381       21373.00     93445.94
 1180.55        2967.00           2385       21562.00     94275.12
 1180.58        2967.25           2388       21330.00     93257.30
 1180.61        2967.50           2392       21470.00     93871.49
 1180.64        2967.75           2395       21539.00     94174.21
 1180.67        2968.00           2399       21173.00     92568.56
 1180.70        2968.25           2402       20421.00     89270.11
 1180.73        2968.50           2406       19572.00     85547.07
 1180.76        2968.75           2409       18568.00     81145.54
 1180.79        2969.00           2413       17339.00     75759.41
 1180.83        2969.25           2417       16219.00     70852.70
 1180.86        2969.50           2420       15436.00     67423.35
 1180.89        2969.75           2424       14278.00     62353.07
 1180.92        2970.00           2427       13184.00     57564.61
 1180.95        2970.25           2431       11633.00     50778.53
 1180.98        2970.50           2434       10704.00     46715.38
 1181.01        2970.75           2438        9359.00     40834.77
 1181.04        2971.00           2441        8307.00     36236.86
 1181.07        2971.25           2445        7106.00     30989.48
 1181.10        2971.50           2449        5589.00     24364.12
 1181.13        2971.75           2452        4564.00     19889.21
 1181.16        2972.00           2456        3197.00     13923.33
 1181.19        2972.25           2459        2310.00     10053.57
 1181.22        2972.50           2463        1270.00      5517.60
 1181.25        2972.75           2466         678.00      2936.21
 1181.28        2973.00           2470         229.00       978.67
 1181.31        2973.25           2473         114.00       477.34
 1181.35        2973.50           2477         137.00       577.61
 1181.38        2973.75           2481         111.00       464.26
 1181.41        2974.00           2484          94.00       390.15
 1181.44        2974.25           2488          94.00       390.15
 1181.47        2974.50           2491          95.00       394.51
 1181.50        2974.75           2495          85.00       350.92
 1181.53        2975.00           2498          93.00       385.79
 1181.56        2975.25           2502          82.00       337.84
 1181.59        2975.50           2505          79.00       324.76
 1181.62        2975.75           2509          91.00       377.08
 1181.65        2976.00           2512          78.00       320.40
 1181.68        2976.25           2516          79.00       324.76
 1181.71        2976.50           2520          81.00       333.48
 1181.74        2976.75           2523          81.00       333.48
 1181.77        2977.00           2527          83.00       342.20
 1181.80        2977.25           2530          77.00       316.05
 1181.83        2977.50           2534          83.00       342.20
 1181.87        2977.75           2537          80.00       329.12
 1181.90        2978.00           2541          93.00       385.79
 1181.93        2978.25           2544          82.00       337.84
 1181.97        2978.50           2548          78.00       320.40
 1182.00        2978.75           2552          70.00       285.53
 1182.03        2979.00           2555          78.00       320.40
 1182.06        2979.25           2559          68.00       276.81
 1182.09        2979.50           2562          73.00       298.61
 1182.13        2979.75           2566          82.00       337.84
 1182.16        2980.00           2569          79.00       324.76
 1182.19        2980.25           2573          80.00       329.12
 1182.22        2980.50           2577          85.00       350.92
 1182.25        2980.75           2580          87.00       359.64
 1182.28        2981.00           2584          81.00       333.48
 1182.31        2981.25           2587          73.00       298.61
 1182.34        2981.50           2591          77.00       316.05
 1182.37        2981.75           2594          70.00       285.53
 1182.40        2982.00           2598          75.00       307.33
 1182.43        2982.25           2601          77.00       316.05
 1182.46        2982.50           2605          83.00       342.20
 1182.49        2982.75           2609          76.00       311.69
 1182.52        2983.00           2612          75.00       307.33
 1182.55        2983.25           2616          81.00       333.48
 1182.58        2983.50           2619          75.00       307.33
 1182.61        2983.75           2623          72.00       294.25
 1182.65        2984.00           2626          77.00       316.05
HS scan finished at 19:42:52
end
