************************************************************
  HS Scan of (1) Internal mercury lamp
************************************************************
Integration time is 0.2294 seconds per sample
dh020917Reading 51.44 .94 3.37pr1000
************************************************************
Dead Time -------------------------  3.4E-08 
Number of Cycles Used -------------  4 
Starting Wavelength (Angstroms) ---  2950 
Final Wavelength (Angstoms) -------  2984 
Wavelength Increment (Angstroms) --  .25 
Filter Wheel #1 Position ---------- (1) Ground quartz diffuser (ND=2.32)
Filter Wheel #2 Position ---------- (1) Neutral Density 0.494



************************************************************
HS scan start time = 01:13:09
Dark Count =  2 


Time (GMT)  Wavelength (Ang)  Step Number  Raw Counts  Counts/Second

   74.05        2950.00           2144         165.00       710.57
   74.24        2950.25           2147         168.00       723.64
   74.27        2950.50           2151         157.00       675.69
   74.30        2950.75           2155         167.00       719.29
   74.33        2951.00           2158         164.00       706.21
   74.36        2951.25           2162         160.00       688.77
   74.39        2951.50           2165         166.00       714.93
   74.42        2951.75           2169         176.00       758.52
   74.45        2952.00           2172         175.00       754.16
   74.49        2952.25           2176         176.00       758.52
   74.52        2952.50           2179         164.00       706.21
   74.56        2952.75           2183         160.00       688.77
   74.59        2953.00           2186         183.00       789.04
   74.62        2953.25           2190         177.00       762.88
   74.65        2953.50           2193         179.00       771.60
   74.68        2953.75           2197         172.00       741.08
   74.71        2954.00           2200         178.00       767.24
   74.74        2954.25           2204         180.00       775.96
   74.77        2954.50           2208         177.00       762.88
   74.80        2954.75           2211         186.00       802.11
   74.83        2955.00           2215         180.00       775.96
   74.86        2955.25           2218         189.00       815.19
   74.89        2955.50           2222         191.00       823.91
   74.92        2955.75           2225         187.00       806.47
   74.95        2956.00           2229         182.00       784.68
   74.98        2956.25           2232         178.00       767.24
   75.01        2956.50           2236         190.00       819.55
   75.04        2956.75           2239         180.00       775.96
   75.08        2957.00           2243         188.00       810.83
   75.11        2957.25           2246         197.00       850.07
   75.14        2957.50           2250         191.00       823.91
   75.17        2957.75           2254         195.00       841.35
   75.20        2958.00           2257         191.00       823.91
   75.23        2958.25           2261         193.00       832.63
   75.26        2958.50           2264         209.00       902.38
   75.29        2958.75           2268         212.00       915.46
   75.32        2959.00           2271         216.00       932.90
   75.35        2959.25           2275         208.00       898.02
   75.38        2959.50           2278         243.00      1050.60
   75.41        2959.75           2282         226.00       976.49
   75.44        2960.00           2285         246.00      1063.68
   75.47        2960.25           2289         238.00      1028.81
   75.50        2960.50           2293         258.00      1116.00
   75.53        2960.75           2296         271.00      1172.67
   75.56        2961.00           2300         312.00      1351.41
   75.59        2961.25           2303         545.00      2367.23
   75.63        2961.50           2307        2060.00      8973.97
   75.66        2961.75           2310        4215.00     18376.78
   75.69        2962.00           2314        7345.00     32044.49
   75.72        2962.25           2317       10074.00     43971.54
   75.75        2962.50           2321       14149.00     61799.29
   75.78        2962.75           2324       17525.00     76585.40
   75.81        2963.00           2328       21197.00     92684.82
   75.84        2963.25           2331       24381.00    106659.00
   75.87        2963.50           2335       28316.00    123947.60
   75.90        2963.75           2339       31719.00    138915.30
   75.93        2964.00           2342       35602.00    156012.80
   75.96        2964.25           2346       39507.00    173227.40
   75.99        2964.50           2349       42722.00    187415.40
   76.02        2964.75           2353       46466.00    203955.20
   76.05        2965.00           2356       48809.00    214315.40
   76.08        2965.25           2360       52422.00    230305.50
   76.11        2965.50           2363       54263.00    238460.00
   76.15        2965.75           2367       59170.00    260217.10
   76.18        2966.00           2370       61842.00    272078.10
   76.21        2966.25           2374       66170.00    291310.50
   76.24        2966.50           2378       68039.00    299623.60
   76.27        2966.75           2381       67658.00    297928.60
   76.30        2967.00           2385       68423.00    301332.20
   76.33        2967.25           2388       67773.00    298440.20
   76.36        2967.50           2392       68506.00    301701.50
   76.39        2967.75           2395       68235.00    300495.60
   76.42        2968.00           2399       66138.00    291168.20
   76.45        2968.25           2402       64556.00    284135.40
   76.48        2968.50           2406       60298.00    265223.10
   76.51        2968.75           2409       57451.00    252591.60
   76.54        2969.00           2413       54442.00    239253.10
   76.57        2969.25           2417       50336.00    221071.30
   76.60        2969.50           2420       47807.00    209883.90
   76.63        2969.75           2424       43215.00    189592.30
   76.67        2970.00           2427       40503.00    177621.30
   76.70        2970.25           2431       36285.00    159022.30
   76.73        2970.50           2434       33147.00    145200.70
   76.76        2970.75           2438       29448.00    128924.90
   76.79        2971.00           2441       26310.00    115131.60
   76.82        2971.25           2445       21715.00     94957.34
   76.85        2971.50           2449       17603.00     76927.18
   76.88        2971.75           2452       14347.00     62666.07
   76.91        2972.00           2456       10838.00     47312.32
   76.94        2972.25           2459        8102.00     35351.97
   76.97        2972.50           2463        4366.00     19035.86
   77.00        2972.75           2466        2289.00      9972.87
   77.03        2973.00           2470         647.00      2811.95
   77.06        2973.25           2473         347.00      1504.00
   77.09        2973.50           2477         266.00      1150.87
   77.12        2973.75           2481         258.00      1116.00
   77.15        2974.00           2484         258.00      1116.00
   77.19        2974.25           2488         236.00      1020.09
   77.22        2974.50           2491         231.00       998.29
   77.25        2974.75           2495         254.00      1098.56
   77.28        2975.00           2498         228.00       985.21
   77.31        2975.25           2502         235.00      1015.73
   77.34        2975.50           2505         210.00       906.74
   77.37        2975.75           2509         206.00       889.30
   77.40        2976.00           2512         221.00       954.70
   77.43        2976.25           2516         217.00       937.26
   77.46        2976.50           2520         192.00       828.27
   77.49        2976.75           2523         204.00       880.58
   77.52        2977.00           2527         189.00       815.19
   77.55        2977.25           2530         193.00       832.63
   77.58        2977.50           2534         206.00       889.30
   77.61        2977.75           2537         190.00       819.55
   77.64        2978.00           2541         185.00       797.75
   77.67        2978.25           2544         186.00       802.11
   77.71        2978.50           2548         183.00       789.04
   77.74        2978.75           2552         188.00       810.83
   77.77        2979.00           2555         186.00       802.11
   77.80        2979.25           2559         187.00       806.47
   77.83        2979.50           2562         180.00       775.96
   77.86        2979.75           2566         176.00       758.52
   77.89        2980.00           2569         180.00       775.96
   77.92        2980.25           2573         175.00       754.16
   77.95        2980.50           2577         175.00       754.16
   77.98        2980.75           2580         162.00       697.49
   78.01        2981.00           2584         166.00       714.93
   78.04        2981.25           2587         166.00       714.93
   78.07        2981.50           2591         163.00       701.85
   78.10        2981.75           2594         183.00       789.04
   78.13        2982.00           2598         164.00       706.21
   78.16        2982.25           2601         171.00       736.72
   78.19        2982.50           2605         173.00       745.44
   78.23        2982.75           2609         165.00       710.57
   78.26        2983.00           2612         158.00       680.05
   78.29        2983.25           2616         150.00       645.18
   78.32        2983.50           2619         165.00       710.57
   78.35        2983.75           2623         168.00       723.64
   78.38        2984.00           2626         157.00       675.69
HS scan finished at 01:18:36
end
************************************************************
  HS Scan of (1) Internal mercury lamp
************************************************************
Integration time is 0.2294 seconds per sample
dh020917Reading 51.44 .94 3.68pr1000
************************************************************
Dead Time -------------------------  3.4E-08 
Number of Cycles Used -------------  4 
Starting Wavelength (Angstroms) ---  2950 
Final Wavelength (Angstoms) -------  2984 
Wavelength Increment (Angstroms) --  .25 
Filter Wheel #1 Position ---------- (1) Ground quartz diffuser (ND=2.32)
Filter Wheel #2 Position ---------- (1) Neutral Density 0.494



************************************************************
HS scan start time = 19:37:29
Dark Count =  4.8 


Time (GMT)  Wavelength (Ang)  Step Number  Raw Counts  Counts/Second

 1178.37        2950.00           2144          92.00       380.13
 1178.57        2950.25           2147          82.00       336.53
 1178.60        2950.50           2151          96.00       397.56
 1178.63        2950.75           2155          93.00       384.49
 1178.66        2951.00           2158          81.00       332.17
 1178.69        2951.25           2162          93.00       384.49
 1178.72        2951.50           2165          80.00       327.82
 1178.75        2951.75           2169          88.00       362.69
 1178.78        2952.00           2172         113.00       471.67
 1178.81        2952.25           2176          91.00       375.77
 1178.84        2952.50           2179          91.00       375.77
 1178.87        2952.75           2183          96.00       397.56
 1178.90        2953.00           2186          85.00       349.61
 1178.93        2953.25           2190         108.00       449.88
 1178.96        2953.50           2193          81.00       332.17
 1178.99        2953.75           2197          94.00       388.85
 1179.02        2954.00           2200         101.00       419.36
 1179.06        2954.25           2204          95.00       393.20
 1179.09        2954.50           2208          98.00       406.28
 1179.12        2954.75           2211         100.00       415.00
 1179.15        2955.00           2215         118.00       493.47
 1179.18        2955.25           2218         101.00       419.36
 1179.21        2955.50           2222         103.00       428.08
 1179.24        2955.75           2225          90.00       371.41
 1179.27        2956.00           2229         106.00       441.16
 1179.30        2956.25           2232         107.00       445.52
 1179.33        2956.50           2236          93.00       384.49
 1179.36        2956.75           2239         105.00       436.80
 1179.39        2957.00           2243         122.00       510.91
 1179.42        2957.25           2246         108.00       449.88
 1179.45        2957.50           2250         106.00       441.16
 1179.48        2957.75           2254         100.00       415.00
 1179.51        2958.00           2257         107.00       445.52
 1179.54        2958.25           2261         112.00       467.31
 1179.58        2958.50           2264         119.00       497.83
 1179.61        2958.75           2268         126.00       528.34
 1179.64        2959.00           2271         123.00       515.27
 1179.67        2959.25           2275         131.00       550.14
 1179.70        2959.50           2278         133.00       558.86
 1179.73        2959.75           2282         116.00       484.75
 1179.76        2960.00           2285         138.00       580.66
 1179.79        2960.25           2289         138.00       580.66
 1179.83        2960.50           2293         139.00       585.02
 1179.86        2960.75           2296         148.00       624.25
 1179.89        2961.00           2300         178.00       755.03
 1179.92        2961.25           2303         412.00      1775.17
 1179.95        2961.50           2307        1560.00      6780.99
 1179.98        2961.75           2310        2779.00     12098.26
 1180.01        2962.00           2314        4410.00     19215.69
 1180.04        2962.25           2317        5762.00     25118.22
 1180.07        2962.50           2321        7712.00     33635.66
 1180.10        2962.75           2324        9195.00     40116.59
 1180.13        2963.00           2328       11268.00     49180.69
 1180.16        2963.25           2331       12575.00     54898.37
 1180.19        2963.50           2335       14553.00     63555.67
 1180.22        2963.75           2339       16722.00     73054.81
 1180.25        2964.00           2342       18307.00     80000.22
 1180.29        2964.25           2346       20544.00     89808.25
 1180.32        2964.50           2349       21969.00     96059.52
 1180.35        2964.75           2353       23951.00    104758.70
 1180.38        2965.00           2356       25344.00    110875.80
 1180.41        2965.25           2360       27405.00    119930.90
 1180.44        2965.50           2363       28676.00    125518.00
 1180.47        2965.75           2367       30489.00    133491.20
 1180.50        2966.00           2370       31885.00    139633.40
 1180.53        2966.25           2374       33457.00    146553.20
 1180.56        2966.50           2378       34238.00    149992.30
 1180.59        2966.75           2381       34232.00    149965.90
 1180.62        2967.00           2385       34422.00    150802.60
 1180.65        2967.25           2388       34274.00    150150.80
 1180.68        2967.50           2392       34121.00    149477.00
 1180.71        2967.75           2395       33804.00    148081.10
 1180.74        2968.00           2399       32405.00    141922.10
 1180.77        2968.25           2402       30969.00    135602.90
 1180.81        2968.50           2406       29494.00    129114.80
 1180.84        2968.75           2409       28203.00    123438.50
 1180.87        2969.00           2413       26294.00    115049.00
 1180.90        2969.25           2417       24416.00    106800.40
 1180.93        2969.50           2420       23005.00    100606.00
 1180.96        2969.75           2424       20906.00     91396.04
 1180.99        2970.00           2427       19370.00     84660.07
 1181.02        2970.25           2431       17193.00     75118.38
 1181.05        2970.50           2434       15578.00     68043.90
 1181.08        2970.75           2438       13877.00     60596.39
 1181.11        2971.00           2441       12436.00     54290.19
 1181.14        2971.25           2445       10558.00     46075.62
 1181.17        2971.50           2449        8480.00     36991.57
 1181.20        2971.75           2452        6923.00     30188.78
 1181.23        2972.00           2456        4973.00     21673.34
 1181.26        2972.25           2459        3605.00     15702.37
 1181.29        2972.50           2463        1993.00      8669.51
 1181.33        2972.75           2466        1003.00      4352.00
 1181.36        2973.00           2470         289.00      1238.94
 1181.39        2973.25           2473         174.00       737.59
 1181.42        2973.50           2477         157.00       663.48
 1181.45        2973.75           2481         151.00       637.33
 1181.48        2974.00           2484         145.00       611.17
 1181.51        2974.25           2488         148.00       624.25
 1181.54        2974.50           2491         150.00       632.97
 1181.57        2974.75           2495         140.00       589.38
 1181.60        2975.00           2498         134.00       563.22
 1181.63        2975.25           2502         137.00       576.30
 1181.66        2975.50           2505         120.00       502.19
 1181.69        2975.75           2509         126.00       528.34
 1181.72        2976.00           2512         111.00       462.95
 1181.75        2976.25           2516         126.00       528.34
 1181.78        2976.50           2520         145.00       611.17
 1181.81        2976.75           2523         129.00       541.42
 1181.85        2977.00           2527         105.00       436.80
 1181.88        2977.25           2530         103.00       428.08
 1181.91        2977.50           2534         118.00       493.47
 1181.94        2977.75           2537         111.00       462.95
 1181.97        2978.00           2541         125.00       523.98
 1182.00        2978.25           2544          97.00       401.92
 1182.03        2978.50           2548         134.00       563.22
 1182.06        2978.75           2552         123.00       515.27
 1182.09        2979.00           2555          90.00       371.41
 1182.12        2979.25           2559         111.00       462.95
 1182.15        2979.50           2562          93.00       384.49
 1182.18        2979.75           2566          92.00       380.13
 1182.21        2980.00           2569          96.00       397.56
 1182.24        2980.25           2573          98.00       406.28
 1182.27        2980.50           2577          95.00       393.20
 1182.30        2980.75           2580          87.00       358.33
 1182.33        2981.00           2584          92.00       380.13
 1182.37        2981.25           2587         111.00       462.95
 1182.40        2981.50           2591          90.00       371.41
 1182.43        2981.75           2594          88.00       362.69
 1182.46        2982.00           2598         106.00       441.16
 1182.49        2982.25           2601          88.00       362.69
 1182.52        2982.50           2605          80.00       327.82
 1182.55        2982.75           2609          91.00       375.77
 1182.58        2983.00           2612          91.00       375.77
 1182.61        2983.25           2616         102.00       423.72
 1182.64        2983.50           2619         111.00       462.95
 1182.67        2983.75           2623          94.00       388.85
 1182.70        2984.00           2626          86.00       353.97
HS scan finished at 19:42:55
end
