************************************************************
  HS Scan of (1) Internal mercury lamp
************************************************************
Integration time is 0.2294 seconds per sample
dh310817Reading 51.44 .94 3.13pr1000
************************************************************
Dead Time -------------------------  3.4E-08 
Number of Cycles Used -------------  4 
Starting Wavelength (Angstroms) ---  2950 
Final Wavelength (Angstoms) -------  2984 
Wavelength Increment (Angstroms) --  .25 
Filter Wheel #1 Position ---------- (1) Ground quartz diffuser (ND=2.32)
Filter Wheel #2 Position ---------- (1) Neutral Density 0.494



************************************************************
HS scan start time = 01:08:18
Dark Count =  .8 


Time (GMT)  Wavelength (Ang)  Step Number  Raw Counts  Counts/Second

   69.19        2950.00           2144         112.00       484.75
   69.39        2950.25           2147         125.00       541.42
   69.42        2950.50           2151         117.00       506.55
   69.45        2950.75           2155          99.00       428.08
   69.48        2951.00           2158         105.00       454.24
   69.51        2951.25           2162         113.00       489.11
   69.54        2951.50           2165         112.00       484.75
   69.57        2951.75           2169         113.00       489.11
   69.60        2952.00           2172         104.00       449.88
   69.63        2952.25           2176         123.00       532.70
   69.66        2952.50           2179         106.00       458.59
   69.69        2952.75           2183         166.00       720.16
   69.72        2953.00           2186         112.00       484.75
   69.75        2953.25           2190         145.00       628.61
   69.78        2953.50           2193         111.00       480.39
   69.81        2953.75           2197         104.00       449.88
   69.84        2954.00           2200         117.00       506.55
   69.87        2954.25           2204         162.00       702.72
   69.91        2954.50           2208         135.00       585.02
   69.94        2954.75           2211         130.00       563.22
   69.97        2955.00           2215         131.00       567.58
   70.00        2955.25           2218         143.00       619.89
   70.03        2955.50           2222         108.00       467.31
   70.06        2955.75           2225         149.00       646.05
   70.09        2956.00           2229         121.00       523.98
   70.12        2956.25           2232         135.00       585.02
   70.15        2956.50           2236         115.00       497.83
   70.18        2956.75           2239         136.00       589.38
   70.21        2957.00           2243         123.00       532.70
   70.24        2957.25           2246         147.00       637.33
   70.27        2957.50           2250         153.00       663.48
   70.30        2957.75           2254         141.00       611.17
   70.33        2958.00           2257         180.00       781.19
   70.36        2958.25           2261         145.00       628.61
   70.39        2958.50           2264         125.00       541.42
   70.42        2958.75           2268         160.00       694.00
   70.46        2959.00           2271         158.00       685.28
   70.49        2959.25           2275         140.00       606.81
   70.52        2959.50           2278         147.00       637.33
   70.55        2959.75           2282         151.00       654.77
   70.58        2960.00           2285         147.00       637.33
   70.61        2960.25           2289         145.00       628.61
   70.64        2960.50           2293         163.00       707.08
   70.67        2960.75           2296         154.00       667.84
   70.70        2961.00           2300         194.00       842.22
   70.73        2961.25           2303         416.00      1810.05
   70.76        2961.50           2307        1541.00      6715.57
   70.79        2961.75           2310        2829.00     12333.86
   70.82        2962.00           2314        4842.00     21118.91
   70.85        2962.25           2317        6413.00     27978.66
   70.88        2962.50           2321        8646.00     37734.52
   70.91        2962.75           2324       10465.00     45686.43
   70.94        2963.00           2328       12734.00     55611.60
   70.98        2963.25           2331       14858.00     64908.57
   71.01        2963.50           2335       17355.00     75845.73
   71.04        2963.75           2339       19822.00     86659.49
   71.07        2964.00           2342       21492.00     93984.22
   71.10        2964.25           2346       24098.00    105421.70
   71.13        2964.50           2349       25574.00    111903.60
   71.16        2964.75           2353       27868.00    121983.50
   71.19        2965.00           2356       29649.00    129814.10
   71.22        2965.25           2360       32857.00    143929.30
   71.25        2965.50           2363       34286.00    150221.30
   71.28        2965.75           2367       36375.00    159424.10
   71.31        2966.00           2370       37523.00    164484.00
   71.34        2966.25           2374       39591.00    173603.20
   71.37        2966.50           2378       40967.00    179674.10
   71.40        2966.75           2381       42185.00    185049.90
   71.43        2967.00           2385       42353.00    185791.60
   71.46        2967.25           2388       42167.00    184970.40
   71.50        2967.50           2392       42121.00    184767.40
   71.53        2967.75           2395       41266.00    180993.60
   71.56        2968.00           2399       40273.00    176611.80
   71.59        2968.25           2402       38581.00    169148.70
   71.62        2968.50           2406       36370.00    159402.10
   71.65        2968.75           2409       34623.00    151705.50
   71.68        2969.00           2413       32111.00    140645.70
   71.71        2969.25           2417       29473.00    129040.10
   71.74        2969.50           2420       27485.00    120300.10
   71.77        2969.75           2424       25038.00    109549.40
   71.80        2970.00           2427       23518.00    102875.30
   71.83        2970.25           2431       21080.00     92176.84
   71.86        2970.50           2434       19090.00     83450.04
   71.89        2970.75           2438       16431.00     71797.55
   71.92        2971.00           2441       14391.00     62863.96
   71.95        2971.25           2445       12272.00     53590.15
   71.98        2971.50           2449       10062.00     43924.32
   72.02        2971.75           2452        8421.00     36751.21
   72.05        2972.00           2456        5935.00     25891.14
   72.08        2972.25           2459        4149.00     18093.95
   72.11        2972.50           2463        2064.00      8996.65
   72.14        2972.75           2466         925.00      4029.32
   72.17        2973.00           2470         282.00      1225.86
   72.20        2973.25           2473         184.00       798.63
   72.23        2973.50           2477         178.00       772.47
   72.26        2973.75           2481         159.00       689.64
   72.29        2974.00           2484         155.00       672.20
   72.32        2974.25           2488         157.00       680.92
   72.35        2974.50           2491         146.00       632.97
   72.38        2974.75           2495         133.00       576.30
   72.41        2975.00           2498         173.00       750.67
   72.44        2975.25           2502         147.00       637.33
   72.47        2975.50           2505         141.00       611.17
   72.50        2975.75           2509         132.00       571.94
   72.54        2976.00           2512         157.00       680.92
   72.57        2976.25           2516         153.00       663.48
   72.60        2976.50           2520         129.00       558.86
   72.63        2976.75           2523         136.00       589.38
   72.66        2977.00           2527         115.00       497.83
   72.69        2977.25           2530         145.00       628.61
   72.72        2977.50           2534         143.00       619.89
   72.75        2977.75           2537         144.00       624.25
   72.78        2978.00           2541         111.00       480.39
   72.81        2978.25           2544         115.00       497.83
   72.84        2978.50           2548         132.00       571.94
   72.87        2978.75           2552         131.00       567.58
   72.90        2979.00           2555         103.00       445.52
   72.93        2979.25           2559         125.00       541.42
   72.96        2979.50           2562         131.00       567.58
   72.99        2979.75           2566         116.00       502.19
   73.02        2980.00           2569         100.00       432.44
   73.05        2980.25           2573         103.00       445.52
   73.09        2980.50           2577         107.00       462.95
   73.12        2980.75           2580         110.00       476.03
   73.15        2981.00           2584         105.00       454.24
   73.18        2981.25           2587         138.00       598.09
   73.21        2981.50           2591         117.00       506.55
   73.24        2981.75           2594         101.00       436.80
   73.27        2982.00           2598         103.00       445.52
   73.30        2982.25           2601         102.00       441.16
   73.33        2982.50           2605         141.00       611.17
   73.36        2982.75           2609         110.00       476.03
   73.39        2983.00           2612         107.00       462.95
   73.42        2983.25           2616         118.00       510.91
   73.45        2983.50           2619         104.00       449.88
   73.48        2983.75           2623          96.00       415.00
   73.51        2984.00           2626         128.00       554.50
HS scan finished at 01:13:44
end
************************************************************
  HS Scan of (1) Internal mercury lamp
************************************************************
Integration time is 0.2294 seconds per sample
dh310817Reading 51.44 .94 3.64pr1000
************************************************************
Dead Time -------------------------  3.4E-08 
Number of Cycles Used -------------  4 
Starting Wavelength (Angstroms) ---  2950 
Final Wavelength (Angstoms) -------  2984 
Wavelength Increment (Angstroms) --  .25 
Filter Wheel #1 Position ---------- (1) Ground quartz diffuser (ND=2.32)
Filter Wheel #2 Position ---------- (1) Neutral Density 0.494



************************************************************
HS scan start time = 19:37:24
Dark Count =  4.3 


Time (GMT)  Wavelength (Ang)  Step Number  Raw Counts  Counts/Second

 1178.29        2950.00           2144         113.00       473.85
 1178.49        2950.25           2147         149.00       630.79
 1178.52        2950.50           2151         130.00       547.96
 1178.55        2950.75           2155         144.00       608.99
 1178.58        2951.00           2158         160.00       678.74
 1178.61        2951.25           2162         138.00       582.84
 1178.64        2951.50           2165         119.00       500.01
 1178.67        2951.75           2169         160.00       678.74
 1178.70        2952.00           2172         143.00       604.63
 1178.73        2952.25           2176         129.00       543.60
 1178.76        2952.50           2179         120.00       504.37
 1178.79        2952.75           2183         126.00       530.52
 1178.82        2953.00           2186         153.00       648.23
 1178.85        2953.25           2190         156.00       661.31
 1178.89        2953.50           2193         117.00       491.29
 1178.92        2953.75           2197         139.00       587.20
 1178.95        2954.00           2200         133.00       561.04
 1178.98        2954.25           2204         126.00       530.52
 1179.01        2954.50           2208         124.00       521.81
 1179.04        2954.75           2211         165.00       700.54
 1179.07        2955.00           2215         136.00       574.12
 1179.10        2955.25           2218         121.00       508.73
 1179.13        2955.50           2222         171.00       726.70
 1179.16        2955.75           2225         129.00       543.60
 1179.19        2956.00           2229         129.00       543.60
 1179.22        2956.25           2232         138.00       582.84
 1179.25        2956.50           2236         127.00       534.88
 1179.28        2956.75           2239         143.00       604.63
 1179.31        2957.00           2243         154.00       652.59
 1179.34        2957.25           2246         152.00       643.87
 1179.37        2957.50           2250         147.00       622.07
 1179.41        2957.75           2254         138.00       582.84
 1179.44        2958.00           2257         139.00       587.20
 1179.47        2958.25           2261         139.00       587.20
 1179.50        2958.50           2264         139.00       587.20
 1179.53        2958.75           2268         158.00       670.02
 1179.56        2959.00           2271         165.00       700.54
 1179.59        2959.25           2275         150.00       635.15
 1179.62        2959.50           2278         153.00       648.23
 1179.65        2959.75           2282         165.00       700.54
 1179.68        2960.00           2285         160.00       678.74
 1179.71        2960.25           2289         175.00       744.13
 1179.74        2960.50           2293         166.00       704.90
 1179.77        2960.75           2296         171.00       726.70
 1179.80        2961.00           2300         270.00      1158.28
 1179.83        2961.25           2303         525.00      2270.01
 1179.86        2961.50           2307        1909.00      8305.31
 1179.89        2961.75           2310        3653.00     15914.01
 1179.93        2962.00           2314        6408.00     27941.53
 1179.96        2962.25           2317        8442.00     36827.69
 1179.99        2962.50           2321       10788.00     47083.60
 1180.02        2962.75           2324       12752.00     55675.04
 1180.05        2963.00           2328       15488.00     67651.95
 1180.08        2963.25           2331       17806.00     77806.70
 1180.11        2963.50           2335       20843.00     91121.88
 1180.14        2963.75           2339       23527.00    102899.50
 1180.17        2964.00           2342       25483.00    111488.50
 1180.20        2964.25           2346       28362.00    124139.70
 1180.23        2964.50           2349       30425.00    133211.90
 1180.26        2964.75           2353       33339.00    146035.90
 1180.29        2965.00           2356       35239.00    154403.50
 1180.32        2965.25           2360       38245.00    167651.70
 1180.35        2965.50           2363       39831.00    174646.50
 1180.38        2965.75           2367       42845.00    187948.30
 1180.41        2966.00           2370       44720.00    196229.40
 1180.44        2966.25           2374       46288.00    203158.30
 1180.48        2966.50           2378       47399.00    208069.60
 1180.51        2966.75           2381       47304.00    207649.60
 1180.54        2967.00           2385       47329.00    207760.20
 1180.57        2967.25           2388       47158.00    207004.10
 1180.60        2967.50           2392       46706.00    205005.90
 1180.63        2967.75           2395       46235.00    202924.00
 1180.66        2968.00           2399       44927.00    197144.00
 1180.69        2968.25           2402       43048.00    188844.60
 1180.72        2968.50           2406       40273.00    176596.40
 1180.75        2968.75           2409       38171.00    167325.40
 1180.78        2969.00           2413       35707.00    156465.30
 1180.81        2969.25           2417       33027.00    144662.30
 1180.84        2969.50           2420       31202.00    136630.20
 1180.87        2969.75           2424       28399.00    124302.40
 1180.90        2970.00           2427       26304.00    115095.10
 1180.93        2970.25           2431       23658.00    103474.60
 1180.96        2970.50           2434       21412.00     93617.91
 1181.00        2970.75           2438       18554.00     81085.05
 1181.03        2971.00           2441       16535.00     72237.80
 1181.06        2971.25           2445       13910.00     60743.03
 1181.09        2971.50           2449       11532.00     50337.61
 1181.12        2971.75           2452        9736.00     42483.74
 1181.15        2972.00           2456        7112.00     31016.57
 1181.18        2972.25           2459        5138.00     22395.86
 1181.21        2972.50           2463        2654.00     11555.11
 1181.24        2972.75           2466        1224.00      5317.88
 1181.27        2973.00           2470         403.00      1738.12
 1181.30        2973.25           2473         225.00       962.11
 1181.33        2973.50           2477         182.00       774.65
 1181.36        2973.75           2481         173.00       735.42
 1181.39        2974.00           2484         163.00       691.82
 1181.42        2974.25           2488         152.00       643.87
 1181.45        2974.50           2491         152.00       643.87
 1181.49        2974.75           2495         149.00       630.79
 1181.52        2975.00           2498         143.00       604.63
 1181.55        2975.25           2502         140.00       591.56
 1181.58        2975.50           2505         138.00       582.84
 1181.61        2975.75           2509         136.00       574.12
 1181.64        2976.00           2512         147.00       622.07
 1181.67        2976.25           2516         153.00       648.23
 1181.70        2976.50           2520         135.00       569.76
 1181.73        2976.75           2523         131.00       552.32
 1181.76        2977.00           2527         139.00       587.20
 1181.79        2977.25           2530         120.00       504.37
 1181.82        2977.50           2534         139.00       587.20
 1181.85        2977.75           2537         137.00       578.48
 1181.88        2978.00           2541         153.00       648.23
 1181.91        2978.25           2544         117.00       491.29
 1181.94        2978.50           2548         124.00       521.81
 1181.97        2978.75           2552         147.00       622.07
 1182.00        2979.00           2555         149.00       630.79
 1182.04        2979.25           2559         130.00       547.96
 1182.07        2979.50           2562         136.00       574.12
 1182.10        2979.75           2566         107.00       447.70
 1182.13        2980.00           2569         119.00       500.01
 1182.16        2980.25           2573         107.00       447.70
 1182.19        2980.50           2577         119.00       500.01
 1182.22        2980.75           2580         128.00       539.24
 1182.25        2981.00           2584         105.00       438.98
 1182.28        2981.25           2587          92.00       382.31
 1182.31        2981.50           2591          98.00       408.46
 1182.34        2981.75           2594          96.00       399.74
 1182.37        2982.00           2598         101.00       421.54
 1182.40        2982.25           2601          92.00       382.31
 1182.43        2982.50           2605         111.00       465.13
 1182.46        2982.75           2609          87.00       360.51
 1182.49        2983.00           2612          98.00       408.46
 1182.52        2983.25           2616          92.00       382.31
 1182.56        2983.50           2619          86.00       356.15
 1182.59        2983.75           2623          94.00       391.03
 1182.62        2984.00           2626          91.00       377.95
HS scan finished at 19:42:50
end
