************************************************************
  HS Scan of (1) Internal mercury lamp
************************************************************
Integration time is 0.2294 seconds per sample
dh010917Reading 51.44 .94 3.37pr1000
************************************************************
Dead Time -------------------------  3.4E-08 
Number of Cycles Used -------------  4 
Starting Wavelength (Angstroms) ---  2950 
Final Wavelength (Angstoms) -------  2984 
Wavelength Increment (Angstroms) --  .25 
Filter Wheel #1 Position ---------- (1) Ground quartz diffuser (ND=2.32)
Filter Wheel #2 Position ---------- (1) Neutral Density 0.494



************************************************************
HS scan start time = 01:07:52
Dark Count =  1.8 


Time (GMT)  Wavelength (Ang)  Step Number  Raw Counts  Counts/Second

   68.77        2950.00           2144         149.00       641.69
   68.96        2950.25           2147         146.00       628.61
   68.99        2950.50           2151         146.00       628.61
   69.02        2950.75           2155         125.00       537.06
   69.05        2951.00           2158         158.00       680.92
   69.08        2951.25           2162         156.00       672.20
   69.11        2951.50           2165         125.00       537.06
   69.14        2951.75           2169         142.00       611.17
   69.18        2952.00           2172         177.00       763.75
   69.21        2952.25           2176         148.00       637.33
   69.24        2952.50           2179         128.00       550.14
   69.27        2952.75           2183         142.00       611.17
   69.30        2953.00           2186         137.00       589.38
   69.33        2953.25           2190         173.00       746.31
   69.37        2953.50           2193         124.00       532.70
   69.40        2953.75           2197         159.00       685.28
   69.44        2954.00           2200         163.00       702.72
   69.47        2954.25           2204         138.00       593.73
   69.50        2954.50           2208         150.00       646.05
   69.53        2954.75           2211         155.00       667.84
   69.56        2955.00           2215         148.00       637.33
   69.59        2955.25           2218         146.00       628.61
   69.62        2955.50           2222         139.00       598.09
   69.65        2955.75           2225         150.00       646.05
   69.68        2956.00           2229         144.00       619.89
   69.71        2956.25           2232         151.00       650.41
   69.74        2956.50           2236         129.00       554.50
   69.77        2956.75           2239         140.00       602.45
   69.80        2957.00           2243         139.00       598.09
   69.83        2957.25           2246         162.00       698.36
   69.86        2957.50           2250         156.00       672.20
   69.89        2957.75           2254         161.00       694.00
   69.92        2958.00           2257         145.00       624.25
   69.95        2958.25           2261         147.00       632.97
   69.99        2958.50           2264         161.00       694.00
   70.02        2958.75           2268         163.00       702.72
   70.05        2959.00           2271         166.00       715.80
   70.08        2959.25           2275         167.00       720.16
   70.11        2959.50           2278         168.00       724.52
   70.14        2959.75           2282         174.00       750.67
   70.17        2960.00           2285         176.00       759.39
   70.20        2960.25           2289         179.00       772.47
   70.23        2960.50           2293         187.00       807.35
   70.26        2960.75           2296         203.00       877.10
   70.29        2961.00           2300         301.00      1304.33
   70.32        2961.25           2303         758.00      3296.80
   70.35        2961.50           2307        2500.00     10894.18
   70.38        2961.75           2310        4359.00     19006.18
   70.41        2962.00           2314        6945.00     30297.98
   70.44        2962.25           2317        9293.00     40558.07
   70.48        2962.50           2321       12252.00     53498.27
   70.51        2962.75           2324       14567.00     63630.11
   70.54        2963.00           2328       17862.00     78063.06
   70.57        2963.25           2331       20047.00     87641.77
   70.60        2963.50           2335       22858.00     99973.94
   70.63        2963.75           2339       26156.00    114455.90
   70.66        2964.00           2342       28702.00    125645.50
   70.69        2964.25           2346       32108.00    140628.10
   70.72        2964.50           2349       33936.00    148675.60
   70.75        2964.75           2353       36965.00    162020.00
   70.78        2965.00           2356       39186.00    171812.40
   70.81        2965.25           2360       42201.00    185116.10
   70.84        2965.50           2363       44395.00    194804.80
   70.87        2965.75           2367       47285.00    207576.70
   70.90        2966.00           2370       49310.00    216532.50
   70.93        2966.25           2374       51587.00    226609.30
   70.96        2966.50           2378       52420.00    230297.50
   71.00        2966.75           2381       52624.00    231200.90
   71.03        2967.00           2385       52568.00    230952.90
   71.06        2967.25           2388       52735.00    231692.50
   71.09        2967.50           2392       52586.00    231032.60
   71.12        2967.75           2395       51920.00    228083.60
   71.15        2968.00           2399       49852.00    218930.50
   71.18        2968.25           2402       47833.00    209999.70
   71.21        2968.50           2406       45463.00    199523.30
   71.24        2968.75           2409       43223.00    189628.40
   71.27        2969.00           2413       40374.00    177053.00
   71.30        2969.25           2417       36983.00    162099.30
   71.33        2969.50           2420       34661.00    151868.50
   71.36        2969.75           2424       31645.00    138590.50
   71.39        2970.00           2427       29345.00    128472.80
   71.42        2970.25           2431       26174.00    114535.00
   71.45        2970.50           2434       23893.00    104517.20
   71.48        2970.75           2438       20713.00     90562.64
   71.51        2971.00           2441       18342.00     80166.78
   71.55        2971.25           2445       15290.00     66795.81
   71.58        2971.50           2449       12165.00     53117.65
   71.61        2971.75           2452        9830.00     42905.62
   71.64        2972.00           2456        6985.00     30472.71
   71.67        2972.25           2459        4952.00     21594.75
   71.70        2972.50           2463        2525.00     11003.24
   71.73        2972.75           2466        1171.00      5097.66
   71.76        2973.00           2470         329.00      1426.40
   71.79        2973.25           2473         213.00       920.69
   71.82        2973.50           2477         205.00       885.82
   71.85        2973.75           2481         191.00       824.78
   71.88        2974.00           2484         178.00       768.11
   71.91        2974.25           2488         175.00       755.03
   71.94        2974.50           2491         166.00       715.80
   71.97        2974.75           2495         170.00       733.24
   72.00        2975.00           2498         171.00       737.59
   72.03        2975.25           2502         164.00       707.08
   72.07        2975.50           2505         158.00       680.92
   72.10        2975.75           2509         166.00       715.80
   72.13        2976.00           2512         158.00       680.92
   72.16        2976.25           2516         144.00       619.89
   72.19        2976.50           2520         152.00       654.77
   72.23        2976.75           2523         164.00       707.08
   72.26        2977.00           2527         137.00       589.38
   72.29        2977.25           2530         138.00       593.73
   72.33        2977.50           2534         171.00       737.59
   72.36        2977.75           2537         138.00       593.73
   72.39        2978.00           2541         167.00       720.16
   72.42        2978.25           2544         154.00       663.48
   72.45        2978.50           2548         152.00       654.77
   72.48        2978.75           2552         127.00       545.78
   72.51        2979.00           2555         136.00       585.02
   72.54        2979.25           2559         135.00       580.66
   72.57        2979.50           2562         132.00       567.58
   72.60        2979.75           2566         131.00       563.22
   72.63        2980.00           2569         136.00       585.02
   72.66        2980.25           2573         129.00       554.50
   72.69        2980.50           2577         134.00       576.30
   72.72        2980.75           2580         121.00       519.63
   72.75        2981.00           2584         130.00       558.86
   72.78        2981.25           2587         112.00       480.39
   72.81        2981.50           2591         126.00       541.42
   72.85        2981.75           2594         105.00       449.88
   72.88        2982.00           2598         114.00       489.11
   72.91        2982.25           2601         109.00       467.31
   72.94        2982.50           2605         136.00       585.02
   72.97        2982.75           2609         104.00       445.52
   73.00        2983.00           2612         124.00       532.70
   73.03        2983.25           2616         100.00       428.08
   73.06        2983.50           2619         100.00       428.08
   73.09        2983.75           2623          99.00       423.72
   73.12        2984.00           2626         106.00       454.24
HS scan finished at 01:13:21
end
************************************************************
  HS Scan of (1) Internal mercury lamp
************************************************************
Integration time is 0.2294 seconds per sample
dh010917Reading 51.44 .94 3.7pr1000
************************************************************
Dead Time -------------------------  3.4E-08 
Number of Cycles Used -------------  4 
Starting Wavelength (Angstroms) ---  2950 
Final Wavelength (Angstoms) -------  2984 
Wavelength Increment (Angstroms) --  .25 
Filter Wheel #1 Position ---------- (1) Ground quartz diffuser (ND=2.32)
Filter Wheel #2 Position ---------- (1) Neutral Density 0.494



************************************************************
HS scan start time = 19:37:23
Dark Count =  4.5 


Time (GMT)  Wavelength (Ang)  Step Number  Raw Counts  Counts/Second

 1178.27        2950.00           2144         147.00       621.20
 1178.47        2950.25           2147         142.00       599.40
 1178.50        2950.50           2151         178.00       756.34
 1178.53        2950.75           2155         171.00       725.82
 1178.56        2951.00           2158         151.00       638.64
 1178.59        2951.25           2162         157.00       664.79
 1178.62        2951.50           2165         170.00       721.46
 1178.65        2951.75           2169         157.00       664.79
 1178.68        2952.00           2172         166.00       704.03
 1178.71        2952.25           2176         178.00       756.34
 1178.74        2952.50           2179         154.00       651.71
 1178.77        2952.75           2183         143.00       603.76
 1178.80        2953.00           2186         154.00       651.71
 1178.83        2953.25           2190         150.00       634.28
 1178.86        2953.50           2193         154.00       651.71
 1178.90        2953.75           2197         163.00       690.95
 1178.93        2954.00           2200         156.00       660.43
 1178.96        2954.25           2204         150.00       634.28
 1178.99        2954.50           2208         177.00       751.98
 1179.02        2954.75           2211         150.00       634.28
 1179.05        2955.00           2215         163.00       690.95
 1179.08        2955.25           2218         158.00       669.15
 1179.11        2955.50           2222         167.00       708.39
 1179.14        2955.75           2225         169.00       717.11
 1179.17        2956.00           2229         171.00       725.82
 1179.20        2956.25           2232         158.00       669.15
 1179.23        2956.50           2236         171.00       725.82
 1179.26        2956.75           2239         167.00       708.39
 1179.29        2957.00           2243         177.00       751.98
 1179.32        2957.25           2246         171.00       725.82
 1179.35        2957.50           2250         169.00       717.11
 1179.38        2957.75           2254         191.00       813.01
 1179.42        2958.00           2257         186.00       791.22
 1179.45        2958.25           2261         184.00       782.50
 1179.48        2958.50           2264         192.00       817.37
 1179.51        2958.75           2268         190.00       808.65
 1179.54        2959.00           2271         179.00       760.70
 1179.57        2959.25           2275         199.00       847.89
 1179.60        2959.50           2278         211.00       900.20
 1179.63        2959.75           2282         198.00       843.53
 1179.66        2960.00           2285         211.00       900.20
 1179.69        2960.25           2289         210.00       895.84
 1179.72        2960.50           2293         203.00       865.33
 1179.75        2960.75           2296         237.00      1013.55
 1179.78        2961.00           2300         375.00      1615.17
 1179.81        2961.25           2303         857.00      3716.69
 1179.84        2961.50           2307        2990.00     13020.15
 1179.87        2961.75           2310        5176.00     22560.89
 1179.90        2962.00           2314        8124.00     35437.18
 1179.94        2962.25           2317       10695.00     46676.03
 1179.97        2962.50           2321       14172.00     61889.03
 1180.00        2962.75           2324       16921.00     73927.97
 1180.03        2963.00           2328       20789.00     90884.15
 1180.06        2963.25           2331       23587.00    103162.00
 1180.09        2963.50           2335       27049.00    118367.70
 1180.12        2963.75           2339       30415.00    133167.00
 1180.15        2964.00           2342       33204.00    145440.60
 1180.18        2964.25           2346       37112.00    162656.00
 1180.21        2964.50           2349       39779.00    174416.20
 1180.24        2964.75           2353       43324.00    190062.50
 1180.27        2965.00           2356       45708.00    200594.10
 1180.30        2965.25           2360       49123.00    215693.30
 1180.33        2965.50           2363       51564.00    226495.60
 1180.36        2965.75           2367       54910.00    241315.80
 1180.39        2966.00           2370       57589.00    253192.50
 1180.43        2966.25           2374       60394.00    265638.20
 1180.46        2966.50           2378       61486.00    270486.20
 1180.49        2966.75           2381       61542.00    270734.80
 1180.52        2967.00           2385       61592.00    270956.80
 1180.55        2967.25           2388       61796.00    271862.70
 1180.58        2967.50           2392       61469.00    270410.70
 1180.61        2967.75           2395       61065.00    268616.90
 1180.64        2968.00           2399       59274.00    260667.50
 1180.67        2968.25           2402       56599.00    248802.50
 1180.70        2968.50           2406       53424.00    234732.10
 1180.73        2968.75           2409       50939.00    223729.00
 1180.76        2969.00           2413       47573.00    208838.10
 1180.79        2969.25           2417       44466.00    195106.50
 1180.82        2969.50           2420       41630.00    182583.70
 1180.85        2969.75           2424       37732.00    165389.10
 1180.88        2970.00           2427       34718.00    152107.60
 1180.91        2970.25           2431       31215.00    136686.50
 1180.94        2970.50           2434       28419.00    124389.40
 1180.98        2970.75           2438       24447.00    106937.80
 1181.01        2971.00           2441       21964.00     96038.90
 1181.04        2971.25           2445       18222.00     79628.99
 1181.07        2971.50           2449       14057.00     61385.62
 1181.10        2971.75           2452       11455.00     49999.93
 1181.13        2972.00           2456        8014.00     34956.52
 1181.16        2972.25           2459        5603.00     24425.25
 1181.19        2972.50           2463        2864.00     12470.41
 1181.22        2972.75           2466        1403.00      6097.60
 1181.25        2973.00           2470         453.00      1955.23
 1181.28        2973.25           2473         297.00      1275.12
 1181.31        2973.50           2477         234.00      1000.47
 1181.34        2973.75           2481         220.00       939.44
 1181.37        2974.00           2484         225.00       961.23
 1181.40        2974.25           2488         212.00       904.56
 1181.43        2974.50           2491         219.00       935.08
 1181.46        2974.75           2495         203.00       865.33
 1181.49        2975.00           2498         195.00       830.45
 1181.53        2975.25           2502         210.00       895.84
 1181.56        2975.50           2505         197.00       839.17
 1181.59        2975.75           2509         197.00       839.17
 1181.62        2976.00           2512         188.00       799.93
 1181.65        2976.25           2516         178.00       756.34
 1181.68        2976.50           2520         176.00       747.62
 1181.71        2976.75           2523         186.00       791.22
 1181.74        2977.00           2527         181.00       769.42
 1181.77        2977.25           2530         172.00       730.18
 1181.80        2977.50           2534         173.00       734.54
 1181.83        2977.75           2537         164.00       695.31
 1181.86        2978.00           2541         168.00       712.75
 1181.89        2978.25           2544         165.00       699.67
 1181.92        2978.50           2548         172.00       730.18
 1181.95        2978.75           2552         168.00       712.75
 1181.98        2979.00           2555         156.00       660.43
 1182.02        2979.25           2559         155.00       656.07
 1182.05        2979.50           2562         155.00       656.07
 1182.08        2979.75           2566         150.00       634.28
 1182.11        2980.00           2569         152.00       643.00
 1182.14        2980.25           2573         152.00       643.00
 1182.17        2980.50           2577         153.00       647.36
 1182.20        2980.75           2580         156.00       660.43
 1182.23        2981.00           2584         146.00       616.84
 1182.26        2981.25           2587         154.00       651.71
 1182.29        2981.50           2591         139.00       586.32
 1182.32        2981.75           2594         151.00       638.64
 1182.35        2982.00           2598         143.00       603.76
 1182.38        2982.25           2601         143.00       603.76
 1182.41        2982.50           2605         153.00       647.36
 1182.44        2982.75           2609         147.00       621.20
 1182.47        2983.00           2612         167.00       708.39
 1182.50        2983.25           2616         168.00       712.75
 1182.53        2983.50           2619         161.00       682.23
 1182.57        2983.75           2623         147.00       621.20
 1182.60        2984.00           2626         130.00       547.09
HS scan finished at 19:42:49
end
