************************************************************
  HS Scan of (1) Internal mercury lamp
************************************************************
Integration time is 0.2294 seconds per sample
dh030917Reading 51.44 .94 3.19pr1000
************************************************************
Dead Time -------------------------  3.4E-08 
Number of Cycles Used -------------  4 
Starting Wavelength (Angstroms) ---  2950 
Final Wavelength (Angstoms) -------  2984 
Wavelength Increment (Angstroms) --  .25 
Filter Wheel #1 Position ---------- (1) Ground quartz diffuser (ND=2.32)
Filter Wheel #2 Position ---------- (1) Neutral Density 0.494



************************************************************
HS scan start time = 01:23:01
Dark Count =  1.6 


Time (GMT)  Wavelength (Ang)  Step Number  Raw Counts  Counts/Second

   83.92        2950.00           2144         113.00       485.62
   84.11        2950.25           2147         102.00       437.67
   84.14        2950.50           2151          96.00       411.51
   84.17        2950.75           2155         121.00       520.50
   84.20        2951.00           2158         113.00       485.62
   84.23        2951.25           2162         100.00       428.95
   84.26        2951.50           2165         103.00       442.03
   84.29        2951.75           2169         116.00       498.70
   84.32        2952.00           2172         111.00       476.90
   84.36        2952.25           2176          98.00       420.23
   84.39        2952.50           2179         118.00       507.42
   84.42        2952.75           2183         111.00       476.90
   84.45        2953.00           2186         108.00       463.83
   84.48        2953.25           2190         102.00       437.67
   84.51        2953.50           2193         104.00       446.39
   84.54        2953.75           2197         139.00       598.97
   84.57        2954.00           2200          99.00       424.59
   84.60        2954.25           2204         112.00       481.26
   84.63        2954.50           2208         122.00       524.86
   84.66        2954.75           2211         103.00       442.03
   84.69        2955.00           2215         108.00       463.83
   84.72        2955.25           2218         109.00       468.19
   84.75        2955.50           2222         137.00       590.25
   84.78        2955.75           2225         133.00       572.81
   84.81        2956.00           2229         130.00       559.73
   84.84        2956.25           2232         146.00       629.48
   84.87        2956.50           2236         125.00       537.93
   84.91        2956.75           2239         122.00       524.86
   84.94        2957.00           2243         131.00       564.09
   84.97        2957.25           2246         122.00       524.86
   85.00        2957.50           2250         153.00       660.00
   85.03        2957.75           2254         187.00       808.22
   85.06        2958.00           2257         131.00       564.09
   85.09        2958.25           2261         142.00       612.04
   85.12        2958.50           2264         125.00       537.93
   85.15        2958.75           2268         155.00       668.72
   85.18        2959.00           2271         144.00       620.76
   85.21        2959.25           2275         155.00       668.72
   85.24        2959.50           2278         152.00       655.64
   85.27        2959.75           2282         135.00       581.53
   85.30        2960.00           2285         154.00       664.36
   85.33        2960.25           2289         150.00       646.92
   85.36        2960.50           2293         152.00       655.64
   85.39        2960.75           2296         166.00       716.67
   85.43        2961.00           2300         202.00       873.61
   85.46        2961.25           2303         474.00      2059.43
   85.49        2961.50           2307        1476.00      6428.61
   85.52        2961.75           2310        2756.00     12011.88
   85.55        2962.00           2314        4880.00     21281.31
   85.58        2962.25           2317        6683.00     29154.43
   85.61        2962.50           2321        8892.00     38806.18
   85.64        2962.75           2324       10449.00     45612.97
   85.67        2963.00           2328       12517.00     54658.60
   85.70        2963.25           2331       14239.00     62195.03
   85.73        2963.50           2335       16693.00     72941.79
   85.76        2963.75           2339       19183.00     83854.25
   85.79        2964.00           2342       20882.00     91304.81
   85.82        2964.25           2346       22952.00    100387.40
   85.85        2964.50           2349       24665.00    107907.80
   85.88        2964.75           2353       27168.00    118903.40
   85.91        2965.00           2356       28684.00    125567.20
   85.95        2965.25           2360       31068.00    136052.50
   85.98        2965.50           2363       32532.00    142495.10
   86.01        2965.75           2367       34728.00    152164.50
   86.04        2966.00           2370       36436.00    159689.40
   86.07        2966.25           2374       38032.00    166724.50
   86.10        2966.50           2378       38779.00    170018.40
   86.13        2966.75           2381       38869.00    170415.30
   86.16        2967.00           2385       39113.00    171491.30
   86.19        2967.25           2388       39264.00    172157.30
   86.22        2967.50           2392       39126.00    171548.70
   86.25        2967.75           2395       38594.00    169202.50
   86.28        2968.00           2399       37294.00    163471.00
   86.31        2968.25           2402       36097.00    158195.60
   86.34        2968.50           2406       33955.00    148760.10
   86.37        2968.75           2409       32503.00    142367.50
   86.40        2969.00           2413       30222.00    132330.80
   86.43        2969.25           2417       27722.00    121338.30
   86.47        2969.50           2420       26298.00    115080.60
   86.50        2969.75           2424       24028.00    105110.80
   86.53        2970.00           2427       22234.00     97236.38
   86.56        2970.25           2431       20051.00     87660.18
   86.59        2970.50           2434       18478.00     80763.75
   86.62        2970.75           2438       15825.00     69139.68
   86.65        2971.00           2441       13973.00     61030.62
   86.68        2971.25           2445       11710.00     51128.04
   86.71        2971.50           2449        9628.00     42023.39
   86.74        2971.75           2452        8202.00     35790.70
   86.77        2972.00           2456        6187.00     26988.14
   86.80        2972.25           2459        4579.00     19967.34
   86.83        2972.50           2463        2420.00     10546.07
   86.86        2972.75           2466        1102.00      4797.64
   86.89        2973.00           2470         290.00      1257.25
   86.92        2973.25           2473         188.00       812.58
   86.95        2973.50           2477         163.00       703.59
   86.99        2973.75           2481         162.00       699.23
   87.02        2974.00           2484         155.00       668.72
   87.05        2974.25           2488         172.00       742.83
   87.08        2974.50           2491         140.00       603.33
   87.11        2974.75           2495         147.00       633.84
   87.14        2975.00           2498         171.00       738.47
   87.17        2975.25           2502         133.00       572.81
   87.20        2975.50           2505         123.00       529.22
   87.23        2975.75           2509         169.00       729.75
   87.26        2976.00           2512         143.00       616.40
   87.29        2976.25           2516         123.00       529.22
   87.32        2976.50           2520         114.00       489.98
   87.35        2976.75           2523         149.00       642.56
   87.38        2977.00           2527         123.00       529.22
   87.41        2977.25           2530         125.00       537.93
   87.44        2977.50           2534         150.00       646.92
   87.47        2977.75           2537         130.00       559.73
   87.51        2978.00           2541         112.00       481.26
   87.54        2978.25           2544         112.00       481.26
   87.57        2978.50           2548         100.00       428.95
   87.60        2978.75           2552         140.00       603.33
   87.63        2979.00           2555         139.00       598.97
   87.66        2979.25           2559         125.00       537.93
   87.69        2979.50           2562         113.00       485.62
   87.72        2979.75           2566         111.00       476.90
   87.75        2980.00           2569         115.00       494.34
   87.78        2980.25           2573          96.00       411.51
   87.81        2980.50           2577         102.00       437.67
   87.84        2980.75           2580          95.00       407.15
   87.87        2981.00           2584         113.00       485.62
   87.90        2981.25           2587         122.00       524.86
   87.93        2981.50           2591         110.00       472.54
   87.96        2981.75           2594          95.00       407.15
   87.99        2982.00           2598          94.00       402.80
   88.03        2982.25           2601         101.00       433.31
   88.06        2982.50           2605         103.00       442.03
   88.09        2982.75           2609          94.00       402.80
   88.12        2983.00           2612         123.00       529.22
   88.15        2983.25           2616         102.00       437.67
   88.18        2983.50           2619          96.00       411.51
   88.21        2983.75           2623         113.00       485.62
   88.24        2984.00           2626          94.00       402.80
HS scan finished at 01:28:28
end
************************************************************
  HS Scan of (1) Internal mercury lamp
************************************************************
Integration time is 0.2294 seconds per sample
dh030917Reading 51.44 .94 3.27pr1000
************************************************************
Dead Time -------------------------  3.4E-08 
Number of Cycles Used -------------  4 
Starting Wavelength (Angstroms) ---  2950 
Final Wavelength (Angstoms) -------  2984 
Wavelength Increment (Angstroms) --  .25 
Filter Wheel #1 Position ---------- (1) Ground quartz diffuser (ND=2.32)
Filter Wheel #2 Position ---------- (1) Neutral Density 0.494



************************************************************
HS scan start time = 19:37:24
Dark Count =  1.4 


Time (GMT)  Wavelength (Ang)  Step Number  Raw Counts  Counts/Second

 1178.29        2950.00           2144         166.00       717.54
 1178.48        2950.25           2147         135.00       582.40
 1178.52        2950.50           2151         155.00       669.59
 1178.55        2950.75           2155         141.00       608.56
 1178.58        2951.00           2158         150.00       647.79
 1178.61        2951.25           2162         135.00       582.40
 1178.64        2951.50           2165         156.00       673.95
 1178.67        2951.75           2169         131.00       564.96
 1178.70        2952.00           2172         150.00       647.79
 1178.73        2952.25           2176         139.00       599.84
 1178.76        2952.50           2179         128.00       551.88
 1178.79        2952.75           2183         137.00       591.12
 1178.82        2953.00           2186         150.00       647.79
 1178.85        2953.25           2190         142.00       612.92
 1178.88        2953.50           2193         143.00       617.28
 1178.91        2953.75           2197         141.00       608.56
 1178.94        2954.00           2200         177.00       765.50
 1178.97        2954.25           2204         142.00       612.92
 1179.00        2954.50           2208         146.00       630.35
 1179.04        2954.75           2211         144.00       621.63
 1179.07        2955.00           2215         165.00       713.18
 1179.10        2955.25           2218         150.00       647.79
 1179.13        2955.50           2222         141.00       608.56
 1179.16        2955.75           2225         146.00       630.35
 1179.19        2956.00           2229         153.00       660.87
 1179.22        2956.25           2232         161.00       695.74
 1179.25        2956.50           2236         148.00       639.07
 1179.28        2956.75           2239         149.00       643.43
 1179.31        2957.00           2243         152.00       656.51
 1179.34        2957.25           2246         156.00       673.95
 1179.37        2957.50           2250         147.00       634.71
 1179.40        2957.75           2254         148.00       639.07
 1179.43        2958.00           2257         158.00       682.67
 1179.46        2958.25           2261         158.00       682.67
 1179.49        2958.50           2264         162.00       700.10
 1179.52        2958.75           2268         167.00       721.90
 1179.56        2959.00           2271         164.00       708.82
 1179.59        2959.25           2275         167.00       721.90
 1179.62        2959.50           2278         163.00       704.46
 1179.65        2959.75           2282         168.00       726.26
 1179.68        2960.00           2285         171.00       739.34
 1179.71        2960.25           2289         168.00       726.26
 1179.74        2960.50           2293         171.00       739.34
 1179.77        2960.75           2296         184.00       796.01
 1179.80        2961.00           2300         234.00      1013.98
 1179.83        2961.25           2303         416.00      1807.43
 1179.86        2961.50           2307        1539.00      6704.23
 1179.89        2961.75           2310        2927.00     12758.81
 1179.92        2962.00           2314        5351.00     23338.48
 1179.95        2962.25           2317        7142.00     31160.29
 1179.98        2962.50           2321        9482.00     41386.01
 1180.01        2962.75           2324       11241.00     49077.47
 1180.04        2963.00           2328       13605.00     59420.72
 1180.08        2963.25           2331       15530.00     67848.58
 1180.11        2963.50           2335       18202.00     79554.91
 1180.14        2963.75           2339       20783.00     90871.44
 1180.17        2964.00           2342       22882.00    100081.00
 1180.20        2964.25           2346       25145.00    110016.70
 1180.23        2964.50           2349       26874.00    117612.40
 1180.26        2964.75           2353       29642.00    129780.60
 1180.29        2965.00           2356       31503.00    137967.40
 1180.32        2965.25           2360       33950.00    148739.00
 1180.35        2965.50           2363       35651.00    156231.40
 1180.38        2965.75           2367       38363.00    168184.80
 1180.41        2966.00           2370       39895.00    174941.60
 1180.44        2966.25           2374       42079.00    184579.30
 1180.47        2966.50           2378       43493.00    190822.60
 1180.50        2966.75           2381       43929.00    192748.10
 1180.53        2967.00           2385       43906.00    192646.60
 1180.56        2967.25           2388       44229.00    194073.30
 1180.60        2967.50           2392       44171.00    193817.10
 1180.63        2967.75           2395       43935.00    192774.60
 1180.66        2968.00           2399       43051.00    188870.70
 1180.69        2968.25           2402       41280.00    181052.70
 1180.72        2968.50           2406       39906.00    174990.10
 1180.75        2968.75           2409       37612.00    164873.70
 1180.78        2969.00           2413       34539.00    151332.90
 1180.81        2969.25           2417       32022.00    140251.40
 1180.84        2969.50           2420       29906.00    130941.70
 1180.87        2969.75           2424       27272.00    119361.40
 1180.90        2970.00           2427       25282.00    110618.40
 1180.93        2970.25           2431       22377.00     97864.77
 1180.96        2970.50           2434       20185.00     88248.69
 1180.99        2970.75           2438       17818.00     77872.00
 1181.02        2971.00           2441       16013.00     69963.96
 1181.05        2971.25           2445       13409.00     58562.88
 1181.08        2971.50           2449       11093.00     48430.16
 1181.12        2971.75           2452        9227.00     40271.32
 1181.15        2972.00           2456        6482.00     28277.39
 1181.18        2972.25           2459        4661.00     20326.16
 1181.21        2972.50           2463        2386.00     10398.62
 1181.24        2972.75           2466        1131.00      4924.97
 1181.27        2973.00           2470         360.00      1563.29
 1181.30        2973.25           2473         246.00      1066.30
 1181.33        2973.50           2477         185.00       800.37
 1181.36        2973.75           2481         180.00       778.57
 1181.39        2974.00           2484         176.00       761.14
 1181.42        2974.25           2488         162.00       700.10
 1181.45        2974.50           2491         161.00       695.74
 1181.48        2974.75           2495         165.00       713.18
 1181.51        2975.00           2498         156.00       673.95
 1181.54        2975.25           2502         155.00       669.59
 1181.57        2975.50           2505         144.00       621.63
 1181.60        2975.75           2509         152.00       656.51
 1181.63        2976.00           2512         150.00       647.79
 1181.67        2976.25           2516         151.00       652.15
 1181.70        2976.50           2520         140.00       604.20
 1181.73        2976.75           2523         133.00       573.68
 1181.76        2977.00           2527         156.00       673.95
 1181.79        2977.25           2530         135.00       582.40
 1181.82        2977.50           2534         154.00       665.23
 1181.85        2977.75           2537         128.00       551.88
 1181.88        2978.00           2541         136.00       586.76
 1181.91        2978.25           2544         143.00       617.28
 1181.94        2978.50           2548         128.00       551.88
 1181.97        2978.75           2552         145.00       625.99
 1182.00        2979.00           2555         116.00       499.57
 1182.03        2979.25           2559         154.00       665.23
 1182.06        2979.50           2562         123.00       530.09
 1182.09        2979.75           2566         138.00       595.48
 1182.12        2980.00           2569         180.00       778.57
 1182.15        2980.25           2573         123.00       530.09
 1182.19        2980.50           2577         138.00       595.48
 1182.22        2980.75           2580         118.00       508.29
 1182.25        2981.00           2584         135.00       582.40
 1182.28        2981.25           2587         149.00       643.43
 1182.31        2981.50           2591         138.00       595.48
 1182.34        2981.75           2594         133.00       573.68
 1182.37        2982.00           2598         148.00       639.07
 1182.40        2982.25           2601         129.00       556.24
 1182.43        2982.50           2605         136.00       586.76
 1182.46        2982.75           2609         151.00       652.15
 1182.49        2983.00           2612         139.00       599.84
 1182.52        2983.25           2616         129.00       556.24
 1182.55        2983.50           2619         112.00       482.14
 1182.58        2983.75           2623         133.00       573.68
 1182.61        2984.00           2626         100.00       429.82
HS scan finished at 19:42:50
end
