************************************************************
  HS Scan of (1) Internal mercury lamp
************************************************************
Integration time is 0.2294 seconds per sample
dh060917Reading 51.44 .94 3.39pr1000
************************************************************
Dead Time -------------------------  3.4E-08 
Number of Cycles Used -------------  4 
Starting Wavelength (Angstroms) ---  2950 
Final Wavelength (Angstoms) -------  2984 
Wavelength Increment (Angstroms) --  .25 
Filter Wheel #1 Position ---------- (1) Ground quartz diffuser (ND=2.32)
Filter Wheel #2 Position ---------- (1) Neutral Density 0.494



************************************************************
HS scan start time = 01:44:43
Dark Count =  2 


Time (GMT)  Wavelength (Ang)  Step Number  Raw Counts  Counts/Second

  105.61        2950.00           2144          90.00       383.61
  105.81        2950.25           2147          87.00       370.54
  105.84        2950.50           2151          94.00       401.05
  105.87        2950.75           2155          81.00       344.38
  105.90        2951.00           2158          85.00       361.82
  105.93        2951.25           2162          90.00       383.61
  105.96        2951.50           2165          96.00       409.77
  105.99        2951.75           2169          94.00       401.05
  106.02        2952.00           2172          94.00       401.05
  106.05        2952.25           2176          88.00       374.90
  106.08        2952.50           2179          99.00       422.85
  106.11        2952.75           2183          96.00       409.77
  106.14        2953.00           2186         103.00       440.29
  106.17        2953.25           2190          87.00       370.54
  106.20        2953.50           2193          93.00       396.69
  106.23        2953.75           2197          97.00       414.13
  106.27        2954.00           2200          93.00       396.69
  106.30        2954.25           2204          97.00       414.13
  106.33        2954.50           2208         115.00       492.60
  106.36        2954.75           2211         100.00       427.21
  106.39        2955.00           2215         113.00       483.88
  106.42        2955.25           2218         117.00       501.32
  106.45        2955.50           2222         116.00       496.96
  106.48        2955.75           2225          95.00       405.41
  106.51        2956.00           2229         115.00       492.60
  106.54        2956.25           2232          97.00       414.13
  106.57        2956.50           2236         105.00       449.00
  106.60        2956.75           2239         115.00       492.60
  106.63        2957.00           2243         111.00       475.16
  106.66        2957.25           2246         106.00       453.36
  106.69        2957.50           2250         113.00       483.88
  106.72        2957.75           2254         142.00       610.30
  106.75        2958.00           2257         102.00       435.93
  106.79        2958.25           2261         123.00       527.47
  106.82        2958.50           2264         118.00       505.68
  106.85        2958.75           2268         108.00       462.08
  106.88        2959.00           2271         105.00       449.00
  106.91        2959.25           2275         127.00       544.91
  106.94        2959.50           2278         111.00       475.16
  106.97        2959.75           2282         119.00       510.03
  107.00        2960.00           2285         150.00       645.18
  107.03        2960.25           2289         139.00       597.22
  107.06        2960.50           2293         135.00       579.78
  107.09        2960.75           2296         139.00       597.22
  107.12        2961.00           2300         155.00       666.97
  107.15        2961.25           2303         289.00      1251.14
  107.18        2961.50           2307        1076.00      4682.52
  107.21        2961.75           2310        2234.00      9732.95
  107.24        2962.00           2314        4183.00     18237.11
  107.27        2962.25           2317        5640.00     24597.72
  107.31        2962.50           2321        7936.00     34626.62
  107.34        2962.75           2324        9307.00     40618.39
  107.37        2963.00           2328       11225.00     49004.86
  107.40        2963.25           2331       12707.00     55488.20
  107.43        2963.50           2335       14982.00     65446.26
  107.46        2963.75           2339       17375.00     75928.11
  107.49        2964.00           2342       19129.00     83615.76
  107.52        2964.25           2346       21173.00     92579.53
  107.55        2964.50           2349       22860.00     99981.85
  107.58        2964.75           2353       24705.00    108081.70
  107.61        2965.00           2356       26554.00    116203.60
  107.64        2965.25           2360       28612.00    125248.90
  107.67        2965.50           2363       29921.00    131005.10
  107.70        2965.75           2367       31995.00    140129.90
  107.73        2966.00           2370       33522.00    146851.70
  107.76        2966.25           2374       35033.00    153506.20
  107.79        2966.50           2378       35997.00    157753.20
  107.83        2966.75           2381       35921.00    157418.30
  107.86        2967.00           2385       36092.00    158171.80
  107.89        2967.25           2388       35752.00    156673.70
  107.92        2967.50           2392       35898.00    157317.00
  107.95        2967.75           2395       35583.00    155929.10
  107.98        2968.00           2399       34570.00    151466.80
  108.01        2968.25           2402       33247.00    145640.90
  108.04        2968.50           2406       31467.00    137806.40
  108.07        2968.75           2409       30115.00    131858.40
  108.10        2969.00           2413       28057.00    122809.00
  108.13        2969.25           2417       25970.00    113637.90
  108.16        2969.50           2420       24599.00    107616.20
  108.19        2969.75           2424       22373.00     97844.58
  108.22        2970.00           2427       20962.00     91653.96
  108.25        2970.25           2431       18856.00     82418.96
  108.28        2970.50           2434       17239.00     75332.20
  108.31        2970.75           2438       14948.00     65297.38
  108.34        2971.00           2441       13267.00     57938.78
  108.38        2971.25           2445       11198.00     48886.78
  108.41        2971.50           2449        9204.00     40168.16
  108.44        2971.75           2452        7812.00     34084.81
  108.47        2972.00           2456        5830.00     25427.38
  108.50        2972.25           2459        4332.00     18887.45
  108.53        2972.50           2463        2533.00     11037.27
  108.56        2972.75           2466        1266.00      5511.06
  108.59        2973.00           2470         337.00      1460.40
  108.62        2973.25           2473         176.00       758.52
  108.65        2973.50           2477         143.00       614.66
  108.68        2973.75           2481         149.00       640.82
  108.71        2974.00           2484         164.00       706.21
  108.74        2974.25           2488         133.00       571.07
  108.77        2974.50           2491         116.00       496.96
  108.80        2974.75           2495         125.00       536.19
  108.83        2975.00           2498         150.00       645.18
  108.87        2975.25           2502         119.00       510.03
  108.90        2975.50           2505         123.00       527.47
  108.93        2975.75           2509         114.00       488.24
  108.96        2976.00           2512         114.00       488.24
  108.99        2976.25           2516         148.00       636.46
  109.02        2976.50           2520         100.00       427.21
  109.05        2976.75           2523         109.00       466.44
  109.08        2977.00           2527          94.00       401.05
  109.11        2977.25           2530         101.00       431.57
  109.14        2977.50           2534         124.00       531.83
  109.17        2977.75           2537         105.00       449.00
  109.20        2978.00           2541         104.00       444.64
  109.23        2978.25           2544         110.00       470.80
  109.26        2978.50           2548         118.00       505.68
  109.29        2978.75           2552          99.00       422.85
  109.32        2979.00           2555         100.00       427.21
  109.35        2979.25           2559          93.00       396.69
  109.38        2979.50           2562          95.00       405.41
  109.42        2979.75           2566          98.00       418.49
  109.45        2980.00           2569         105.00       449.00
  109.48        2980.25           2573         122.00       523.11
  109.51        2980.50           2577          95.00       405.41
  109.54        2980.75           2580          92.00       392.33
  109.57        2981.00           2584          95.00       405.41
  109.60        2981.25           2587          91.00       387.97
  109.63        2981.50           2591          95.00       405.41
  109.66        2981.75           2594          83.00       353.10
  109.69        2982.00           2598          92.00       392.33
  109.72        2982.25           2601          93.00       396.69
  109.75        2982.50           2605         109.00       466.44
  109.78        2982.75           2609          89.00       379.26
  109.81        2983.00           2612          89.00       379.26
  109.84        2983.25           2616          94.00       401.05
  109.87        2983.50           2619          86.00       366.18
  109.90        2983.75           2623          88.00       374.90
  109.94        2984.00           2626         107.00       457.72
HS scan finished at 01:50:09
end
************************************************************
  HS Scan of (1) Internal mercury lamp
************************************************************
Integration time is 0.2294 seconds per sample
dh060917Reading 51.44 .94 3.58pr1000
************************************************************
Dead Time -------------------------  3.4E-08 
Number of Cycles Used -------------  4 
Starting Wavelength (Angstroms) ---  2950 
Final Wavelength (Angstoms) -------  2984 
Wavelength Increment (Angstroms) --  .25 
Filter Wheel #1 Position ---------- (1) Ground quartz diffuser (ND=2.32)
Filter Wheel #2 Position ---------- (1) Neutral Density 0.494



************************************************************
HS scan start time = 19:37:25
Dark Count =  2.8 


Time (GMT)  Wavelength (Ang)  Step Number  Raw Counts  Counts/Second

 1178.32        2950.00           2144         110.00       467.31
 1178.51        2950.25           2147          81.00       340.89
 1178.54        2950.50           2151          89.00       375.77
 1178.57        2950.75           2155          89.00       375.77
 1178.60        2951.00           2158          92.00       388.85
 1178.64        2951.25           2162          89.00       375.77
 1178.67        2951.50           2165          95.00       401.92
 1178.70        2951.75           2169          92.00       388.85
 1178.73        2952.00           2172          89.00       375.77
 1178.76        2952.25           2176         115.00       489.11
 1178.79        2952.50           2179          90.00       380.13
 1178.82        2952.75           2183         102.00       432.44
 1178.85        2953.00           2186          96.00       406.28
 1178.88        2953.25           2190          95.00       401.92
 1178.91        2953.50           2193         112.00       476.03
 1178.94        2953.75           2197         114.00       484.75
 1178.97        2954.00           2200          97.00       410.64
 1179.00        2954.25           2204          97.00       410.64
 1179.03        2954.50           2208          89.00       375.77
 1179.06        2954.75           2211          97.00       410.64
 1179.09        2955.00           2215          95.00       401.92
 1179.12        2955.25           2218         103.00       436.80
 1179.16        2955.50           2222          96.00       406.28
 1179.19        2955.75           2225         104.00       441.16
 1179.22        2956.00           2229          97.00       410.64
 1179.25        2956.25           2232         119.00       506.55
 1179.28        2956.50           2236         124.00       528.34
 1179.31        2956.75           2239         110.00       467.31
 1179.34        2957.00           2243         105.00       445.52
 1179.37        2957.25           2246         108.00       458.59
 1179.40        2957.50           2250         131.00       558.86
 1179.43        2957.75           2254         130.00       554.50
 1179.46        2958.00           2257          99.00       419.36
 1179.49        2958.25           2261         124.00       528.34
 1179.52        2958.50           2264         126.00       537.06
 1179.55        2958.75           2268         126.00       537.06
 1179.58        2959.00           2271         119.00       506.55
 1179.61        2959.25           2275         112.00       476.03
 1179.64        2959.50           2278         141.00       602.45
 1179.67        2959.75           2282         149.00       637.33
 1179.71        2960.00           2285         134.00       571.94
 1179.74        2960.25           2289         128.00       545.78
 1179.77        2960.50           2293         146.00       624.25
 1179.80        2960.75           2296         150.00       641.69
 1179.83        2961.00           2300         162.00       694.00
 1179.86        2961.25           2303         369.00      1596.42
 1179.89        2961.50           2307        1480.00      6440.82
 1179.92        2961.75           2310        2672.00     11640.18
 1179.95        2962.00           2314        4364.00     19023.64
 1179.98        2962.25           2317        5804.00     25310.35
 1180.01        2962.50           2321        7639.00     33325.45
 1180.05        2962.75           2324        8936.00     38993.26
 1180.08        2963.00           2328       11054.00     48253.48
 1180.11        2963.25           2331       12482.00     54500.21
 1180.14        2963.50           2335       14489.00     63284.24
 1180.17        2963.75           2339       16870.00     73711.97
 1180.20        2964.00           2342       18518.00     80933.82
 1180.23        2964.25           2346       20371.00     89058.28
 1180.26        2964.50           2349       21687.00     94830.99
 1180.29        2964.75           2353       23621.00    103318.70
 1180.32        2965.00           2356       25163.00    110089.60
 1180.35        2965.25           2360       27170.00    118907.00
 1180.38        2965.50           2363       28626.00    125306.90
 1180.42        2965.75           2367       30384.00    133038.10
 1180.45        2966.00           2370       31922.00    139805.10
 1180.48        2966.25           2374       33622.00    147288.50
 1180.51        2966.50           2378       34382.00    150635.30
 1180.54        2966.75           2381       34919.00    153000.50
 1180.57        2967.00           2385       34833.00    152621.70
 1180.60        2967.25           2388       34812.00    152529.20
 1180.63        2967.50           2392       34784.00    152405.90
 1180.66        2967.75           2395       34400.00    150714.50
 1180.69        2968.00           2399       33754.00    147869.70
 1180.72        2968.25           2402       32449.00    142124.50
 1180.75        2968.50           2406       30665.00    134274.20
 1180.78        2968.75           2409       29241.00    128011.10
 1180.81        2969.00           2413       26793.00    117250.30
 1180.84        2969.25           2417       24674.00    107942.10
 1180.87        2969.50           2420       23162.00    101303.90
 1180.91        2969.75           2424       21154.00     92492.68
 1180.94        2970.00           2427       19753.00     86348.16
 1180.97        2970.25           2431       17669.00     77212.90
 1181.00        2970.50           2434       15924.00     69568.02
 1181.03        2970.75           2438       13897.00     60692.69
 1181.06        2971.00           2441       12375.00     54032.05
 1181.09        2971.25           2445       10274.00     44842.51
 1181.12        2971.50           2449        8437.00     36812.40
 1181.15        2971.75           2452        7065.00     30817.80
 1181.18        2972.00           2456        5077.00     22136.10
 1181.21        2972.25           2459        3591.00     15650.00
 1181.24        2972.50           2463        1725.00      7509.33
 1181.27        2972.75           2466         769.00      3340.40
 1181.30        2973.00           2470         247.00      1064.55
 1181.33        2973.25           2473         167.00       715.80
 1181.36        2973.50           2477         145.00       619.89
 1181.39        2973.75           2481         173.00       741.95
 1181.42        2974.00           2484         144.00       615.53
 1181.46        2974.25           2488         120.00       510.91
 1181.49        2974.50           2491         121.00       515.27
 1181.52        2974.75           2495         123.00       523.98
 1181.55        2975.00           2498         118.00       502.19
 1181.58        2975.25           2502         128.00       545.78
 1181.61        2975.50           2505         142.00       606.81
 1181.64        2975.75           2509         136.00       580.66
 1181.67        2976.00           2512         135.00       576.30
 1181.70        2976.25           2516         128.00       545.78
 1181.73        2976.50           2520         122.00       519.63
 1181.76        2976.75           2523         143.00       611.17
 1181.79        2977.00           2527         130.00       554.50
 1181.82        2977.25           2530         107.00       454.24
 1181.85        2977.50           2534         122.00       519.63
 1181.88        2977.75           2537         108.00       458.59
 1181.91        2978.00           2541         135.00       576.30
 1181.94        2978.25           2544         103.00       436.80
 1181.98        2978.50           2548         120.00       510.91
 1182.01        2978.75           2552         101.00       428.08
 1182.04        2979.00           2555         112.00       476.03
 1182.07        2979.25           2559          96.00       406.28
 1182.10        2979.50           2562          87.00       367.05
 1182.13        2979.75           2566          90.00       380.13
 1182.16        2980.00           2569         109.00       462.95
 1182.19        2980.25           2573          99.00       419.36
 1182.22        2980.50           2577          94.00       397.56
 1182.25        2980.75           2580          89.00       375.77
 1182.28        2981.00           2584         108.00       458.59
 1182.31        2981.25           2587          94.00       397.56
 1182.34        2981.50           2591          92.00       388.85
 1182.37        2981.75           2594         101.00       428.08
 1182.40        2982.00           2598          89.00       375.77
 1182.43        2982.25           2601          95.00       401.92
 1182.46        2982.50           2605          83.00       349.61
 1182.50        2982.75           2609          90.00       380.13
 1182.53        2983.00           2612          83.00       349.61
 1182.56        2983.25           2616          88.00       371.41
 1182.59        2983.50           2619          95.00       401.92
 1182.62        2983.75           2623          87.00       367.05
 1182.65        2984.00           2626          84.00       353.97
HS scan finished at 19:42:52
end
