************************************************************
  HS Scan of (1) Internal mercury lamp
************************************************************
Integration time is 0.2294 seconds per sample
dh040918Reading 51.44 .94 3.5pr1000
************************************************************
Dead Time -------------------------  3.4E-08 
Number of Cycles Used -------------  4 
Starting Wavelength (Angstroms) ---  2950 
Final Wavelength (Angstoms) -------  2984 
Wavelength Increment (Angstroms) --  .25 
Filter Wheel #1 Position ---------- (1) Ground quartz diffuser (ND=2.32)
Filter Wheel #2 Position ---------- (1) Neutral Density 0.494



************************************************************
HS scan start time = 01:29:19
Dark Count =  2.3 


Time (GMT)  Wavelength (Ang)  Step Number  Raw Counts  Counts/Second

   90.22        2950.00           2144         120.00       513.09
   90.41        2950.25           2147          98.00       417.18
   90.44        2950.50           2151         101.00       430.26
   90.47        2950.75           2155         111.00       473.85
   90.50        2951.00           2158         104.00       443.34
   90.53        2951.25           2162         117.00       500.01
   90.56        2951.50           2165         104.00       443.34
   90.59        2951.75           2169         102.00       434.62
   90.62        2952.00           2172         100.00       425.90
   90.65        2952.25           2176          98.00       417.18
   90.68        2952.50           2179         139.00       595.91
   90.71        2952.75           2183         106.00       452.06
   90.75        2953.00           2186         128.00       547.96
   90.78        2953.25           2190         109.00       465.13
   90.81        2953.50           2193         147.00       630.79
   90.84        2953.75           2197         118.00       504.37
   90.87        2954.00           2200         111.00       473.85
   90.90        2954.25           2204         120.00       513.09
   90.93        2954.50           2208         107.00       456.42
   90.96        2954.75           2211         105.00       447.70
   90.99        2955.00           2215         115.00       491.29
   91.02        2955.25           2218         145.00       622.07
   91.05        2955.50           2222         106.00       452.06
   91.08        2955.75           2225         137.00       587.20
   91.11        2956.00           2229         148.00       635.15
   91.14        2956.25           2232         111.00       473.85
   91.17        2956.50           2236         105.00       447.70
   91.20        2956.75           2239         143.00       613.35
   91.23        2957.00           2243         154.00       661.31
   91.27        2957.25           2246         123.00       526.16
   91.30        2957.50           2250         131.00       561.04
   91.33        2957.75           2254         176.00       757.21
   91.36        2958.00           2257         148.00       635.15
   91.39        2958.25           2261         161.00       691.82
   91.42        2958.50           2264         158.00       678.74
   91.45        2958.75           2268         142.00       608.99
   91.48        2959.00           2271         143.00       613.35
   91.51        2959.25           2275         144.00       617.71
   91.54        2959.50           2278         152.00       652.59
   91.57        2959.75           2282         170.00       731.06
   91.60        2960.00           2285         156.00       670.02
   91.63        2960.25           2289         171.00       735.42
   91.66        2960.50           2293         167.00       717.98
   91.69        2960.75           2296         181.00       779.01
   91.72        2961.00           2300         227.00       979.54
   91.75        2961.25           2303         499.00      2165.37
   91.78        2961.50           2307        1968.00      8571.37
   91.82        2961.75           2310        3655.00     15931.47
   91.85        2962.00           2314        6417.00     27989.58
   91.88        2962.25           2317        8657.00     37776.04
   91.91        2962.50           2321       11753.00     51313.08
   91.94        2962.75           2324       14265.00     62305.78
   91.97        2963.00           2328       17843.00     77977.61
   92.00        2963.25           2331       20368.00     89047.31
   92.03        2963.50           2335       23154.00    101270.90
   92.06        2963.75           2339       26829.00    117410.70
   92.09        2964.00           2342       29672.00    129908.60
   92.12        2964.25           2346       32913.00    144169.20
   92.15        2964.50           2349       35771.00    156756.10
   92.18        2964.75           2353       39142.00    171616.20
   92.21        2965.00           2356       41794.00    183317.30
   92.24        2965.25           2360       45624.00    200232.60
   92.27        2965.50           2363       47650.00    209188.30
   92.30        2965.75           2367       50824.00    223229.70
   92.34        2966.00           2370       53056.00    233111.90
   92.37        2966.25           2374       55565.00    244228.50
   92.40        2966.50           2378       57288.00    251867.40
   92.43        2966.75           2381       57983.00    254949.80
   92.46        2967.00           2385       57802.00    254147.00
   92.49        2967.25           2388       57593.00    253220.00
   92.52        2967.50           2392       57612.00    253304.30
   92.55        2967.75           2395       57020.00    250678.90
   92.58        2968.00           2399       54559.00    239770.20
   92.61        2968.25           2402       54973.00    241604.70
   92.64        2968.50           2406       52014.00    228497.60
   92.67        2968.75           2409       50128.00    220149.50
   92.70        2969.00           2413       46751.00    205213.70
   92.73        2969.25           2417       43533.00    190995.20
   92.76        2969.50           2420       41184.00    180625.10
   92.79        2969.75           2424       37844.00    165892.50
   92.82        2970.00           2427       35346.00    154883.70
   92.86        2970.25           2431       31262.00    136903.00
   92.89        2970.50           2434       28746.00    125836.70
   92.92        2970.75           2438       25072.00    109692.10
   92.95        2971.00           2441       22645.00     99036.93
   92.98        2971.25           2445       19259.00     84184.38
   93.01        2971.50           2449       15612.00     68203.75
   93.04        2971.75           2452       12794.00     55867.57
   93.07        2972.00           2456        9031.00     39410.67
   93.10        2972.25           2459        6561.00     28618.51
   93.13        2972.50           2463        3744.00     16319.86
   93.16        2972.75           2466        1881.00      8191.91
   93.19        2973.00           2470         580.00      2518.52
   93.22        2973.25           2473         286.00      1236.76
   93.25        2973.50           2477         220.00       949.03
   93.28        2973.75           2481         191.00       822.60
   93.31        2974.00           2484         195.00       840.04
   93.34        2974.25           2488         180.00       774.65
   93.38        2974.50           2491         189.00       813.88
   93.41        2974.75           2495         185.00       796.45
   93.44        2975.00           2498         169.00       726.70
   93.47        2975.25           2502         168.00       722.34
   93.50        2975.50           2505         166.00       713.62
   93.53        2975.75           2509         160.00       687.46
   93.56        2976.00           2512         153.00       656.95
   93.59        2976.25           2516         154.00       661.31
   93.62        2976.50           2520         158.00       678.74
   93.65        2976.75           2523         178.00       765.93
   93.68        2977.00           2527         148.00       635.15
   93.71        2977.25           2530         155.00       665.66
   93.74        2977.50           2534         147.00       630.79
   93.77        2977.75           2537         152.00       652.59
   93.80        2978.00           2541         153.00       656.95
   93.83        2978.25           2544         167.00       717.98
   93.86        2978.50           2548         138.00       591.56
   93.90        2978.75           2552         130.00       556.68
   93.93        2979.00           2555         140.00       600.27
   93.96        2979.25           2559         140.00       600.27
   93.99        2979.50           2562         127.00       543.60
   94.02        2979.75           2566         116.00       495.65
   94.05        2980.00           2569         117.00       500.01
   94.08        2980.25           2573         128.00       547.96
   94.11        2980.50           2577         134.00       574.12
   94.14        2980.75           2580         151.00       648.23
   94.17        2981.00           2584         115.00       491.29
   94.20        2981.25           2587         109.00       465.13
   94.23        2981.50           2591         127.00       543.60
   94.26        2981.75           2594         129.00       552.32
   94.29        2982.00           2598         109.00       465.13
   94.32        2982.25           2601         118.00       504.37
   94.35        2982.50           2605         110.00       469.49
   94.38        2982.75           2609         123.00       526.16
   94.42        2983.00           2612         129.00       552.32
   94.45        2983.25           2616         117.00       500.01
   94.48        2983.50           2619         116.00       495.65
   94.51        2983.75           2623         121.00       517.45
   94.54        2984.00           2626         104.00       443.34
HS scan finished at 01:34:46
end
************************************************************
  HS Scan of (1) Internal mercury lamp
************************************************************
Integration time is 0.2294 seconds per sample
dh040918Reading 51.44 .94 3.76pr1000
************************************************************
Dead Time -------------------------  3.4E-08 
Number of Cycles Used -------------  4 
Starting Wavelength (Angstroms) ---  2950 
Final Wavelength (Angstoms) -------  2984 
Wavelength Increment (Angstroms) --  .25 
Filter Wheel #1 Position ---------- (1) Ground quartz diffuser (ND=2.32)
Filter Wheel #2 Position ---------- (1) Neutral Density 0.494



************************************************************
HS scan start time = 19:37:26
Dark Count =  5.8 


Time (GMT)  Wavelength (Ang)  Step Number  Raw Counts  Counts/Second

 1178.33        2950.00           2144          66.00       262.43
 1178.52        2950.25           2147          69.00       275.50
 1178.55        2950.50           2151          61.00       240.63
 1178.58        2950.75           2155          62.00       244.99
 1178.61        2951.00           2158          63.00       249.35
 1178.64        2951.25           2162          64.00       253.71
 1178.67        2951.50           2165          63.00       249.35
 1178.70        2951.75           2169          63.00       249.35
 1178.73        2952.00           2172          65.00       258.07
 1178.76        2952.25           2176          59.00       231.91
 1178.79        2952.50           2179          64.00       253.71
 1178.83        2952.75           2183          74.00       297.30
 1178.86        2953.00           2186          71.00       284.22
 1178.89        2953.25           2190          76.00       306.02
 1178.92        2953.50           2193          66.00       262.43
 1178.95        2953.75           2197          70.00       279.86
 1178.98        2954.00           2200          71.00       284.22
 1179.01        2954.25           2204          63.00       249.35
 1179.04        2954.50           2208          70.00       279.86
 1179.07        2954.75           2211          64.00       253.71
 1179.10        2955.00           2215          73.00       292.94
 1179.13        2955.25           2218          70.00       279.86
 1179.16        2955.50           2222          75.00       301.66
 1179.19        2955.75           2225          71.00       284.22
 1179.22        2956.00           2229          76.00       306.02
 1179.25        2956.25           2232          73.00       292.94
 1179.28        2956.50           2236          72.00       288.58
 1179.31        2956.75           2239          78.00       314.74
 1179.35        2957.00           2243          77.00       310.38
 1179.38        2957.25           2246          79.00       319.10
 1179.41        2957.50           2250          80.00       323.46
 1179.44        2957.75           2254          78.00       314.74
 1179.47        2958.00           2257          88.00       358.33
 1179.50        2958.25           2261          84.00       340.89
 1179.53        2958.50           2264          90.00       367.05
 1179.56        2958.75           2268          83.00       336.53
 1179.59        2959.00           2271          92.00       375.77
 1179.62        2959.25           2275          87.00       353.97
 1179.65        2959.50           2278          93.00       380.13
 1179.68        2959.75           2282          87.00       353.97
 1179.71        2960.00           2285          92.00       375.77
 1179.74        2960.25           2289          92.00       375.77
 1179.77        2960.50           2293          95.00       388.85
 1179.80        2960.75           2296         128.00       532.70
 1179.83        2961.00           2300         145.00       606.81
 1179.87        2961.25           2303         231.00       981.72
 1179.90        2961.50           2307         851.00      3684.86
 1179.93        2961.75           2310        1604.00      6968.52
 1179.96        2962.00           2314        3004.00     13075.56
 1179.99        2962.25           2317        4269.00     18595.89
 1180.02        2962.50           2321        6023.00     26253.59
 1180.05        2962.75           2324        7186.00     31333.28
 1180.08        2963.00           2328        8766.00     38237.13
 1180.11        2963.25           2331       10110.00     44112.32
 1180.14        2963.50           2335       11820.00     51590.85
 1180.17        2963.75           2339       13603.00     59392.71
 1180.20        2964.00           2342       14949.00     65285.12
 1180.23        2964.25           2346       16778.00     73295.77
 1180.26        2964.50           2349       18229.00     79653.96
 1180.29        2964.75           2353       20028.00     87540.91
 1180.32        2965.00           2356       21301.00     93124.38
 1180.35        2965.25           2360       23088.00    100965.90
 1180.38        2965.50           2363       24383.00    106651.10
 1180.42        2965.75           2367       27769.00    121526.40
 1180.45        2966.00           2370       29427.00    128815.80
 1180.48        2966.25           2374       31306.00    137081.20
 1180.51        2966.50           2378       32408.00    141930.90
 1180.54        2966.75           2381       32508.00    142371.00
 1180.57        2967.00           2385       32635.00    142930.10
 1180.60        2967.25           2388       33026.00    144651.30
 1180.63        2967.50           2392       33065.00    144822.90
 1180.66        2967.75           2395       32904.00    144114.20
 1180.69        2968.00           2399       31774.00    139140.60
 1180.72        2968.25           2402       30845.00    135052.90
 1180.75        2968.50           2406       29009.00    126977.70
 1180.78        2968.75           2409       27883.00    122027.50
 1180.81        2969.00           2413       26357.00    115321.40
 1180.84        2969.25           2417       24648.00    107814.70
 1180.87        2969.50           2420       23417.00    102410.00
 1180.91        2969.75           2424       21454.00     93795.59
 1180.94        2970.00           2427       19839.00     86712.11
 1180.97        2970.25           2431       17609.00     76936.82
 1181.00        2970.50           2434       16266.00     71052.88
 1181.03        2970.75           2438       14385.00     62815.80
 1181.06        2971.00           2441       12969.00     56618.05
 1181.09        2971.25           2445       10954.00     47803.00
 1181.12        2971.50           2449        8643.00     37699.56
 1181.15        2971.75           2452        7094.00     30931.38
 1181.18        2972.00           2456        5133.00     22367.49
 1181.21        2972.25           2459        3690.00     16068.93
 1181.24        2972.50           2463        1912.00      8311.85
 1181.27        2972.75           2466         977.00      4234.26
 1181.30        2973.00           2470         327.00      1400.24
 1181.33        2973.25           2473         171.00       720.16
 1181.36        2973.50           2477         168.00       707.08
 1181.39        2973.75           2481         142.00       593.73
 1181.42        2974.00           2484         127.00       528.34
 1181.46        2974.25           2488         147.00       615.53
 1181.49        2974.50           2491         124.00       515.27
 1181.52        2974.75           2495         118.00       489.11
 1181.55        2975.00           2498         151.00       632.97
 1181.58        2975.25           2502         111.00       458.59
 1181.61        2975.50           2505         134.00       558.86
 1181.64        2975.75           2509         129.00       537.06
 1181.67        2976.00           2512         103.00       423.72
 1181.70        2976.25           2516         109.00       449.88
 1181.73        2976.50           2520         108.00       445.52
 1181.76        2976.75           2523         133.00       554.50
 1181.79        2977.00           2527         105.00       432.44
 1181.82        2977.25           2530         124.00       515.27
 1181.85        2977.50           2534         107.00       441.16
 1181.88        2977.75           2537          98.00       401.92
 1181.91        2978.00           2541         105.00       432.44
 1181.94        2978.25           2544         108.00       445.52
 1181.98        2978.50           2548         106.00       436.80
 1182.01        2978.75           2552         123.00       510.91
 1182.04        2979.00           2555         102.00       419.36
 1182.07        2979.25           2559         101.00       415.00
 1182.10        2979.50           2562         122.00       506.55
 1182.13        2979.75           2566          93.00       380.13
 1182.16        2980.00           2569          95.00       388.85
 1182.19        2980.25           2573          97.00       397.56
 1182.22        2980.50           2577          99.00       406.28
 1182.25        2980.75           2580         103.00       423.72
 1182.28        2981.00           2584         116.00       480.39
 1182.31        2981.25           2587          96.00       393.20
 1182.34        2981.50           2591         103.00       423.72
 1182.37        2981.75           2594         105.00       432.44
 1182.40        2982.00           2598          89.00       362.69
 1182.43        2982.25           2601          94.00       384.49
 1182.46        2982.50           2605          96.00       393.20
 1182.50        2982.75           2609         102.00       419.36
 1182.53        2983.00           2612          89.00       362.69
 1182.56        2983.25           2616          95.00       388.85
 1182.59        2983.50           2619          92.00       375.77
 1182.62        2983.75           2623          96.00       393.20
 1182.65        2984.00           2626          95.00       388.85
HS scan finished at 19:42:52
end
