************************************************************
  HS Scan of (1) Internal mercury lamp
************************************************************
Integration time is 0.2294 seconds per sample
dh010918Reading 51.44 .94 3.27pr1000
************************************************************
Dead Time -------------------------  3.4E-08 
Number of Cycles Used -------------  4 
Starting Wavelength (Angstroms) ---  2950 
Final Wavelength (Angstoms) -------  2984 
Wavelength Increment (Angstroms) --  .25 
Filter Wheel #1 Position ---------- (1) Ground quartz diffuser (ND=2.32)
Filter Wheel #2 Position ---------- (1) Neutral Density 0.494



************************************************************
HS scan start time = 01:08:05
Dark Count =  1.3 


Time (GMT)  Wavelength (Ang)  Step Number  Raw Counts  Counts/Second

   68.98        2950.00           2144         101.00       434.62
   69.18        2950.25           2147          88.00       377.95
   69.21        2950.50           2151          87.00       373.59
   69.24        2950.75           2155          91.00       391.03
   69.27        2951.00           2158          98.00       421.54
   69.30        2951.25           2162          88.00       377.95
   69.33        2951.50           2165          99.00       425.90
   69.36        2951.75           2169          91.00       391.03
   69.39        2952.00           2172          89.00       382.31
   69.42        2952.25           2176          91.00       391.03
   69.45        2952.50           2179          97.00       417.18
   69.48        2952.75           2183          84.00       360.51
   69.51        2953.00           2186         119.00       513.09
   69.54        2953.25           2190          96.00       412.82
   69.57        2953.50           2193         100.00       430.26
   69.60        2953.75           2197          93.00       399.74
   69.63        2954.00           2200          90.00       386.67
   69.67        2954.25           2204         102.00       438.98
   69.70        2954.50           2208          99.00       425.90
   69.73        2954.75           2211          99.00       425.90
   69.76        2955.00           2215         120.00       517.45
   69.79        2955.25           2218         140.00       604.63
   69.82        2955.50           2222         102.00       438.98
   69.85        2955.75           2225         104.00       447.70
   69.88        2956.00           2229         108.00       465.13
   69.91        2956.25           2232         124.00       534.88
   69.94        2956.50           2236         132.00       569.76
   69.97        2956.75           2239         125.00       539.24
   70.00        2957.00           2243         137.00       591.56
   70.03        2957.25           2246         130.00       561.04
   70.06        2957.50           2250         134.00       578.48
   70.09        2957.75           2254         109.00       469.49
   70.12        2958.00           2257         171.00       739.77
   70.15        2958.25           2261         116.00       500.01
   70.18        2958.50           2264         149.00       643.87
   70.22        2958.75           2268         147.00       635.15
   70.25        2959.00           2271         135.00       582.84
   70.28        2959.25           2275         150.00       648.23
   70.31        2959.50           2278         135.00       582.84
   70.34        2959.75           2282         164.00       709.26
   70.37        2960.00           2285         149.00       643.87
   70.40        2960.25           2289         141.00       608.99
   70.43        2960.50           2293         149.00       643.87
   70.46        2960.75           2296         150.00       648.23
   70.49        2961.00           2300         197.00       853.12
   70.52        2961.25           2303         420.00      1825.31
   70.55        2961.50           2307        1603.00      6983.79
   70.58        2961.75           2310        3011.00     13125.73
   70.61        2962.00           2314        5056.00     22050.97
   70.64        2962.25           2317        6792.00     29631.85
   70.67        2962.50           2321        9761.00     42606.14
   70.70        2962.75           2324       11872.00     51838.02
   70.74        2963.00           2328       14650.00     63995.68
   70.77        2963.25           2331       16750.00     73192.82
   70.80        2963.50           2335       19216.00     84000.24
   70.83        2963.75           2339       21725.00     95004.29
   70.86        2964.00           2342       24126.00    105542.40
   70.89        2964.25           2346       27208.00    119080.50
   70.92        2964.50           2349       29200.00    127837.40
   70.95        2964.75           2353       32076.00    140489.40
   70.98        2965.00           2356       34127.00    149518.90
   71.01        2965.25           2360       36664.00    160695.60
   71.04        2965.50           2363       38473.00    168670.30
   71.07        2965.75           2367       40774.00    178820.20
   71.10        2966.00           2370       42610.00    186924.00
   71.13        2966.25           2374       44972.00    197356.00
   71.16        2966.50           2378       45175.00    198252.90
   71.19        2966.75           2381       45699.00    200568.40
   71.22        2967.00           2385       46877.00    205775.10
   71.26        2967.25           2388       46649.00    204767.20
   71.29        2967.50           2392       46539.00    204281.00
   71.32        2967.75           2395       46652.00    204780.50
   71.35        2968.00           2399       44994.00    197453.20
   71.38        2968.25           2402       43326.00    190085.50
   71.41        2968.50           2406       40814.00    178996.70
   71.44        2968.75           2409       38778.00    170015.30
   71.47        2969.00           2413       36362.00    159364.60
   71.50        2969.25           2417       33906.00    148545.60
   71.53        2969.50           2420       31637.00    138557.50
   71.56        2969.75           2424       28793.00    126047.80
   71.59        2970.00           2427       26735.00    117002.00
   71.62        2970.25           2431       24005.00    105011.10
   71.65        2970.50           2434       22051.00     96434.68
   71.68        2970.75           2438       19489.00     85197.18
   71.71        2971.00           2441       17634.00     77066.10
   71.74        2971.25           2445       14877.00     64989.57
   71.78        2971.50           2449       11998.00     52389.23
   71.81        2971.75           2452        9836.00     42934.03
   71.84        2972.00           2456        7106.00     31003.46
   71.87        2972.25           2459        5312.00     23168.64
   71.90        2972.50           2463        3006.00     13103.92
   71.93        2972.75           2466        1527.00      6652.33
   71.96        2973.00           2470         470.00      2043.30
   71.99        2973.25           2473         240.00      1040.58
   72.02        2973.50           2477         172.00       744.13
   72.05        2973.75           2481         160.00       691.82
   72.08        2974.00           2484         153.00       661.31
   72.11        2974.25           2488         159.00       687.46
   72.14        2974.50           2491         164.00       709.26
   72.17        2974.75           2495         147.00       635.15
   72.20        2975.00           2498         145.00       626.43
   72.23        2975.25           2502         152.00       656.95
   72.26        2975.50           2505         143.00       617.71
   72.30        2975.75           2509         147.00       635.15
   72.33        2976.00           2512         156.00       674.38
   72.36        2976.25           2516         137.00       591.56
   72.39        2976.50           2520         148.00       639.51
   72.42        2976.75           2523         142.00       613.35
   72.45        2977.00           2527         139.00       600.27
   72.48        2977.25           2530         132.00       569.76
   72.51        2977.50           2534         141.00       608.99
   72.54        2977.75           2537         141.00       608.99
   72.57        2978.00           2541         132.00       569.76
   72.60        2978.25           2544         114.00       491.29
   72.63        2978.50           2548         134.00       578.48
   72.66        2978.75           2552         127.00       547.96
   72.69        2979.00           2555         111.00       478.21
   72.72        2979.25           2559         151.00       652.59
   72.75        2979.50           2562         107.00       460.77
   72.78        2979.75           2566         105.00       452.06
   72.82        2980.00           2569         104.00       447.70
   72.85        2980.25           2573         109.00       469.49
   72.88        2980.50           2577         100.00       430.26
   72.91        2980.75           2580         102.00       438.98
   72.94        2981.00           2584         109.00       469.49
   72.97        2981.25           2587         156.00       674.38
   73.00        2981.50           2591         100.00       430.26
   73.03        2981.75           2594         137.00       591.56
   73.06        2982.00           2598         107.00       460.77
   73.09        2982.25           2601          91.00       391.03
   73.12        2982.50           2605          94.00       404.10
   73.15        2982.75           2609          93.00       399.74
   73.18        2983.00           2612         121.00       521.81
   73.21        2983.25           2616         109.00       469.49
   73.24        2983.50           2619         100.00       430.26
   73.27        2983.75           2623         104.00       447.70
   73.30        2984.00           2626         113.00       486.93
HS scan finished at 01:13:32
end
************************************************************
  HS Scan of (1) Internal mercury lamp
************************************************************
Integration time is 0.2294 seconds per sample
dh010918Reading 51.44 .94 3.8pr1000
************************************************************
Dead Time -------------------------  3.4E-08 
Number of Cycles Used -------------  4 
Starting Wavelength (Angstroms) ---  2950 
Final Wavelength (Angstoms) -------  2984 
Wavelength Increment (Angstroms) --  .25 
Filter Wheel #1 Position ---------- (1) Ground quartz diffuser (ND=2.32)
Filter Wheel #2 Position ---------- (1) Neutral Density 0.494



************************************************************
HS scan start time = 19:37:26
Dark Count =  6.8 


Time (GMT)  Wavelength (Ang)  Step Number  Raw Counts  Counts/Second

 1178.33        2950.00           2144          61.00       236.27
 1178.52        2950.25           2147          60.00       231.91
 1178.55        2950.50           2151          59.00       227.55
 1178.58        2950.75           2155          62.00       240.63
 1178.61        2951.00           2158          66.00       258.07
 1178.64        2951.25           2162          64.00       249.35
 1178.67        2951.50           2165          69.00       271.14
 1178.70        2951.75           2169          58.00       223.19
 1178.73        2952.00           2172          60.00       231.91
 1178.76        2952.25           2176          66.00       258.07
 1178.79        2952.50           2179          65.00       253.71
 1178.83        2952.75           2183          61.00       236.27
 1178.86        2953.00           2186          69.00       271.14
 1178.90        2953.25           2190          64.00       249.35
 1178.93        2953.50           2193          64.00       249.35
 1178.96        2953.75           2197          67.00       262.43
 1178.99        2954.00           2200          68.00       266.79
 1179.02        2954.25           2204          67.00       262.43
 1179.05        2954.50           2208          83.00       332.17
 1179.08        2954.75           2211          72.00       284.22
 1179.11        2955.00           2215          70.00       275.50
 1179.14        2955.25           2218          76.00       301.66
 1179.17        2955.50           2222          82.00       327.82
 1179.20        2955.75           2225          73.00       288.58
 1179.23        2956.00           2229          75.00       297.30
 1179.26        2956.25           2232          65.00       253.71
 1179.29        2956.50           2236          74.00       292.94
 1179.32        2956.75           2239          76.00       301.66
 1179.35        2957.00           2243          75.00       297.30
 1179.38        2957.25           2246          79.00       314.74
 1179.42        2957.50           2250          70.00       275.50
 1179.45        2957.75           2254          80.00       319.10
 1179.48        2958.00           2257          82.00       327.82
 1179.51        2958.25           2261          74.00       292.94
 1179.54        2958.50           2264          87.00       349.61
 1179.57        2958.75           2268          89.00       358.33
 1179.60        2959.00           2271          85.00       340.89
 1179.63        2959.25           2275          87.00       349.61
 1179.66        2959.50           2278          91.00       367.05
 1179.69        2959.75           2282          94.00       380.13
 1179.72        2960.00           2285          93.00       375.77
 1179.75        2960.25           2289         100.00       406.28
 1179.78        2960.50           2293         102.00       415.00
 1179.81        2960.75           2296          95.00       384.49
 1179.84        2961.00           2300         114.00       467.31
 1179.87        2961.25           2303         192.00       807.35
 1179.90        2961.50           2307         761.00      3288.08
 1179.94        2961.75           2310        1596.00      6929.27
 1179.97        2962.00           2314        2895.00     12595.63
 1180.00        2962.25           2317        3901.00     16985.40
 1180.03        2962.50           2321        5272.00     22969.98
 1180.06        2962.75           2324        6267.00     27314.81
 1180.09        2963.00           2328        7730.00     33705.57
 1180.12        2963.25           2331        8628.00     37629.63
 1180.15        2963.50           2335       10032.00     43766.91
 1180.18        2963.75           2339       11712.00     51114.04
 1180.21        2964.00           2342       12658.00     55252.79
 1180.24        2964.25           2346       14377.00     62776.40
 1180.27        2964.50           2349       15378.00     67159.29
 1180.30        2964.75           2353       17481.00     76371.54
 1180.33        2965.00           2356       18645.00     81472.97
 1180.36        2965.25           2360       20335.00     88882.85
 1180.39        2965.50           2363       21269.00     92979.62
 1180.42        2965.75           2367       22672.00     99135.68
 1180.46        2966.00           2370       23891.00    104486.50
 1180.49        2966.25           2374       25173.00    110115.90
 1180.52        2966.50           2378       25837.00    113032.50
 1180.55        2966.75           2381       26084.00    114117.60
 1180.58        2967.00           2385       25974.00    113634.40
 1180.61        2967.25           2388       26075.00    114078.10
 1180.64        2967.50           2392       26137.00    114350.40
 1180.67        2967.75           2395       26298.00    115057.80
 1180.70        2968.00           2399       26253.00    114860.10
 1180.73        2968.25           2402       25345.00    110871.40
 1180.76        2968.50           2406       23357.00    102142.30
 1180.79        2968.75           2409       22139.00     96796.68
 1180.82        2969.00           2413       21108.00     92273.34
 1180.85        2969.25           2417       19141.00     83647.32
 1180.88        2969.50           2420       18282.00     79881.88
 1180.91        2969.75           2424       16327.00     71315.70
 1180.94        2970.00           2427       15146.00     66143.35
 1180.97        2970.25           2431       13869.00     60552.61
 1181.01        2970.50           2434       12750.00     55655.35
 1181.04        2970.75           2438       11099.00     48432.79
 1181.07        2971.00           2441       10200.00     44501.46
 1181.10        2971.25           2445        8469.00     36934.76
 1181.13        2971.50           2449        6824.00     29747.60
 1181.17        2971.75           2452        5663.00     24677.19
 1181.20        2972.00           2456        4227.00     18408.21
 1181.23        2972.25           2459        3209.00     13965.65
 1181.26        2972.50           2463        1759.00      7640.17
 1181.29        2972.75           2466         841.00      3636.89
 1181.32        2973.00           2470         279.00      1186.62
 1181.35        2973.25           2473         150.00       624.25
 1181.38        2973.50           2477         121.00       497.83
 1181.41        2973.75           2481         125.00       515.27
 1181.44        2974.00           2484         107.00       436.80
 1181.47        2974.25           2488         107.00       436.80
 1181.50        2974.50           2491         104.00       423.72
 1181.53        2974.75           2495         100.00       406.28
 1181.56        2975.00           2498          93.00       375.77
 1181.59        2975.25           2502         101.00       410.64
 1181.62        2975.50           2505         116.00       476.03
 1181.65        2975.75           2509          98.00       397.56
 1181.68        2976.00           2512         112.00       458.59
 1181.72        2976.25           2516          98.00       397.56
 1181.75        2976.50           2520          95.00       384.49
 1181.78        2976.75           2523          97.00       393.20
 1181.81        2977.00           2527          92.00       371.41
 1181.84        2977.25           2530          83.00       332.17
 1181.87        2977.50           2534          85.00       340.89
 1181.90        2977.75           2537          86.00       345.25
 1181.93        2978.00           2541          90.00       362.69
 1181.96        2978.25           2544          82.00       327.82
 1181.99        2978.50           2548          80.00       319.10
 1182.02        2978.75           2552          93.00       375.77
 1182.05        2979.00           2555          76.00       301.66
 1182.08        2979.25           2559          78.00       310.38
 1182.11        2979.50           2562          78.00       310.38
 1182.14        2979.75           2566          83.00       332.17
 1182.17        2980.00           2569          82.00       327.82
 1182.20        2980.25           2573          87.00       349.61
 1182.24        2980.50           2577          76.00       301.66
 1182.27        2980.75           2580          76.00       301.66
 1182.30        2981.00           2584          79.00       314.74
 1182.33        2981.25           2587          75.00       297.30
 1182.36        2981.50           2591          73.00       288.58
 1182.39        2981.75           2594          79.00       314.74
 1182.42        2982.00           2598          83.00       332.17
 1182.45        2982.25           2601          78.00       310.38
 1182.48        2982.50           2605          83.00       332.17
 1182.51        2982.75           2609          75.00       297.30
 1182.54        2983.00           2612          78.00       310.38
 1182.57        2983.25           2616          81.00       323.46
 1182.60        2983.50           2619          75.00       297.30
 1182.63        2983.75           2623          82.00       327.82
 1182.66        2984.00           2626          78.00       310.38
HS scan finished at 19:42:53
end
