************************************************************
  HS Scan of (1) Internal mercury lamp
************************************************************
Integration time is 0.2294 seconds per sample
dh030918Reading 51.44 .94 3.33pr1000
************************************************************
Dead Time -------------------------  3.4E-08 
Number of Cycles Used -------------  4 
Starting Wavelength (Angstroms) ---  2950 
Final Wavelength (Angstoms) -------  2984 
Wavelength Increment (Angstroms) --  .25 
Filter Wheel #1 Position ---------- (1) Ground quartz diffuser (ND=2.32)
Filter Wheel #2 Position ---------- (1) Neutral Density 0.494



************************************************************
HS scan start time = 01:20:48
Dark Count =  1.4 


Time (GMT)  Wavelength (Ang)  Step Number  Raw Counts  Counts/Second

   81.71        2950.00           2144          59.00       251.09
   81.90        2950.25           2147          59.00       251.09
   81.93        2950.50           2151          62.00       264.17
   81.96        2950.75           2155          64.00       272.89
   81.99        2951.00           2158          55.00       233.65
   82.02        2951.25           2162          64.00       272.89
   82.05        2951.50           2165          59.00       251.09
   82.08        2951.75           2169          62.00       264.17
   82.11        2952.00           2172          64.00       272.89
   82.14        2952.25           2176          63.00       268.53
   82.17        2952.50           2179          61.00       259.81
   82.20        2952.75           2183          58.00       246.73
   82.24        2953.00           2186          52.00       220.58
   82.27        2953.25           2190          57.00       242.37
   82.30        2953.50           2193          62.00       264.17
   82.33        2953.75           2197          69.00       294.68
   82.36        2954.00           2200          69.00       294.68
   82.39        2954.25           2204          61.00       259.81
   82.42        2954.50           2208          64.00       272.89
   82.45        2954.75           2211          70.00       299.04
   82.48        2955.00           2215          58.00       246.73
   82.51        2955.25           2218          60.00       255.45
   82.54        2955.50           2222          63.00       268.53
   82.57        2955.75           2225          61.00       259.81
   82.60        2956.00           2229          64.00       272.89
   82.63        2956.25           2232          67.00       285.97
   82.66        2956.50           2236          61.00       259.81
   82.69        2956.75           2239          72.00       307.76
   82.72        2957.00           2243          64.00       272.89
   82.76        2957.25           2246          66.00       281.61
   82.79        2957.50           2250          58.00       246.73
   82.82        2957.75           2254          67.00       285.97
   82.85        2958.00           2257          67.00       285.97
   82.88        2958.25           2261          68.00       290.33
   82.91        2958.50           2264          73.00       312.12
   82.94        2958.75           2268          66.00       281.61
   82.97        2959.00           2271          76.00       325.20
   83.00        2959.25           2275          74.00       316.48
   83.03        2959.50           2278          68.00       290.33
   83.06        2959.75           2282          75.00       320.84
   83.09        2960.00           2285          81.00       347.00
   83.12        2960.25           2289          82.00       351.36
   83.15        2960.50           2293          79.00       338.28
   83.18        2960.75           2296          89.00       381.87
   83.21        2961.00           2300         140.00       604.20
   83.24        2961.25           2303         222.00       961.67
   83.27        2961.50           2307         781.00      3398.82
   83.31        2961.75           2310        1423.00      6198.34
   83.34        2962.00           2314        2410.00     10503.32
   83.37        2962.25           2317        3194.00     13923.77
   83.40        2962.50           2321        4358.00     19003.56
   83.43        2962.75           2324        5251.00     22901.87
   83.46        2963.00           2328        6309.00     27521.82
   83.49        2963.25           2331        7285.00     31784.99
   83.52        2963.50           2335        8497.00     37080.72
   83.55        2963.75           2339        9800.00     42776.21
   83.58        2964.00           2342       10755.00     46951.96
   83.61        2964.25           2346       11609.00     50687.10
   83.64        2964.50           2349       12628.00     55145.15
   83.67        2964.75           2353       13777.00     60173.55
   83.70        2965.00           2356       14820.00     64739.56
   83.73        2965.25           2360       16106.00     70371.31
   83.76        2965.50           2363       16793.00     73380.76
   83.80        2965.75           2367       17845.00     77990.31
   83.83        2966.00           2370       18350.00     80203.59
   83.86        2966.25           2374       19661.00     85950.89
   83.89        2966.50           2378       20600.00     90068.78
   83.92        2966.75           2381       20385.00     89125.81
   83.95        2967.00           2385       20377.00     89090.72
   83.98        2967.25           2388       20704.00     90524.93
   84.01        2967.50           2392       20430.00     89323.18
   84.04        2967.75           2395       20198.00     88305.71
   84.07        2968.00           2399       19778.00     86463.93
   84.10        2968.25           2402       18948.00     82824.90
   84.13        2968.50           2406       17482.00     76399.60
   84.16        2968.75           2409       16816.00     73481.53
   84.19        2969.00           2413       15752.00     68820.84
   84.22        2969.25           2417       14383.00     62826.30
   84.25        2969.50           2420       13583.00     59324.42
   84.28        2969.75           2424       12250.00     53491.27
   84.32        2970.00           2427       11378.00     49676.69
   84.35        2970.25           2431       10170.00     44393.90
   84.38        2970.50           2434        9428.00     41149.95
   84.41        2970.75           2438        7986.00     34847.72
   84.44        2971.00           2441        7208.00     31448.60
   84.47        2971.25           2445        6144.00     26801.22
   84.50        2971.50           2449        5101.00     22246.99
   84.53        2971.75           2452        4094.00     17851.29
   84.56        2972.00           2456        3169.00     13814.68
   84.59        2972.25           2459        2270.00      9892.60
   84.62        2972.50           2463        1121.00      4881.37
   84.65        2972.75           2466         543.00      2361.13
   84.68        2973.00           2470         172.00       743.70
   84.71        2973.25           2473         106.00       455.98
   84.74        2973.50           2477          95.00       408.03
   84.77        2973.75           2481          78.00       333.92
   84.80        2974.00           2484          83.00       355.71
   84.84        2974.25           2488          84.00       360.07
   84.87        2974.50           2491          77.00       329.56
   84.90        2974.75           2495          87.00       373.15
   84.93        2975.00           2498          92.00       394.95
   84.96        2975.25           2502          79.00       338.28
   84.99        2975.50           2505          80.00       342.64
   85.02        2975.75           2509          81.00       347.00
   85.05        2976.00           2512          74.00       316.48
   85.08        2976.25           2516          81.00       347.00
   85.11        2976.50           2520          83.00       355.71
   85.14        2976.75           2523          80.00       342.64
   85.17        2977.00           2527          79.00       338.28
   85.20        2977.25           2530          70.00       299.04
   85.23        2977.50           2534          67.00       285.97
   85.26        2977.75           2537          74.00       316.48
   85.29        2978.00           2541          76.00       325.20
   85.32        2978.25           2544          78.00       333.92
   85.36        2978.50           2548          72.00       307.76
   85.39        2978.75           2552          68.00       290.33
   85.42        2979.00           2555          72.00       307.76
   85.45        2979.25           2559          69.00       294.68
   85.48        2979.50           2562          65.00       277.25
   85.51        2979.75           2566          62.00       264.17
   85.54        2980.00           2569          68.00       290.33
   85.57        2980.25           2573          69.00       294.68
   85.60        2980.50           2577          71.00       303.40
   85.63        2980.75           2580          63.00       268.53
   85.66        2981.00           2584          67.00       285.97
   85.69        2981.25           2587          68.00       290.33
   85.72        2981.50           2591          60.00       255.45
   85.75        2981.75           2594          65.00       277.25
   85.78        2982.00           2598          64.00       272.89
   85.81        2982.25           2601          61.00       259.81
   85.84        2982.50           2605          67.00       285.97
   85.87        2982.75           2609          55.00       233.65
   85.91        2983.00           2612          64.00       272.89
   85.94        2983.25           2616          70.00       299.04
   85.97        2983.50           2619          52.00       220.58
   86.00        2983.75           2623          55.00       233.65
   86.03        2984.00           2626          61.00       259.81
HS scan finished at 01:26:15
end
************************************************************
  HS Scan of (1) Internal mercury lamp
************************************************************
Integration time is 0.2294 seconds per sample
dh030918Reading 51.44 .94 4.01pr1000
************************************************************
Dead Time -------------------------  3.4E-08 
Number of Cycles Used -------------  4 
Starting Wavelength (Angstroms) ---  2950 
Final Wavelength (Angstoms) -------  2984 
Wavelength Increment (Angstroms) --  .25 
Filter Wheel #1 Position ---------- (1) Ground quartz diffuser (ND=2.32)
Filter Wheel #2 Position ---------- (1) Neutral Density 0.494



************************************************************
HS scan start time = 19:37:27
Dark Count =  9.5 


Time (GMT)  Wavelength (Ang)  Step Number  Raw Counts  Counts/Second

 1178.34        2950.00           2144          77.00       294.25
 1178.54        2950.25           2147          71.00       268.09
 1178.57        2950.50           2151          80.00       307.33
 1178.60        2950.75           2155          85.00       329.12
 1178.63        2951.00           2158          78.00       298.61
 1178.66        2951.25           2162          81.00       311.69
 1178.69        2951.50           2165          85.00       329.12
 1178.72        2951.75           2169          82.00       316.05
 1178.75        2952.00           2172          80.00       307.33
 1178.78        2952.25           2176          83.00       320.40
 1178.81        2952.50           2179          87.00       337.84
 1178.84        2952.75           2183          82.00       316.05
 1178.87        2953.00           2186          89.00       346.56
 1178.90        2953.25           2190          86.00       333.48
 1178.93        2953.50           2193          86.00       333.48
 1178.96        2953.75           2197          88.00       342.20
 1178.99        2954.00           2200          88.00       342.20
 1179.03        2954.25           2204          97.00       381.43
 1179.06        2954.50           2208          91.00       355.28
 1179.09        2954.75           2211          77.00       294.25
 1179.12        2955.00           2215         100.00       394.51
 1179.15        2955.25           2218          97.00       381.43
 1179.18        2955.50           2222          88.00       342.20
 1179.21        2955.75           2225          87.00       337.84
 1179.24        2956.00           2229          88.00       342.20
 1179.27        2956.25           2232          93.00       364.00
 1179.30        2956.50           2236          88.00       342.20
 1179.33        2956.75           2239          88.00       342.20
 1179.36        2957.00           2243         101.00       398.87
 1179.39        2957.25           2246         101.00       398.87
 1179.42        2957.50           2250          99.00       390.15
 1179.45        2957.75           2254         110.00       438.11
 1179.48        2958.00           2257          97.00       381.43
 1179.51        2958.25           2261         116.00       464.26
 1179.55        2958.50           2264         131.00       529.65
 1179.58        2958.75           2268         110.00       438.11
 1179.61        2959.00           2271         115.00       459.90
 1179.64        2959.25           2275         132.00       534.01
 1179.67        2959.50           2278         113.00       451.18
 1179.70        2959.75           2282         121.00       486.06
 1179.73        2960.00           2285         151.00       616.84
 1179.76        2960.25           2289         139.00       564.53
 1179.79        2960.50           2293         149.00       608.12
 1179.82        2960.75           2296         137.00       555.81
 1179.85        2961.00           2300         176.00       725.82
 1179.88        2961.25           2303         383.00      1628.25
 1179.91        2961.50           2307        1287.00      5569.93
 1179.94        2961.75           2310        2586.00     11235.77
 1179.97        2962.00           2314        4993.00     21740.13
 1180.00        2962.25           2317        6898.00     30059.04
 1180.03        2962.50           2321        9275.00     40445.73
 1180.06        2962.75           2324       10902.00     47559.41
 1180.10        2963.00           2328       13151.00     57398.31
 1180.13        2963.25           2331       15183.00     66293.55
 1180.16        2963.50           2335       17690.00     77275.56
 1180.19        2963.75           2339       20465.00     89441.16
 1180.22        2964.00           2342       22209.00     97092.00
 1180.25        2964.25           2346       24554.00    107385.70
 1180.28        2964.50           2349       26490.00    115889.50
 1180.31        2964.75           2353       28634.00    125312.60
 1180.34        2965.00           2356       30222.00    132296.00
 1180.37        2965.25           2360       32454.00    142117.10
 1180.40        2965.50           2363       34205.00    149826.20
 1180.43        2965.75           2367       36280.00    158967.20
 1180.46        2966.00           2370       38545.00    168951.60
 1180.49        2966.25           2374       40059.00    175629.40
 1180.52        2966.50           2378       41029.00    179909.30
 1180.55        2966.75           2381       41351.00    181330.30
 1180.58        2967.00           2385       41267.00    180959.60
 1180.62        2967.25           2388       41163.00    180500.60
 1180.65        2967.50           2392       40940.00    179516.50
 1180.68        2967.75           2395       40650.00    178236.90
 1180.71        2968.00           2399       38890.00    170473.00
 1180.74        2968.25           2402       37652.00    165014.30
 1180.77        2968.50           2406       35023.00    153429.10
 1180.80        2968.75           2409       33508.00    146757.10
 1180.83        2969.00           2413       31516.00    137989.00
 1180.86        2969.25           2417       29513.00    129177.70
 1180.89        2969.50           2420       27092.00    118534.70
 1180.92        2969.75           2424       24739.00    108198.10
 1180.95        2970.00           2427       22800.00     99685.60
 1180.98        2970.25           2431       20319.00     88800.84
 1181.01        2970.50           2434       19038.00     83183.94
 1181.04        2970.75           2438       16194.00     70721.28
 1181.07        2971.00           2441       14512.00     63355.60
 1181.10        2971.25           2445       11721.00     51141.60
 1181.14        2971.50           2449        9216.00     40187.83
 1181.17        2971.75           2452        7700.00     33562.69
 1181.20        2972.00           2456        5440.00     23691.70
 1181.23        2972.25           2459        3868.00     16829.59
 1181.26        2972.50           2463        1929.00      8369.86
 1181.29        2972.75           2466         939.00      4052.43
 1181.32        2973.00           2470         327.00      1384.11
 1181.35        2973.25           2473         183.00       756.34
 1181.38        2973.50           2477         157.00       643.00
 1181.41        2973.75           2481         142.00       577.61
 1181.44        2974.00           2484         148.00       603.76
 1181.47        2974.25           2488         158.00       647.36
 1181.50        2974.50           2491         149.00       608.12
 1181.53        2974.75           2495         155.00       634.28
 1181.56        2975.00           2498         141.00       573.25
 1181.59        2975.25           2502         119.00       477.34
 1181.62        2975.50           2505         141.00       573.25
 1181.66        2975.75           2509         112.00       446.82
 1181.69        2976.00           2512         112.00       446.82
 1181.72        2976.25           2516         125.00       503.50
 1181.75        2976.50           2520         109.00       433.75
 1181.78        2976.75           2523         111.00       442.47
 1181.81        2977.00           2527         120.00       481.70
 1181.84        2977.25           2530         129.00       520.93
 1181.87        2977.50           2534          92.00       359.64
 1181.90        2977.75           2537          99.00       390.15
 1181.93        2978.00           2541         100.00       394.51
 1181.96        2978.25           2544         109.00       433.75
 1181.99        2978.50           2548          96.00       377.08
 1182.02        2978.75           2552         114.00       455.54
 1182.05        2979.00           2555         105.00       416.31
 1182.08        2979.25           2559          96.00       377.08
 1182.11        2979.50           2562          87.00       337.84
 1182.14        2979.75           2566          93.00       364.00
 1182.18        2980.00           2569          89.00       346.56
 1182.21        2980.25           2573          89.00       346.56
 1182.24        2980.50           2577          95.00       372.72
 1182.27        2980.75           2580          90.00       350.92
 1182.30        2981.00           2584          83.00       320.40
 1182.33        2981.25           2587          92.00       359.64
 1182.36        2981.50           2591          88.00       342.20
 1182.39        2981.75           2594          89.00       346.56
 1182.42        2982.00           2598          80.00       307.33
 1182.45        2982.25           2601          81.00       311.69
 1182.48        2982.50           2605          83.00       320.40
 1182.51        2982.75           2609          85.00       329.12
 1182.54        2983.00           2612          82.00       316.05
 1182.57        2983.25           2616          86.00       333.48
 1182.60        2983.50           2619          85.00       329.12
 1182.63        2983.75           2623          81.00       311.69
 1182.66        2984.00           2626          76.00       289.89
HS scan finished at 19:42:53
end
