************************************************************
  HS Scan of (1) Internal mercury lamp
************************************************************
Integration time is 0.2294 seconds per sample
dh300817Reading 51.44 .94 3.56pr1000
************************************************************
Dead Time -------------------------  3.4E-08 
Number of Cycles Used -------------  4 
Starting Wavelength (Angstroms) ---  2950 
Final Wavelength (Angstoms) -------  2984 
Wavelength Increment (Angstroms) --  .25 
Filter Wheel #1 Position ---------- (1) Ground quartz diffuser (ND=2.32)
Filter Wheel #2 Position ---------- (1) Neutral Density 0.494



************************************************************
HS scan start time = 01:30:40
Dark Count =  2.5 


Time (GMT)  Wavelength (Ang)  Step Number  Raw Counts  Counts/Second

   91.57        2950.00           2144          90.00       381.43
   91.77        2950.25           2147          97.00       411.95
   91.80        2950.50           2151          93.00       394.51
   91.83        2950.75           2155          93.00       394.51
   91.86        2951.00           2158         101.00       429.39
   91.89        2951.25           2162          96.00       407.59
   91.92        2951.50           2165          91.00       385.79
   91.95        2951.75           2169          93.00       394.51
   91.98        2952.00           2172         105.00       446.82
   92.01        2952.25           2176          95.00       403.23
   92.04        2952.50           2179          97.00       411.95
   92.07        2952.75           2183         112.00       477.34
   92.10        2953.00           2186         102.00       433.75
   92.13        2953.25           2190         120.00       512.21
   92.16        2953.50           2193         102.00       433.75
   92.20        2953.75           2197          97.00       411.95
   92.23        2954.00           2200          96.00       407.59
   92.26        2954.25           2204         127.00       542.73
   92.29        2954.50           2208          98.00       416.31
   92.32        2954.75           2211         104.00       442.47
   92.35        2955.00           2215         103.00       438.11
   92.38        2955.25           2218         110.00       468.62
   92.41        2955.50           2222         101.00       429.39
   92.44        2955.75           2225         121.00       516.57
   92.47        2956.00           2229         122.00       520.93
   92.50        2956.25           2232         105.00       446.82
   92.53        2956.50           2236         103.00       438.11
   92.56        2956.75           2239         109.00       464.26
   92.59        2957.00           2243         121.00       516.57
   92.62        2957.25           2246         142.00       608.12
   92.65        2957.50           2250         125.00       534.01
   92.68        2957.75           2254         118.00       503.50
   92.72        2958.00           2257         114.00       486.06
   92.75        2958.25           2261         135.00       577.61
   92.78        2958.50           2264         133.00       568.89
   92.81        2958.75           2268         138.00       590.68
   92.84        2959.00           2271         127.00       542.73
   92.87        2959.25           2275         143.00       612.48
   92.90        2959.50           2278         148.00       634.28
   92.93        2959.75           2282         135.00       577.61
   92.96        2960.00           2285         146.00       625.56
   92.99        2960.25           2289         149.00       638.64
   93.02        2960.50           2293         153.00       656.07
   93.05        2960.75           2296         151.00       647.36
   93.08        2961.00           2300         187.00       804.29
   93.11        2961.25           2303         415.00      1798.28
   93.14        2961.50           2307        1612.00      7017.80
   93.17        2961.75           2310        3018.00     13151.04
   93.20        2962.00           2314        5261.00     22940.73
   93.24        2962.25           2317        6756.00     29469.36
   93.28        2962.50           2321        8787.00     38343.33
   93.31        2962.75           2324       10574.00     46155.64
   93.34        2963.00           2328       13105.00     57227.64
   93.37        2963.25           2331       15167.00     66254.13
   93.40        2963.50           2335       17482.00     76394.78
   93.43        2963.75           2339       19756.00     86362.64
   93.46        2964.00           2342       21670.00     94757.72
   93.50        2964.25           2346       23893.00    104514.20
   93.53        2964.50           2349       25359.00    110951.80
   93.56        2964.75           2353       27974.00    122442.00
   93.59        2965.00           2356       29953.00    131143.60
   93.62        2965.25           2360       32308.00    141505.30
   93.65        2965.50           2363       33762.00    147906.30
   93.68        2965.75           2367       35925.00    157433.70
   93.71        2966.00           2370       37539.00    164547.00
   93.74        2966.25           2374       39163.00    171707.90
   93.77        2966.50           2378       39994.00    175373.50
   93.80        2966.75           2381       40014.00    175461.70
   93.83        2967.00           2385       40442.00    177350.00
   93.86        2967.25           2388       40315.00    176789.60
   93.89        2967.50           2392       40213.00    176339.60
   93.92        2967.75           2395       39697.00    174063.30
   93.95        2968.00           2399       38166.00    167311.30
   93.98        2968.25           2402       36872.00    161607.00
   94.02        2968.50           2406       34572.00    151473.40
   94.05        2968.75           2409       33013.00    144608.60
   94.08        2969.00           2413       30684.00    134359.10
   94.11        2969.25           2417       28567.00    125048.90
   94.14        2969.50           2420       26704.00    116860.50
   94.17        2969.75           2424       24938.00    109102.70
   94.20        2970.00           2427       22921.00    100247.40
   94.23        2970.25           2431       20463.00     89463.09
   94.26        2970.50           2434       18518.00     80935.15
   94.29        2970.75           2438       16255.00     71019.15
   94.32        2971.00           2441       14594.00     63745.25
   94.35        2971.25           2445       12464.00     54422.75
   94.38        2971.50           2449       10004.00     43663.30
   94.41        2971.75           2452        8438.00     36818.08
   94.44        2972.00           2456        6107.00     26634.84
   94.47        2972.25           2459        4439.00     19352.31
   94.50        2972.50           2463        2410.00     10498.52
   94.53        2972.75           2466        1126.00      4898.37
   94.57        2973.00           2470         317.00      1371.03
   94.60        2973.25           2473         202.00       869.69
   94.63        2973.50           2477         171.00       734.54
   94.66        2973.75           2481         146.00       625.56
   94.69        2974.00           2484         157.00       673.51
   94.72        2974.25           2488         140.00       599.40
   94.75        2974.50           2491         142.00       608.12
   94.78        2974.75           2495         148.00       634.28
   94.81        2975.00           2498         161.00       690.95
   94.84        2975.25           2502         136.00       581.96
   94.87        2975.50           2505         147.00       629.92
   94.90        2975.75           2509         140.00       599.40
   94.93        2976.00           2512         151.00       647.36
   94.96        2976.25           2516         145.00       621.20
   94.99        2976.50           2520         132.00       564.53
   95.02        2976.75           2523         133.00       568.89
   95.05        2977.00           2527         115.00       490.42
   95.09        2977.25           2530         129.00       551.45
   95.12        2977.50           2534         164.00       704.03
   95.15        2977.75           2537         136.00       581.96
   95.18        2978.00           2541         114.00       486.06
   95.21        2978.25           2544         130.00       555.81
   95.24        2978.50           2548         118.00       503.50
   95.27        2978.75           2552         122.00       520.93
   95.30        2979.00           2555         109.00       464.26
   95.33        2979.25           2559         123.00       525.29
   95.36        2979.50           2562         103.00       438.11
   95.39        2979.75           2566         118.00       503.50
   95.42        2980.00           2569         109.00       464.26
   95.45        2980.25           2573         101.00       429.39
   95.48        2980.50           2577         121.00       516.57
   95.51        2980.75           2580         120.00       512.21
   95.54        2981.00           2584         127.00       542.73
   95.57        2981.25           2587          98.00       416.31
   95.61        2981.50           2591         104.00       442.47
   95.64        2981.75           2594         122.00       520.93
   95.67        2982.00           2598         100.00       425.03
   95.71        2982.25           2601         100.00       425.03
   95.74        2982.50           2605         100.00       425.03
   95.77        2982.75           2609          97.00       411.95
   95.80        2983.00           2612          86.00       364.00
   95.83        2983.25           2616          99.00       420.67
   95.87        2983.50           2619         101.00       429.39
   95.90        2983.75           2623         100.00       425.03
   95.93        2984.00           2626         106.00       451.18
HS scan finished at 01:36:09
end
************************************************************
  HS Scan of (1) Internal mercury lamp
************************************************************
Integration time is 0.2294 seconds per sample
dh300817Reading 51.44 .94 3.45pr1000
************************************************************
Dead Time -------------------------  3.4E-08 
Number of Cycles Used -------------  4 
Starting Wavelength (Angstroms) ---  2950 
Final Wavelength (Angstoms) -------  2984 
Wavelength Increment (Angstroms) --  .25 
Filter Wheel #1 Position ---------- (1) Ground quartz diffuser (ND=2.32)
Filter Wheel #2 Position ---------- (1) Neutral Density 0.494



************************************************************
HS scan start time = 19:37:25
Dark Count =  2.2 


Time (GMT)  Wavelength (Ang)  Step Number  Raw Counts  Counts/Second

 1178.32        2950.00           2144         151.00       648.66
 1178.51        2950.25           2147         136.00       583.27
 1178.54        2950.50           2151         139.00       596.35
 1178.57        2950.75           2155         131.00       561.48
 1178.60        2951.00           2158         126.00       539.68
 1178.63        2951.25           2162         138.00       591.99
 1178.66        2951.50           2165         134.00       574.55
 1178.69        2951.75           2169         154.00       661.74
 1178.72        2952.00           2172         167.00       718.41
 1178.75        2952.25           2176         128.00       548.40
 1178.78        2952.50           2179         145.00       622.51
 1178.82        2952.75           2183         130.00       557.12
 1178.85        2953.00           2186         144.00       618.15
 1178.88        2953.25           2190         133.00       570.19
 1178.91        2953.50           2193         141.00       605.07
 1178.94        2953.75           2197         138.00       591.99
 1178.97        2954.00           2200         133.00       570.19
 1179.00        2954.25           2204         175.00       753.29
 1179.03        2954.50           2208         152.00       653.02
 1179.06        2954.75           2211         142.00       609.43
 1179.09        2955.00           2215         128.00       548.40
 1179.12        2955.25           2218         142.00       609.43
 1179.15        2955.50           2222         151.00       648.66
 1179.18        2955.75           2225         158.00       679.18
 1179.21        2956.00           2229         152.00       653.02
 1179.24        2956.25           2232         149.00       639.94
 1179.27        2956.50           2236         162.00       696.62
 1179.30        2956.75           2239         148.00       635.58
 1179.34        2957.00           2243         150.00       644.30
 1179.37        2957.25           2246         163.00       700.98
 1179.40        2957.50           2250         150.00       644.30
 1179.43        2957.75           2254         153.00       657.38
 1179.46        2958.00           2257         157.00       674.82
 1179.49        2958.25           2261         162.00       696.62
 1179.52        2958.50           2264         157.00       674.82
 1179.55        2958.75           2268         154.00       661.74
 1179.58        2959.00           2271         157.00       674.82
 1179.61        2959.25           2275         162.00       696.62
 1179.64        2959.50           2278         177.00       762.01
 1179.67        2959.75           2282         166.00       714.05
 1179.70        2960.00           2285         173.00       744.57
 1179.73        2960.25           2289         179.00       770.73
 1179.76        2960.50           2293         178.00       766.37
 1179.79        2960.75           2296         191.00       823.04
 1179.82        2961.00           2300         231.00       997.42
 1179.86        2961.25           2303         459.00      1991.42
 1179.89        2961.50           2307        1882.00      8196.71
 1179.92        2961.75           2310        3616.00     15761.72
 1179.95        2962.00           2314        6215.00     27107.80
 1179.98        2962.25           2317        8192.00     35744.38
 1180.01        2962.50           2321       10909.00     47621.94
 1180.04        2962.75           2324       12710.00     55500.45
 1180.07        2963.00           2328       15376.00     67170.68
 1180.10        2963.25           2331       17573.00     76794.85
 1180.13        2963.50           2335       21156.00     92504.09
 1180.16        2963.75           2339       24231.00    105999.50
 1180.19        2964.00           2342       26314.00    115148.30
 1180.22        2964.25           2346       28856.00    126320.80
 1180.25        2964.50           2349       31308.00    137105.90
 1180.28        2964.75           2353       34313.00    150334.00
 1180.31        2965.00           2356       36369.00    159391.60
 1180.34        2965.25           2360       39499.00    173191.20
 1180.38        2965.50           2363       41074.00    180140.10
 1180.41        2965.75           2367       44013.00    193115.60
 1180.44        2966.00           2370       45841.00    201192.00
 1180.47        2966.25           2374       48239.00    211793.40
 1180.50        2966.50           2378       50398.00    221344.80
 1180.53        2966.75           2381       50466.00    221645.70
 1180.56        2967.00           2385       50404.00    221371.40
 1180.59        2967.25           2388       50807.00    223154.90
 1180.62        2967.50           2392       50584.00    222168.00
 1180.65        2967.75           2395       50039.00    219756.20
 1180.68        2968.00           2399       49423.00    217030.70
 1180.71        2968.25           2402       47530.00    208658.20
 1180.74        2968.50           2406       44724.00    196256.40
 1180.77        2968.75           2409       42360.00    185816.30
 1180.80        2969.00           2413       39518.00    173275.00
 1180.83        2969.25           2417       36666.00    160700.40
 1180.86        2969.50           2420       34343.00    150466.10
 1180.90        2969.75           2424       31492.00    137915.50
 1180.93        2970.00           2427       28993.00    126923.20
 1180.96        2970.25           2431       25873.00    113210.90
 1180.99        2970.50           2434       23455.00    102592.60
 1181.02        2970.75           2438       20291.00     88710.06
 1181.05        2971.00           2441       18196.00     79525.11
 1181.08        2971.25           2445       15533.00     67858.21
 1181.11        2971.50           2449       12854.00     56130.56
 1181.14        2971.75           2452       10639.00     46441.19
 1181.17        2972.00           2456        7627.00     33275.64
 1181.20        2972.25           2459        5558.00     24238.80
 1181.23        2972.50           2463        2948.00     12846.94
 1181.26        2972.75           2466        1388.00      6042.22
 1181.29        2973.00           2470         415.00      1799.59
 1181.32        2973.25           2473         251.00      1084.61
 1181.35        2973.50           2477         197.00       849.20
 1181.38        2973.75           2481         184.00       792.52
 1181.42        2974.00           2484         167.00       718.41
 1181.45        2974.25           2488         179.00       770.73
 1181.48        2974.50           2491         176.00       757.65
 1181.51        2974.75           2495         151.00       648.66
 1181.54        2975.00           2498         163.00       700.98
 1181.57        2975.25           2502         159.00       683.54
 1181.60        2975.50           2505         151.00       648.66
 1181.63        2975.75           2509         151.00       648.66
 1181.66        2976.00           2512         136.00       583.27
 1181.69        2976.25           2516         138.00       591.99
 1181.72        2976.50           2520         144.00       618.15
 1181.75        2976.75           2523         152.00       653.02
 1181.78        2977.00           2527         128.00       548.40
 1181.81        2977.25           2530         146.00       626.87
 1181.84        2977.50           2534         142.00       609.43
 1181.87        2977.75           2537         130.00       557.12
 1181.90        2978.00           2541         144.00       618.15
 1181.94        2978.25           2544         118.00       504.80
 1181.97        2978.50           2548         114.00       487.37
 1182.00        2978.75           2552         112.00       478.65
 1182.03        2979.00           2555         120.00       513.52
 1182.06        2979.25           2559         124.00       530.96
 1182.09        2979.50           2562         115.00       491.73
 1182.12        2979.75           2566         106.00       452.49
 1182.15        2980.00           2569         105.00       448.13
 1182.18        2980.25           2573         122.00       522.24
 1182.21        2980.50           2577         125.00       535.32
 1182.24        2980.75           2580         109.00       465.57
 1182.27        2981.00           2584         102.00       435.05
 1182.30        2981.25           2587          93.00       395.82
 1182.33        2981.50           2591         110.00       469.93
 1182.36        2981.75           2594         104.00       443.77
 1182.39        2982.00           2598          97.00       413.26
 1182.42        2982.25           2601          98.00       417.62
 1182.46        2982.50           2605         102.00       435.05
 1182.49        2982.75           2609          97.00       413.26
 1182.52        2983.00           2612         119.00       509.16
 1182.55        2983.25           2616          94.00       400.18
 1182.58        2983.50           2619         136.00       583.27
 1182.61        2983.75           2623          93.00       395.82
 1182.64        2984.00           2626          94.00       400.18
HS scan finished at 19:42:52
end
