************************************************************
  HS Scan of (1) Internal mercury lamp
************************************************************
Integration time is 0.2294 seconds per sample
dh060918Reading 51.44 .94 3.41pr1000
************************************************************
Dead Time -------------------------  3.4E-08 
Number of Cycles Used -------------  4 
Starting Wavelength (Angstroms) ---  2950 
Final Wavelength (Angstoms) -------  2984 
Wavelength Increment (Angstroms) --  .25 
Filter Wheel #1 Position ---------- (1) Ground quartz diffuser (ND=2.32)
Filter Wheel #2 Position ---------- (1) Neutral Density 0.494



************************************************************
HS scan start time = 01:43:11
Dark Count =  2.3 


Time (GMT)  Wavelength (Ang)  Step Number  Raw Counts  Counts/Second

  104.08        2950.00           2144          64.00       268.96
  104.28        2950.25           2147          64.00       268.96
  104.31        2950.50           2151          67.00       282.04
  104.34        2950.75           2155          64.00       268.96
  104.37        2951.00           2158          65.00       273.32
  104.40        2951.25           2162          68.00       286.40
  104.43        2951.50           2165          60.00       251.53
  104.46        2951.75           2169          64.00       268.96
  104.49        2952.00           2172          65.00       273.32
  104.52        2952.25           2176          67.00       282.04
  104.55        2952.50           2179          73.00       308.20
  104.58        2952.75           2183          72.00       303.84
  104.61        2953.00           2186          64.00       268.96
  104.64        2953.25           2190          66.00       277.68
  104.68        2953.50           2193          72.00       303.84
  104.71        2953.75           2197          75.00       316.92
  104.74        2954.00           2200          78.00       329.99
  104.77        2954.25           2204          80.00       338.71
  104.80        2954.50           2208          73.00       308.20
  104.83        2954.75           2211          73.00       308.20
  104.86        2955.00           2215          72.00       303.84
  104.89        2955.25           2218          83.00       351.79
  104.92        2955.50           2222          74.00       312.56
  104.95        2955.75           2225          78.00       329.99
  104.98        2956.00           2229          73.00       308.20
  105.01        2956.25           2232          79.00       334.35
  105.04        2956.50           2236          82.00       347.43
  105.07        2956.75           2239          76.00       321.28
  105.10        2957.00           2243          83.00       351.79
  105.13        2957.25           2246          88.00       373.59
  105.16        2957.50           2250          80.00       338.71
  105.20        2957.75           2254          79.00       334.35
  105.23        2958.00           2257          87.00       369.23
  105.26        2958.25           2261          80.00       338.71
  105.29        2958.50           2264          81.00       343.07
  105.32        2958.75           2268          83.00       351.79
  105.35        2959.00           2271          86.00       364.87
  105.38        2959.25           2275          87.00       369.23
  105.41        2959.50           2278          78.00       329.99
  105.44        2959.75           2282          99.00       421.54
  105.47        2960.00           2285          96.00       408.46
  105.50        2960.25           2289         114.00       486.93
  105.53        2960.50           2293          94.00       399.74
  105.56        2960.75           2296         124.00       530.52
  105.59        2961.00           2300         169.00       726.70
  105.62        2961.25           2303         264.00      1140.85
  105.65        2961.50           2307         902.00      3922.49
  105.68        2961.75           2310        1781.00      7755.75
  105.72        2962.00           2314        3137.00     13671.13
  105.75        2962.25           2317        4265.00     18593.71
  105.78        2962.50           2321        5710.00     24902.07
  105.81        2962.75           2324        6738.00     29391.61
  105.84        2963.00           2328        8241.00     35958.06
  105.87        2963.25           2331        9364.00     40866.25
  105.90        2963.50           2335       10899.00     47577.78
  105.93        2963.75           2339       12548.00     54791.17
  105.96        2964.00           2342       13913.00     60764.91
  105.99        2964.25           2346       15486.00     67651.95
  106.02        2964.50           2349       16588.00     72478.73
  106.05        2964.75           2353       18042.00     78849.73
  106.08        2965.00           2356       18987.00     82991.91
  106.11        2965.25           2360       20608.00     90099.91
  106.14        2965.50           2363       21818.00     95407.94
  106.17        2965.75           2367       23986.00    104923.30
  106.20        2966.00           2370       25481.00    111488.50
  106.23        2966.25           2374       26853.00    117516.10
  106.27        2966.50           2378       27582.00    120719.90
  106.30        2966.75           2381       27688.00    121185.70
  106.33        2967.00           2385       28141.00    123177.00
  106.36        2967.25           2388       28110.00    123040.70
  106.39        2967.50           2392       27964.00    122398.90
  106.42        2967.75           2395       27417.00    119994.70
  106.45        2968.00           2399       26443.00    115714.60
  106.48        2968.25           2402       25208.00    110289.40
  106.51        2968.50           2406       24299.00    106297.60
  106.54        2968.75           2409       23289.00    101863.50
  106.57        2969.00           2413       21380.00     93486.31
  106.60        2969.25           2417       19833.00     86701.16
  106.63        2969.50           2420       18443.00     80607.28
  106.66        2969.75           2424       17028.00     74406.40
  106.69        2970.00           2427       15786.00     68965.80
  106.72        2970.25           2431       14181.00     61938.06
  106.75        2970.50           2434       12918.00     56410.18
  106.79        2970.75           2438       11268.00     49191.63
  106.82        2971.00           2441        9972.00     43524.26
  106.85        2971.25           2445        8282.00     36137.22
  106.88        2971.50           2449        6668.00     29085.86
  106.91        2971.75           2452        5461.00     23814.83
  106.94        2972.00           2456        3937.00     17162.15
  106.97        2972.25           2459        2932.00     12776.69
  107.00        2972.50           2463        1542.00      6713.39
  107.03        2972.75           2466         713.00      3098.41
  107.06        2973.00           2470         230.00       992.62
  107.09        2973.25           2473         159.00       683.10
  107.12        2973.50           2477         113.00       482.57
  107.15        2973.75           2481         136.00       582.84
  107.18        2974.00           2484         128.00       547.96
  107.21        2974.25           2488         124.00       530.52
  107.24        2974.50           2491         124.00       530.52
  107.27        2974.75           2495         119.00       508.73
  107.31        2975.00           2498         113.00       482.57
  107.34        2975.25           2502          97.00       412.82
  107.37        2975.50           2505          95.00       404.10
  107.40        2975.75           2509          97.00       412.82
  107.43        2976.00           2512          85.00       360.51
  107.46        2976.25           2516          84.00       356.15
  107.49        2976.50           2520          91.00       386.67
  107.52        2976.75           2523          81.00       343.07
  107.55        2977.00           2527          87.00       369.23
  107.58        2977.25           2530          86.00       364.87
  107.61        2977.50           2534          80.00       338.71
  107.64        2977.75           2537          73.00       308.20
  107.67        2978.00           2541          80.00       338.71
  107.70        2978.25           2544          80.00       338.71
  107.73        2978.50           2548          77.00       325.64
  107.76        2978.75           2552          81.00       343.07
  107.79        2979.00           2555          79.00       334.35
  107.83        2979.25           2559          71.00       299.48
  107.86        2979.50           2562          82.00       347.43
  107.89        2979.75           2566          74.00       312.56
  107.92        2980.00           2569          75.00       316.92
  107.95        2980.25           2573          81.00       343.07
  107.98        2980.50           2577          73.00       308.20
  108.01        2980.75           2580          80.00       338.71
  108.04        2981.00           2584          75.00       316.92
  108.07        2981.25           2587          78.00       329.99
  108.10        2981.50           2591          72.00       303.84
  108.13        2981.75           2594          78.00       329.99
  108.16        2982.00           2598          82.00       347.43
  108.19        2982.25           2601          81.00       343.07
  108.22        2982.50           2605          67.00       282.04
  108.25        2982.75           2609          72.00       303.84
  108.28        2983.00           2612          68.00       286.40
  108.31        2983.25           2616          80.00       338.71
  108.35        2983.50           2619          76.00       321.28
  108.38        2983.75           2623          74.00       312.56
  108.41        2984.00           2626          68.00       286.40
HS scan finished at 01:48:38
end
************************************************************
  HS Scan of (1) Internal mercury lamp
************************************************************
Integration time is 0.2294 seconds per sample
dh060918Reading 51.44 .94 3.39pr1000
************************************************************
Dead Time -------------------------  3.4E-08 
Number of Cycles Used -------------  4 
Starting Wavelength (Angstroms) ---  2950 
Final Wavelength (Angstoms) -------  2984 
Wavelength Increment (Angstroms) --  .25 
Filter Wheel #1 Position ---------- (1) Ground quartz diffuser (ND=2.32)
Filter Wheel #2 Position ---------- (1) Neutral Density 0.494



************************************************************
HS scan start time = 19:37:24
Dark Count =  1.5 


Time (GMT)  Wavelength (Ang)  Step Number  Raw Counts  Counts/Second

 1178.30        2950.00           2144          52.00       220.14
 1178.49        2950.25           2147          56.00       237.58
 1178.52        2950.50           2151          55.00       233.22
 1178.55        2950.75           2155          62.00       263.73
 1178.58        2951.00           2158          64.00       272.45
 1178.61        2951.25           2162          65.00       276.81
 1178.64        2951.50           2165          62.00       263.73
 1178.67        2951.75           2169          61.00       259.37
 1178.70        2952.00           2172          65.00       276.81
 1178.74        2952.25           2176          61.00       259.37
 1178.77        2952.50           2179          65.00       276.81
 1178.80        2952.75           2183          59.00       250.66
 1178.83        2953.00           2186          63.00       268.09
 1178.86        2953.25           2190          53.00       224.50
 1178.89        2953.50           2193          63.00       268.09
 1178.92        2953.75           2197          66.00       281.17
 1178.95        2954.00           2200          61.00       259.37
 1178.98        2954.25           2204          63.00       268.09
 1179.01        2954.50           2208          67.00       285.53
 1179.04        2954.75           2211          62.00       263.73
 1179.07        2955.00           2215          64.00       272.45
 1179.10        2955.25           2218          67.00       285.53
 1179.13        2955.50           2222          65.00       276.81
 1179.16        2955.75           2225          77.00       329.12
 1179.19        2956.00           2229          62.00       263.73
 1179.22        2956.25           2232          57.00       241.94
 1179.26        2956.50           2236          70.00       298.61
 1179.29        2956.75           2239          71.00       302.97
 1179.32        2957.00           2243          65.00       276.81
 1179.35        2957.25           2246          69.00       294.25
 1179.38        2957.50           2250          72.00       307.33
 1179.41        2957.75           2254          72.00       307.33
 1179.44        2958.00           2257          82.00       350.92
 1179.47        2958.25           2261          73.00       311.69
 1179.50        2958.50           2264          77.00       329.12
 1179.53        2958.75           2268          74.00       316.05
 1179.56        2959.00           2271          70.00       298.61
 1179.59        2959.25           2275          76.00       324.76
 1179.62        2959.50           2278          80.00       342.20
 1179.65        2959.75           2282          80.00       342.20
 1179.68        2960.00           2285          81.00       346.56
 1179.71        2960.25           2289          84.00       359.64
 1179.74        2960.50           2293          88.00       377.08
 1179.78        2960.75           2296          85.00       364.00
 1179.81        2961.00           2300         105.00       451.18
 1179.84        2961.25           2303         172.00       743.26
 1179.87        2961.50           2307         610.00      2652.81
 1179.90        2961.75           2310        1290.00      5617.90
 1179.93        2962.00           2314        2603.00     11344.83
 1179.96        2962.25           2317        3696.00     16113.88
 1179.99        2962.50           2321        4943.00     21556.77
 1180.02        2962.75           2324        5961.00     26001.62
 1180.05        2963.00           2328        7240.00     31587.96
 1180.08        2963.25           2331        8183.00     35708.11
 1180.11        2963.50           2335        9497.00     41451.15
 1180.14        2963.75           2339       10874.00     47471.94
 1180.17        2964.00           2342       11924.00     52064.63
 1180.20        2964.25           2346       13353.00     58317.35
 1180.23        2964.50           2349       14319.00     62545.69
 1180.26        2964.75           2353       15512.00     67769.31
 1180.29        2965.00           2356       16383.00     71584.22
 1180.33        2965.25           2360       17672.00     77231.75
 1180.36        2965.50           2363       18627.00     81417.31
 1180.39        2965.75           2367       20002.00     87445.75
 1180.42        2966.00           2370       20895.00     91362.27
 1180.46        2966.25           2374       22037.00     96372.38
 1180.49        2966.50           2378       22440.00     98140.80
 1180.52        2966.75           2381       22535.00     98557.71
 1180.55        2967.00           2385       22553.00     98636.69
 1180.58        2967.25           2388       22432.00     98105.69
 1180.61        2967.50           2392       22453.00     98197.84
 1180.64        2967.75           2395       22203.00     97100.78
 1180.67        2968.00           2399       21394.00     93551.22
 1180.70        2968.25           2402       20464.00     89471.84
 1180.73        2968.50           2406       19317.00     84442.18
 1180.76        2968.75           2409       18441.00     80602.02
 1180.79        2969.00           2413       17103.00     74738.50
 1180.82        2969.25           2417       15454.00     67515.31
 1180.85        2969.50           2420       14615.00     63841.57
 1180.88        2969.75           2424       13337.00     58247.33
 1180.91        2970.00           2427       12349.00     53923.98
 1180.94        2970.25           2431       11238.00     49063.91
 1180.97        2970.50           2434       10347.00     45167.39
 1181.01        2970.75           2438        8901.00     38845.96
 1181.04        2971.00           2441        7930.00     34602.59
 1181.07        2971.25           2445        6680.00     29141.77
 1181.10        2971.50           2449        5345.00     23311.85
 1181.13        2971.75           2452        4375.00     19077.32
 1181.16        2972.00           2456        3171.00     13822.97
 1181.19        2972.25           2459        2347.00     10228.06
 1181.22        2972.50           2463        1210.00      5269.03
 1181.25        2972.75           2466         567.00      2465.33
 1181.28        2973.00           2470         184.00       795.58
 1181.31        2973.25           2473         155.00       669.15
 1181.34        2973.50           2477          95.00       407.59
 1181.37        2973.75           2481         131.00       564.53
 1181.40        2974.00           2484          98.00       420.67
 1181.43        2974.25           2488          83.00       355.28
 1181.46        2974.50           2491          86.00       368.36
 1181.49        2974.75           2495          76.00       324.76
 1181.53        2975.00           2498          82.00       350.92
 1181.56        2975.25           2502          79.00       337.84
 1181.59        2975.50           2505          81.00       346.56
 1181.62        2975.75           2509          82.00       350.92
 1181.65        2976.00           2512          76.00       324.76
 1181.68        2976.25           2516          77.00       329.12
 1181.71        2976.50           2520          73.00       311.69
 1181.74        2976.75           2523          79.00       337.84
 1181.77        2977.00           2527          78.00       333.48
 1181.80        2977.25           2530          73.00       311.69
 1181.83        2977.50           2534          76.00       324.76
 1181.86        2977.75           2537          80.00       342.20
 1181.89        2978.00           2541          67.00       285.53
 1181.92        2978.25           2544          70.00       298.61
 1181.95        2978.50           2548          67.00       285.53
 1181.98        2978.75           2552          73.00       311.69
 1182.01        2979.00           2555          65.00       276.81
 1182.05        2979.25           2559          63.00       268.09
 1182.08        2979.50           2562          59.00       250.66
 1182.11        2979.75           2566          57.00       241.94
 1182.14        2980.00           2569          70.00       298.61
 1182.17        2980.25           2573          65.00       276.81
 1182.20        2980.50           2577          67.00       285.53
 1182.23        2980.75           2580          61.00       259.37
 1182.26        2981.00           2584          65.00       276.81
 1182.29        2981.25           2587          58.00       246.30
 1182.32        2981.50           2591          57.00       241.94
 1182.35        2981.75           2594          58.00       246.30
 1182.38        2982.00           2598          67.00       285.53
 1182.41        2982.25           2601          58.00       246.30
 1182.44        2982.50           2605          64.00       272.45
 1182.47        2982.75           2609          64.00       272.45
 1182.50        2983.00           2612          56.00       237.58
 1182.53        2983.25           2616          63.00       268.09
 1182.57        2983.50           2619          52.00       220.14
 1182.60        2983.75           2623          53.00       224.50
 1182.63        2984.00           2626          62.00       263.73
HS scan finished at 19:42:51
end
