************************************************************
  HS Scan of (1) Internal mercury lamp
************************************************************
Integration time is 0.2294 seconds per sample
dh280817Reading 51.44 .94 3.54pr1000
************************************************************
Dead Time -------------------------  3.4E-08 
Number of Cycles Used -------------  4 
Starting Wavelength (Angstroms) ---  2950 
Final Wavelength (Angstoms) -------  2984 
Wavelength Increment (Angstroms) --  .25 
Filter Wheel #1 Position ---------- (1) Ground quartz diffuser (ND=2.32)
Filter Wheel #2 Position ---------- (1) Neutral Density 0.494



************************************************************
HS scan start time = 01:17:16
Dark Count =  3 


Time (GMT)  Wavelength (Ang)  Step Number  Raw Counts  Counts/Second

   78.16        2950.00           2144         138.00       588.50
   78.36        2950.25           2147         108.00       457.72
   78.39        2950.50           2151         102.00       431.57
   78.42        2950.75           2155         125.00       531.83
   78.45        2951.00           2158         102.00       431.57
   78.48        2951.25           2162          98.00       414.13
   78.51        2951.50           2165         108.00       457.72
   78.54        2951.75           2169         115.00       488.24
   78.57        2952.00           2172         122.00       518.75
   78.60        2952.25           2176         122.00       518.75
   78.63        2952.50           2179         129.00       549.27
   78.66        2952.75           2183         109.00       462.08
   78.69        2953.00           2186         101.00       427.21
   78.72        2953.25           2190         121.00       514.39
   78.75        2953.50           2193         111.00       470.80
   78.79        2953.75           2197         128.00       544.91
   78.82        2954.00           2200         137.00       584.14
   78.85        2954.25           2204         111.00       470.80
   78.88        2954.50           2208         134.00       571.07
   78.91        2954.75           2211         145.00       619.02
   78.94        2955.00           2215         111.00       470.80
   78.97        2955.25           2218         135.00       575.43
   79.00        2955.50           2222         109.00       462.08
   79.03        2955.75           2225         155.00       662.61
   79.06        2956.00           2229         154.00       658.25
   79.09        2956.25           2232         159.00       680.05
   79.12        2956.50           2236         131.00       557.99
   79.15        2956.75           2239         128.00       544.91
   79.18        2957.00           2243         125.00       531.83
   79.21        2957.25           2246         155.00       662.61
   79.24        2957.50           2250         180.00       771.60
   79.27        2957.75           2254         154.00       658.25
   79.31        2958.00           2257         141.00       601.58
   79.34        2958.25           2261         142.00       605.94
   79.37        2958.50           2264         129.00       549.27
   79.40        2958.75           2268         165.00       706.21
   79.43        2959.00           2271         138.00       588.50
   79.46        2959.25           2275         136.00       579.78
   79.49        2959.50           2278         142.00       605.94
   79.52        2959.75           2282         157.00       671.33
   79.55        2960.00           2285         145.00       619.02
   79.58        2960.25           2289         156.00       666.97
   79.61        2960.50           2293         176.00       754.16
   79.64        2960.75           2296         168.00       719.29
   79.67        2961.00           2300         202.00       867.51
   79.70        2961.25           2303         451.00      1953.05
   79.73        2961.50           2307        1495.00      6505.36
   79.76        2961.75           2310        2706.00     11787.64
   79.79        2962.00           2314        5042.00     21982.42
   79.83        2962.25           2317        7210.00     31450.35
   79.86        2962.50           2321        9748.00     42541.87
   79.89        2962.75           2324       11571.00     50513.89
   79.92        2963.00           2328       13811.00     60315.37
   79.95        2963.25           2331       15835.00     69177.33
   79.98        2963.50           2335       18551.00     81077.60
   80.01        2963.75           2339       20994.00     91789.94
   80.04        2964.00           2342       22848.00     99924.78
   80.07        2964.25           2346       25453.00    111362.40
   80.10        2964.50           2349       27452.00    120145.40
   80.13        2964.75           2353       30260.00    132491.80
   80.16        2965.00           2356       32254.00    141265.40
   80.19        2965.25           2360       35130.00    153929.10
   80.22        2965.50           2363       36747.00    161053.90
   80.25        2965.75           2367       39237.00    172032.10
   80.28        2966.00           2370       40891.00    179329.00
   80.31        2966.25           2374       43083.00    189004.90
   80.35        2966.50           2378       44165.00    193783.50
   80.38        2966.75           2381       44330.00    194512.30
   80.41        2967.00           2385       44299.00    194375.40
   80.44        2967.25           2388       44355.00    194622.80
   80.47        2967.50           2392       44434.00    194971.70
   80.50        2967.75           2395       43843.00    192361.20
   80.53        2968.00           2399       41662.00    182731.60
   80.56        2968.25           2402       40204.00    176297.70
   80.59        2968.50           2406       37897.00    166123.10
   80.62        2968.75           2409       35978.00    157665.10
   80.65        2969.00           2413       33349.00    146085.60
   80.68        2969.25           2417       31443.00    137696.30
   80.71        2969.50           2420       29730.00    130160.60
   80.74        2969.75           2424       26965.00    118005.20
   80.77        2970.00           2427       24438.00    106904.90
   80.80        2970.25           2431       21609.00     94487.89
   80.84        2970.50           2434       19631.00     85812.34
   80.87        2970.75           2438       17358.00     75849.24
   80.90        2971.00           2441       15295.00     66812.46
   80.93        2971.25           2445       12722.00     55549.46
   80.96        2971.50           2449       10024.00     43748.55
   80.99        2971.75           2452        8137.00     35500.54
   81.02        2972.00           2456        5768.00     25152.28
   81.05        2972.25           2459        3984.00     17364.22
   81.08        2972.50           2463        1981.00      8625.02
   81.11        2972.75           2466         912.00      3963.04
   81.14        2973.00           2470         295.00      1272.94
   81.17        2973.25           2473         195.00       836.99
   81.20        2973.50           2477         180.00       771.60
   81.23        2973.75           2481         175.00       749.80
   81.26        2974.00           2484         164.00       701.85
   81.29        2974.25           2488         160.00       684.41
   81.32        2974.50           2491         157.00       671.33
   81.35        2974.75           2495         158.00       675.69
   81.39        2975.00           2498         157.00       671.33
   81.42        2975.25           2502         160.00       684.41
   81.45        2975.50           2505         140.00       597.22
   81.48        2975.75           2509         139.00       592.86
   81.51        2976.00           2512         162.00       693.13
   81.54        2976.25           2516         135.00       575.43
   81.57        2976.50           2520         134.00       571.07
   81.60        2976.75           2523         147.00       627.74
   81.63        2977.00           2527         148.00       632.10
   81.66        2977.25           2530         142.00       605.94
   81.69        2977.50           2534         120.00       510.03
   81.72        2977.75           2537         149.00       636.46
   81.75        2978.00           2541         125.00       531.83
   81.78        2978.25           2544         112.00       475.16
   81.81        2978.50           2548         154.00       658.25
   81.84        2978.75           2552         123.00       523.11
   81.87        2979.00           2555         125.00       531.83
   81.91        2979.25           2559         112.00       475.16
   81.94        2979.50           2562         115.00       488.24
   81.97        2979.75           2566         130.00       553.63
   82.00        2980.00           2569         121.00       514.39
   82.03        2980.25           2573         148.00       632.10
   82.06        2980.50           2577         151.00       645.18
   82.09        2980.75           2580         131.00       557.99
   82.12        2981.00           2584         118.00       501.32
   82.15        2981.25           2587         124.00       527.47
   82.19        2981.50           2591         110.00       466.44
   82.22        2981.75           2594         107.00       453.36
   82.25        2982.00           2598         125.00       531.83
   82.28        2982.25           2601         108.00       457.72
   82.31        2982.50           2605         124.00       527.47
   82.34        2982.75           2609         107.00       453.36
   82.37        2983.00           2612         108.00       457.72
   82.40        2983.25           2616         121.00       514.39
   82.43        2983.50           2619         104.00       440.29
   82.46        2983.75           2623         105.00       444.64
   82.49        2984.00           2626         101.00       427.21
HS scan finished at 01:22:43
end
************************************************************
  HS Scan of (1) Internal mercury lamp
************************************************************
Integration time is 0.2294 seconds per sample
dh280817Reading 51.44 .94 4.11pr1000
************************************************************
Dead Time -------------------------  3.4E-08 
Number of Cycles Used -------------  4 
Starting Wavelength (Angstroms) ---  2950 
Final Wavelength (Angstoms) -------  2984 
Wavelength Increment (Angstroms) --  .25 
Filter Wheel #1 Position ---------- (1) Ground quartz diffuser (ND=2.32)
Filter Wheel #2 Position ---------- (1) Neutral Density 0.494



************************************************************
HS scan start time = 20:07:19
Dark Count =  12.2 


Time (GMT)  Wavelength (Ang)  Step Number  Raw Counts  Counts/Second

 1208.21        2950.00           2144         108.00       417.62
 1208.40        2950.25           2147          88.00       330.43
 1208.43        2950.50           2151          98.00       374.02
 1208.46        2950.75           2155         112.00       435.05
 1208.49        2951.00           2158          89.00       334.79
 1208.52        2951.25           2162          92.00       347.87
 1208.55        2951.50           2165          94.00       356.59
 1208.58        2951.75           2169         102.00       391.46
 1208.61        2952.00           2172          94.00       356.59
 1208.65        2952.25           2176         119.00       465.57
 1208.68        2952.50           2179         101.00       387.10
 1208.71        2952.75           2183          98.00       374.02
 1208.74        2953.00           2186          97.00       369.66
 1208.77        2953.25           2190         114.00       443.77
 1208.80        2953.50           2193         100.00       382.74
 1208.83        2953.75           2197          94.00       356.59
 1208.86        2954.00           2200         116.00       452.49
 1208.89        2954.25           2204         101.00       387.10
 1208.92        2954.50           2208         101.00       387.10
 1208.95        2954.75           2211         102.00       391.46
 1208.98        2955.00           2215         111.00       430.70
 1209.01        2955.25           2218          97.00       369.66
 1209.04        2955.50           2222         110.00       426.34
 1209.07        2955.75           2225          98.00       374.02
 1209.10        2956.00           2229         110.00       426.34
 1209.13        2956.25           2232         139.00       552.76
 1209.17        2956.50           2236         125.00       491.73
 1209.20        2956.75           2239         110.00       426.34
 1209.23        2957.00           2243         116.00       452.49
 1209.26        2957.25           2246         143.00       570.19
 1209.29        2957.50           2250         101.00       387.10
 1209.32        2957.75           2254         118.00       461.21
 1209.35        2958.00           2257         119.00       465.57
 1209.38        2958.25           2261         115.00       448.13
 1209.41        2958.50           2264         118.00       461.21
 1209.44        2958.75           2268         124.00       487.37
 1209.47        2959.00           2271         124.00       487.37
 1209.50        2959.25           2275         124.00       487.37
 1209.53        2959.50           2278         146.00       583.27
 1209.56        2959.75           2282         128.00       504.80
 1209.59        2960.00           2285         131.00       517.88
 1209.62        2960.25           2289         173.00       700.98
 1209.65        2960.50           2293         142.00       565.83
 1209.68        2960.75           2296         156.00       626.87
 1209.72        2961.00           2300         248.00      1027.93
 1209.75        2961.25           2303         577.00      2462.28
 1209.78        2961.50           2307        1843.00      7982.99
 1209.81        2961.75           2310        2995.00     13008.37
 1209.84        2962.00           2314        4911.00     21370.36
 1209.87        2962.25           2317        6468.00     28169.08
 1209.90        2962.50           2321        8467.00     36902.42
 1209.93        2962.75           2324        9742.00     42475.42
 1209.96        2963.00           2328       11986.00     52289.05
 1209.99        2963.25           2331       13531.00     59049.57
 1210.02        2963.50           2335       15865.00     69268.44
 1210.05        2963.75           2339       18053.00     78854.55
 1210.08        2964.00           2342       19516.00     85267.78
 1210.11        2964.25           2346       21415.00     93596.42
 1210.14        2964.50           2349       22979.00    100459.40
 1210.17        2964.75           2353       25287.00    110592.90
 1210.21        2965.00           2356       26882.00    117600.10
 1210.24        2965.25           2360       28810.00    126074.60
 1210.27        2965.50           2363       30205.00    132209.40
 1210.30        2965.75           2367       31933.00    139812.10
 1210.33        2966.00           2370       33252.00    145618.10
 1210.36        2966.25           2374       35294.00    154611.00
 1210.39        2966.50           2378       36169.00    158466.20
 1210.42        2966.75           2381       36385.00    159418.00
 1210.45        2967.00           2385       36360.00    159307.80
 1210.48        2967.25           2388       36473.00    159805.80
 1210.51        2967.50           2392       36317.00    159118.30
 1210.54        2967.75           2395       36085.00    158096.00
 1210.57        2968.00           2399       35128.00    153879.70
 1210.60        2968.25           2402       33922.00    148568.10
 1210.63        2968.50           2406       31812.00    139279.60
 1210.66        2968.75           2409       30095.00    131725.50
 1210.69        2969.00           2413       28023.00    122614.70
 1210.72        2969.25           2417       26057.00    113975.30
 1210.76        2969.50           2420       24350.00    106478.10
 1210.79        2969.75           2424       22104.00     96619.41
 1210.82        2970.00           2427       20617.00     90095.97
 1210.85        2970.25           2431       18256.00     79744.27
 1210.88        2970.50           2434       16432.00     71752.00
 1210.91        2970.75           2438       14307.00     62446.31
 1210.94        2971.00           2441       12745.00     55609.85
 1210.97        2971.25           2445       10812.00     47154.01
 1211.00        2971.50           2449        8852.00     38585.02
 1211.03        2971.75           2452        7090.00     30885.95
 1211.06        2972.00           2456        4846.00     21086.60
 1211.09        2972.25           2459        3423.00     14875.88
 1211.12        2972.50           2463        1671.00      7232.82
 1211.15        2972.75           2466         754.00      3234.01
 1211.18        2973.00           2470         254.00      1054.09
 1211.21        2973.25           2473         186.00       757.65
 1211.24        2973.50           2477         160.00       644.30
 1211.28        2973.75           2481         161.00       648.66
 1211.31        2974.00           2484         148.00       591.99
 1211.34        2974.25           2488         136.00       539.68
 1211.37        2974.50           2491         128.00       504.80
 1211.40        2974.75           2495         171.00       692.26
 1211.43        2975.00           2498         148.00       591.99
 1211.46        2975.25           2502         137.00       544.04
 1211.49        2975.50           2505         142.00       565.83
 1211.52        2975.75           2509         158.00       635.58
 1211.55        2976.00           2512         146.00       583.27
 1211.58        2976.25           2516         138.00       548.40
 1211.61        2976.50           2520         172.00       696.62
 1211.64        2976.75           2523         128.00       504.80
 1211.67        2977.00           2527         118.00       461.21
 1211.70        2977.25           2530         161.00       648.66
 1211.73        2977.50           2534         117.00       456.85
 1211.76        2977.75           2537         111.00       430.70
 1211.80        2978.00           2541         113.00       439.41
 1211.83        2978.25           2544         124.00       487.37
 1211.86        2978.50           2548         124.00       487.37
 1211.89        2978.75           2552         127.00       500.44
 1211.92        2979.00           2555         110.00       426.34
 1211.95        2979.25           2559         103.00       395.82
 1211.98        2979.50           2562         112.00       435.05
 1212.01        2979.75           2566         106.00       408.90
 1212.04        2980.00           2569          95.00       360.95
 1212.07        2980.25           2573         129.00       509.16
 1212.10        2980.50           2577         108.00       417.62
 1212.13        2980.75           2580          96.00       365.31
 1212.16        2981.00           2584         101.00       387.10
 1212.19        2981.25           2587         127.00       500.44
 1212.22        2981.50           2591          98.00       374.02
 1212.25        2981.75           2594          99.00       378.38
 1212.28        2982.00           2598          98.00       374.02
 1212.32        2982.25           2601          92.00       347.87
 1212.35        2982.50           2605          98.00       374.02
 1212.38        2982.75           2609          97.00       369.66
 1212.41        2983.00           2612         100.00       382.74
 1212.44        2983.25           2616         119.00       465.57
 1212.47        2983.50           2619         104.00       400.18
 1212.50        2983.75           2623          98.00       374.02
 1212.53        2984.00           2626          96.00       365.31
HS scan finished at 20:12:45
end
