************************************************************
  HS Scan of (1) Internal mercury lamp
************************************************************
Integration time is 0.2294 seconds per sample
dh280818Reading 51.44 .94 3.62pr1000
************************************************************
Dead Time -------------------------  3.4E-08 
Number of Cycles Used -------------  4 
Starting Wavelength (Angstroms) ---  2950 
Final Wavelength (Angstoms) -------  2984 
Wavelength Increment (Angstroms) --  .25 
Filter Wheel #1 Position ---------- (1) Ground quartz diffuser (ND=2.32)
Filter Wheel #2 Position ---------- (1) Neutral Density 0.494



************************************************************
HS scan start time = 20:07:17
Dark Count =  3.5 


Time (GMT)  Wavelength (Ang)  Step Number  Raw Counts  Counts/Second

 1208.18        2950.00           2144          67.00       276.81
 1208.37        2950.25           2147          66.00       272.45
 1208.40        2950.50           2151          65.00       268.09
 1208.43        2950.75           2155          66.00       272.45
 1208.46        2951.00           2158          57.00       233.22
 1208.49        2951.25           2162          65.00       268.09
 1208.52        2951.50           2165          67.00       276.81
 1208.55        2951.75           2169          58.00       237.58
 1208.58        2952.00           2172          60.00       246.30
 1208.61        2952.25           2176          57.00       233.22
 1208.64        2952.50           2179          63.00       259.37
 1208.67        2952.75           2183          63.00       259.37
 1208.71        2953.00           2186          66.00       272.45
 1208.74        2953.25           2190          57.00       233.22
 1208.77        2953.50           2193          65.00       268.09
 1208.80        2953.75           2197          59.00       241.94
 1208.83        2954.00           2200          62.00       255.02
 1208.86        2954.25           2204          78.00       324.76
 1208.89        2954.50           2208          68.00       281.17
 1208.92        2954.75           2211          70.00       289.89
 1208.95        2955.00           2215          75.00       311.69
 1208.98        2955.25           2218          74.00       307.33
 1209.01        2955.50           2222          68.00       281.17
 1209.04        2955.75           2225          69.00       285.53
 1209.07        2956.00           2229          65.00       268.09
 1209.10        2956.25           2232          71.00       294.25
 1209.13        2956.50           2236          72.00       298.61
 1209.16        2956.75           2239          73.00       302.97
 1209.19        2957.00           2243          84.00       350.92
 1209.23        2957.25           2246          72.00       298.61
 1209.26        2957.50           2250          74.00       307.33
 1209.29        2957.75           2254          72.00       298.61
 1209.32        2958.00           2257          81.00       337.84
 1209.35        2958.25           2261          79.00       329.12
 1209.38        2958.50           2264          82.00       342.20
 1209.41        2958.75           2268          88.00       368.36
 1209.44        2959.00           2271          87.00       364.00
 1209.47        2959.25           2275          83.00       346.56
 1209.50        2959.50           2278          84.00       350.92
 1209.53        2959.75           2282          83.00       346.56
 1209.56        2960.00           2285          86.00       359.64
 1209.59        2960.25           2289          86.00       359.64
 1209.62        2960.50           2293          90.00       377.08
 1209.65        2960.75           2296          90.00       377.08
 1209.68        2961.00           2300         121.00       512.21
 1209.72        2961.25           2303         260.00      1118.18
 1209.75        2961.50           2307         726.00      3149.86
 1209.78        2961.75           2310        1456.00      6333.10
 1209.81        2962.00           2314        2780.00     12108.30
 1209.84        2962.25           2317        3776.00     16454.28
 1209.87        2962.50           2321        5034.00     21945.31
 1209.90        2962.75           2324        6051.00     26385.91
 1209.93        2963.00           2328        7500.00     32715.10
 1209.96        2963.25           2331        8567.00     37377.46
 1209.99        2963.50           2335       10012.00     43693.90
 1210.02        2963.75           2339       11453.00     49995.55
 1210.05        2964.00           2342       12990.00     56720.01
 1210.08        2964.25           2346       14579.00     63675.20
 1210.11        2964.50           2349       15687.00     68526.96
 1210.14        2964.75           2353       17209.00     75194.18
 1210.17        2965.00           2356       18091.00     79059.22
 1210.20        2965.25           2360       19408.00     84832.38
 1210.23        2965.50           2363       20382.00     89103.44
 1210.27        2965.75           2367       21769.00     95187.69
 1210.30        2966.00           2370       22509.00     98434.82
 1210.33        2966.25           2374       23478.00    102687.90
 1210.36        2966.50           2378       23935.00    104694.20
 1210.39        2966.75           2381       24720.00    108141.00
 1210.42        2967.00           2385       24603.00    107627.20
 1210.45        2967.25           2388       24656.00    107860.00
 1210.48        2967.50           2392       24335.00    106450.40
 1210.51        2967.75           2395       24207.00    105888.40
 1210.54        2968.00           2399       23250.00    101687.10
 1210.57        2968.25           2402       22857.00     99962.09
 1210.60        2968.50           2406       21523.00     94108.41
 1210.63        2968.75           2409       20911.00     91423.68
 1210.66        2969.00           2413       19413.00     84854.31
 1210.69        2969.25           2417       17940.00     78397.46
 1210.72        2969.50           2420       16991.00     74239.03
 1210.75        2969.75           2424       15194.00     66367.99
 1210.79        2970.00           2427       14206.00     62042.25
 1210.82        2970.25           2431       12861.00     56155.51
 1210.85        2970.50           2434       11857.00     51762.77
 1210.88        2970.75           2438       10349.00     45167.39
 1210.91        2971.00           2441        9304.00     40598.72
 1210.94        2971.25           2445        7864.00     34305.47
 1210.97        2971.50           2449        6417.00     27984.33
 1211.00        2971.75           2452        5335.00     23259.45
 1211.03        2972.00           2456        4163.00     18143.27
 1211.06        2972.25           2459        3262.00     14211.31
 1211.09        2972.50           2463        1867.00      8125.61
 1211.12        2972.75           2466         925.00      4017.55
 1211.15        2973.00           2470         282.00      1214.09
 1211.18        2973.25           2473         152.00       647.36
 1211.21        2973.50           2477         110.00       464.26
 1211.24        2973.75           2481          96.00       403.23
 1211.27        2974.00           2484         100.00       420.67
 1211.31        2974.25           2488          86.00       359.64
 1211.34        2974.50           2491         108.00       455.54
 1211.37        2974.75           2495          90.00       377.08
 1211.40        2975.00           2498          90.00       377.08
 1211.43        2975.25           2502          85.00       355.28
 1211.46        2975.50           2505          81.00       337.84
 1211.49        2975.75           2509          86.00       359.64
 1211.52        2976.00           2512          92.00       385.79
 1211.55        2976.25           2516          85.00       355.28
 1211.58        2976.50           2520          85.00       355.28
 1211.61        2976.75           2523          81.00       337.84
 1211.64        2977.00           2527          81.00       337.84
 1211.67        2977.25           2530          75.00       311.69
 1211.70        2977.50           2534          75.00       311.69
 1211.73        2977.75           2537          76.00       316.05
 1211.76        2978.00           2541          76.00       316.05
 1211.79        2978.25           2544          68.00       281.17
 1211.83        2978.50           2548          66.00       272.45
 1211.86        2978.75           2552          73.00       302.97
 1211.89        2979.00           2555          75.00       311.69
 1211.92        2979.25           2559          70.00       289.89
 1211.95        2979.50           2562          77.00       320.40
 1211.98        2979.75           2566          65.00       268.09
 1212.01        2980.00           2569          71.00       294.25
 1212.04        2980.25           2573          66.00       272.45
 1212.07        2980.50           2577          67.00       276.81
 1212.10        2980.75           2580          66.00       272.45
 1212.13        2981.00           2584          74.00       307.33
 1212.16        2981.25           2587          66.00       272.45
 1212.19        2981.50           2591          68.00       281.17
 1212.22        2981.75           2594          62.00       255.02
 1212.25        2982.00           2598          61.00       250.66
 1212.28        2982.25           2601          61.00       250.66
 1212.31        2982.50           2605          60.00       246.30
 1212.35        2982.75           2609          73.00       302.97
 1212.38        2983.00           2612          69.00       285.53
 1212.41        2983.25           2616          68.00       281.17
 1212.44        2983.50           2619          65.00       268.09
 1212.47        2983.75           2623          66.00       272.45
 1212.50        2984.00           2626          64.00       263.73
HS scan finished at 20:12:43
end
