************************************************************
  HS Scan of (1) Internal mercury lamp
************************************************************
Integration time is 0.2294 seconds per sample
dh040917Reading 51.44 .94 3.29pr1000
************************************************************
Dead Time -------------------------  3.4E-08 
Number of Cycles Used -------------  4 
Starting Wavelength (Angstroms) ---  2950 
Final Wavelength (Angstoms) -------  2984 
Wavelength Increment (Angstroms) --  .25 
Filter Wheel #1 Position ---------- (1) Ground quartz diffuser (ND=2.32)
Filter Wheel #2 Position ---------- (1) Neutral Density 0.494



************************************************************
HS scan start time = 01:31:09
Dark Count =  1.2 


Time (GMT)  Wavelength (Ang)  Step Number  Raw Counts  Counts/Second

   92.05        2950.00           2144         168.00       727.13
   92.24        2950.25           2147         169.00       731.49
   92.27        2950.50           2151         156.00       674.82
   92.31        2950.75           2155         166.00       718.41
   92.34        2951.00           2158         163.00       705.34
   92.37        2951.25           2162         180.00       779.45
   92.40        2951.50           2165         175.00       757.65
   92.43        2951.75           2169         160.00       692.26
   92.46        2952.00           2172         166.00       718.41
   92.49        2952.25           2176         167.00       722.77
   92.52        2952.50           2179         171.00       740.21
   92.55        2952.75           2183         171.00       740.21
   92.58        2953.00           2186         165.00       714.05
   92.61        2953.25           2190         170.00       735.85
   92.64        2953.50           2193         180.00       779.45
   92.67        2953.75           2197         177.00       766.37
   92.70        2954.00           2200         182.00       788.16
   92.73        2954.25           2204         172.00       744.57
   92.76        2954.50           2208         177.00       766.37
   92.79        2954.75           2211         191.00       827.40
   92.82        2955.00           2215         176.00       762.01
   92.86        2955.25           2218         179.00       775.09
   92.89        2955.50           2222         193.00       836.12
   92.92        2955.75           2225         195.00       844.84
   92.95        2956.00           2229         203.00       879.71
   92.98        2956.25           2232         196.00       849.20
   93.01        2956.50           2236         193.00       836.12
   93.04        2956.75           2239         195.00       844.84
   93.07        2957.00           2243         186.00       805.60
   93.10        2957.25           2246         196.00       849.20
   93.13        2957.50           2250         202.00       875.35
   93.16        2957.75           2254         209.00       905.87
   93.19        2958.00           2257         219.00       949.46
   93.22        2958.25           2261         202.00       875.35
   93.25        2958.50           2264         239.00      1036.65
   93.28        2958.75           2268         222.00       962.54
   93.31        2959.00           2271         228.00       988.70
   93.34        2959.25           2275         226.00       979.98
   93.38        2959.50           2278         218.00       945.10
   93.41        2959.75           2282         231.00      1001.78
   93.44        2960.00           2285         254.00      1102.05
   93.47        2960.25           2289         261.00      1132.56
   93.50        2960.50           2293         263.00      1141.28
   93.53        2960.75           2296         275.00      1193.60
   93.56        2961.00           2300         314.00      1363.62
   93.59        2961.25           2303         574.00      2497.16
   93.62        2961.50           2307        2085.00      9086.50
   93.65        2961.75           2310        4248.00     18524.31
   93.68        2962.00           2314        7881.00     34389.80
   93.71        2962.25           2317       10926.00     47700.67
   93.74        2962.50           2321       14774.00     64539.03
   93.77        2962.75           2324       17809.00     77833.43
   93.80        2963.00           2328       21444.00     93771.91
   93.83        2963.25           2331       24363.00    106583.50
   93.86        2963.50           2335       28453.00    124553.40
   93.90        2963.75           2339       32568.00    142655.40
   93.93        2964.00           2342       35751.00    156672.80
   93.96        2964.25           2346       40281.00    176645.40
   93.99        2964.50           2349       43793.00    192148.40
   94.02        2964.75           2353       47378.00    207990.50
   94.05        2965.00           2356       50280.00    220827.10
   94.08        2965.25           2360       54089.00    237692.60
   94.11        2965.50           2363       56964.00    250435.50
   94.14        2965.75           2367       60746.00    267215.40
   94.17        2966.00           2370       63791.00    280739.30
   94.20        2966.25           2374       67333.00    296486.40
   94.23        2966.50           2378       69007.00    303934.50
   94.26        2966.75           2381       69518.00    306208.90
   94.30        2967.00           2385       69878.00    307811.40
   94.33        2967.25           2388       69609.00    306614.00
   94.36        2967.50           2392       69723.00    307121.50
   94.39        2967.75           2395       68793.00    302982.20
   94.42        2968.00           2399       66533.00    292928.20
   94.45        2968.25           2402       63941.00    281405.90
   94.48        2968.50           2406       60410.00    265723.80
   94.51        2968.75           2409       57898.00    254577.70
   94.54        2969.00           2413       53746.00    236173.10
   94.57        2969.25           2417       49926.00    219260.60
   94.61        2969.50           2420       46660.00    204816.30
   94.64        2969.75           2424       42191.00    185074.60
   94.67        2970.00           2427       39150.00    171656.30
   94.70        2970.25           2431       35009.00    153404.00
   94.73        2970.50           2434       32079.00    140503.10
   94.76        2970.75           2438       27629.00    120931.30
   94.79        2971.00           2441       24424.00    106851.30
   94.82        2971.25           2445       20476.00     89525.81
   94.85        2971.50           2449       16524.00     72203.21
   94.88        2971.75           2452       13485.00     58896.38
   94.91        2972.00           2456        9823.00     42877.64
   94.94        2972.25           2459        7142.00     31161.16
   94.97        2972.50           2463        3902.00     17014.20
   95.00        2972.75           2466        1819.00      7926.29
   95.03        2973.00           2470         509.00      2213.77
   95.06        2973.25           2473         319.00      1385.42
   95.09        2973.50           2477         280.00      1215.39
   95.13        2973.75           2481         259.00      1123.84
   95.16        2974.00           2484         267.00      1158.72
   95.19        2974.25           2488         262.00      1136.92
   95.22        2974.50           2491         266.00      1154.36
   95.25        2974.75           2495         250.00      1084.61
   95.28        2975.00           2498         236.00      1023.58
   95.31        2975.25           2502         225.00       975.62
   95.34        2975.50           2505         237.00      1027.93
   95.37        2975.75           2509         215.00       932.03
   95.40        2976.00           2512         242.00      1049.73
   95.43        2976.25           2516         217.00       940.75
   95.46        2976.50           2520         212.00       918.95
   95.49        2976.75           2523         210.00       910.23
   95.52        2977.00           2527         205.00       888.43
   95.55        2977.25           2530         200.00       866.63
   95.58        2977.50           2534         207.00       897.15
   95.61        2977.75           2537         203.00       879.71
   95.65        2978.00           2541         197.00       853.56
   95.68        2978.25           2544         204.00       884.07
   95.71        2978.50           2548         194.00       840.48
   95.74        2978.75           2552         206.00       892.79
   95.77        2979.00           2555         182.00       788.16
   95.80        2979.25           2559         177.00       766.37
   95.83        2979.50           2562         180.00       779.45
   95.86        2979.75           2566         190.00       823.04
   95.89        2980.00           2569         184.00       796.88
   95.92        2980.25           2573         189.00       818.68
   95.95        2980.50           2577         175.00       757.65
   95.98        2980.75           2580         177.00       766.37
   96.01        2981.00           2584         175.00       757.65
   96.04        2981.25           2587         184.00       796.88
   96.07        2981.50           2591         193.00       836.12
   96.10        2981.75           2594         172.00       744.57
   96.13        2982.00           2598         180.00       779.45
   96.17        2982.25           2601         177.00       766.37
   96.20        2982.50           2605         172.00       744.57
   96.23        2982.75           2609         173.00       748.93
   96.26        2983.00           2612         165.00       714.05
   96.29        2983.25           2616         165.00       714.05
   96.32        2983.50           2619         163.00       705.34
   96.35        2983.75           2623         163.00       705.34
   96.38        2984.00           2626         156.00       674.82
HS scan finished at 01:36:36
end
************************************************************
  HS Scan of (1) Internal mercury lamp
************************************************************
Integration time is 0.2294 seconds per sample
dh040917Reading 51.44 .94 3.76pr1000
************************************************************
Dead Time -------------------------  3.4E-08 
Number of Cycles Used -------------  4 
Starting Wavelength (Angstroms) ---  2950 
Final Wavelength (Angstoms) -------  2984 
Wavelength Increment (Angstroms) --  .25 
Filter Wheel #1 Position ---------- (1) Ground quartz diffuser (ND=2.32)
Filter Wheel #2 Position ---------- (1) Neutral Density 0.494



************************************************************
HS scan start time = 19:37:26
Dark Count =  4.6 


Time (GMT)  Wavelength (Ang)  Step Number  Raw Counts  Counts/Second

 1178.33        2950.00           2144          93.00       385.36
 1178.52        2950.25           2147          84.00       346.12
 1178.55        2950.50           2151          86.00       354.84
 1178.58        2950.75           2155          82.00       337.41
 1178.62        2951.00           2158          93.00       385.36
 1178.65        2951.25           2162          86.00       354.84
 1178.68        2951.50           2165          84.00       346.12
 1178.71        2951.75           2169          97.00       402.80
 1178.74        2952.00           2172          86.00       354.84
 1178.77        2952.25           2176          97.00       402.80
 1178.80        2952.50           2179          91.00       376.64
 1178.83        2952.75           2183          89.00       367.92
 1178.86        2953.00           2186          86.00       354.84
 1178.89        2953.25           2190          95.00       394.08
 1178.92        2953.50           2193          96.00       398.44
 1178.95        2953.75           2197          90.00       372.28
 1178.98        2954.00           2200          98.00       407.15
 1179.01        2954.25           2204          93.00       385.36
 1179.04        2954.50           2208         115.00       481.26
 1179.07        2954.75           2211          96.00       398.44
 1179.10        2955.00           2215         100.00       415.87
 1179.13        2955.25           2218          98.00       407.15
 1179.17        2955.50           2222         101.00       420.23
 1179.20        2955.75           2225          97.00       402.80
 1179.23        2956.00           2229          97.00       402.80
 1179.26        2956.25           2232         140.00       590.25
 1179.29        2956.50           2236          91.00       376.64
 1179.32        2956.75           2239         180.00       764.62
 1179.35        2957.00           2243          99.00       411.51
 1179.38        2957.25           2246         138.00       581.53
 1179.41        2957.50           2250         165.00       699.23
 1179.44        2957.75           2254         102.00       424.59
 1179.47        2958.00           2257         109.00       455.11
 1179.50        2958.25           2261         103.00       428.95
 1179.53        2958.50           2264         103.00       428.95
 1179.56        2958.75           2268         118.00       494.34
 1179.59        2959.00           2271         114.00       476.90
 1179.62        2959.25           2275         113.00       472.54
 1179.65        2959.50           2278         127.00       533.58
 1179.69        2959.75           2282         140.00       590.25
 1179.72        2960.00           2285         130.00       546.65
 1179.75        2960.25           2289         127.00       533.58
 1179.78        2960.50           2293         171.00       725.39
 1179.81        2960.75           2296         141.00       594.61
 1179.84        2961.00           2300         199.00       847.45
 1179.87        2961.25           2303         422.00      1819.64
 1179.90        2961.50           2307        1445.00      6280.33
 1179.93        2961.75           2310        2588.00     11265.87
 1179.96        2962.00           2314        4273.00     18618.58
 1179.99        2962.25           2317        5769.00     25149.66
 1180.03        2962.50           2321        7852.00     34248.23
 1180.06        2962.75           2324        9315.00     40642.00
 1180.09        2963.00           2328       11376.00     49653.95
 1180.12        2963.25           2331       13113.00     57253.46
 1180.15        2963.50           2335       14959.00     65334.17
 1180.18        2963.75           2339       17170.00     75018.49
 1180.21        2964.00           2342       18733.00     81868.37
 1180.24        2964.25           2346       20684.00     90423.18
 1180.27        2964.50           2349       22053.00     96428.98
 1180.30        2964.75           2353       24091.00    105374.20
 1180.33        2965.00           2356       25537.00    111724.40
 1180.36        2965.25           2360       27397.00    119896.70
 1180.40        2965.50           2363       28772.00    125940.90
 1180.43        2965.75           2367       30696.00    134402.70
 1180.46        2966.00           2370       31951.00    139924.80
 1180.49        2966.25           2374       33778.00    147967.50
 1180.52        2966.50           2378       34257.00    150076.80
 1180.55        2966.75           2381       34411.00    150755.10
 1180.58        2967.00           2385       34550.00    151367.20
 1180.61        2967.25           2388       35392.00    155076.20
 1180.64        2967.50           2392       35322.00    154767.80
 1180.67        2967.75           2395       35149.00    154005.70
 1180.70        2968.00           2399       33955.00    148746.90
 1180.73        2968.25           2402       32734.00    143371.10
 1180.76        2968.50           2406       30666.00    134270.70
 1180.79        2968.75           2409       28913.00    126560.90
 1180.82        2969.00           2413       27490.00    120305.40
 1180.85        2969.25           2417       25644.00    112194.40
 1180.88        2969.50           2420       23937.00    104698.10
 1180.92        2969.75           2424       21848.00     95529.49
 1180.95        2970.00           2427       20318.00     88817.94
 1180.98        2970.25           2431       18399.00     80404.35
 1181.01        2970.50           2434       16716.00     73029.41
 1181.04        2970.75           2438       14640.00     63937.46
 1181.07        2971.00           2441       13118.00     57275.34
 1181.10        2971.25           2445       10861.00     47401.53
 1181.13        2971.50           2449        8599.00     37512.51
 1181.16        2971.75           2452        6964.00     30368.74
 1181.19        2972.00           2456        5006.00     21818.27
 1181.22        2972.25           2459        3646.00     15882.16
 1181.25        2972.50           2463        1905.00      8286.56
 1181.28        2972.75           2466         900.00      3903.74
 1181.31        2973.00           2470         277.00      1187.49
 1181.34        2973.25           2473         174.00       738.47
 1181.37        2973.50           2477         135.00       568.45
 1181.40        2973.75           2481         141.00       594.61
 1181.43        2974.00           2484         147.00       620.76
 1181.47        2974.25           2488         153.00       646.92
 1181.50        2974.50           2491         147.00       620.76
 1181.53        2974.75           2495         133.00       559.73
 1181.56        2975.00           2498         154.00       651.28
 1181.59        2975.25           2502         120.00       503.06
 1181.62        2975.50           2505         130.00       546.65
 1181.65        2975.75           2509         143.00       603.33
 1181.68        2976.00           2512         140.00       590.25
 1181.71        2976.25           2516         103.00       428.95
 1181.74        2976.50           2520         136.00       572.81
 1181.77        2976.75           2523         101.00       420.23
 1181.80        2977.00           2527         125.00       524.86
 1181.83        2977.25           2530         152.00       642.56
 1181.86        2977.50           2534         111.00       463.83
 1181.89        2977.75           2537         104.00       433.31
 1181.92        2978.00           2541         110.00       459.47
 1181.96        2978.25           2544         104.00       433.31
 1181.99        2978.50           2548         106.00       442.03
 1182.02        2978.75           2552         106.00       442.03
 1182.05        2979.00           2555         121.00       507.42
 1182.08        2979.25           2559         118.00       494.34
 1182.11        2979.50           2562          95.00       394.08
 1182.14        2979.75           2566         132.00       555.37
 1182.17        2980.00           2569         121.00       507.42
 1182.20        2980.25           2573         102.00       424.59
 1182.23        2980.50           2577          90.00       372.28
 1182.26        2980.75           2580          95.00       394.08
 1182.29        2981.00           2584          92.00       381.00
 1182.32        2981.25           2587          84.00       346.12
 1182.35        2981.50           2591         100.00       415.87
 1182.38        2981.75           2594          92.00       381.00
 1182.41        2982.00           2598          96.00       398.44
 1182.44        2982.25           2601          90.00       372.28
 1182.48        2982.50           2605          86.00       354.84
 1182.51        2982.75           2609          98.00       407.15
 1182.54        2983.00           2612          85.00       350.48
 1182.57        2983.25           2616          92.00       381.00
 1182.60        2983.50           2619          93.00       385.36
 1182.63        2983.75           2623          82.00       337.41
 1182.66        2984.00           2626          83.00       341.77
HS scan finished at 19:42:53
end
