************************************************************
  HS Scan of (1) Internal mercury lamp
************************************************************
Integration time is 0.2294 seconds per sample
dh020918Reading 51.44 .94 3.29pr1000
************************************************************
Dead Time -------------------------  3.4E-08 
Number of Cycles Used -------------  4 
Starting Wavelength (Angstroms) ---  2950 
Final Wavelength (Angstoms) -------  2984 
Wavelength Increment (Angstroms) --  .25 
Filter Wheel #1 Position ---------- (1) Ground quartz diffuser (ND=2.32)
Filter Wheel #2 Position ---------- (1) Neutral Density 0.494



************************************************************
HS scan start time = 01:12:34
Dark Count =  1.4 


Time (GMT)  Wavelength (Ang)  Step Number  Raw Counts  Counts/Second

   73.46        2950.00           2144          60.00       255.45
   73.65        2950.25           2147          65.00       277.25
   73.68        2950.50           2151          63.00       268.53
   73.72        2950.75           2155          57.00       242.37
   73.75        2951.00           2158          61.00       259.81
   73.78        2951.25           2162          62.00       264.17
   73.81        2951.50           2165          64.00       272.89
   73.84        2951.75           2169          62.00       264.17
   73.87        2952.00           2172          70.00       299.04
   73.90        2952.25           2176          67.00       285.97
   73.93        2952.50           2179          66.00       281.61
   73.96        2952.75           2183          58.00       246.73
   73.99        2953.00           2186          61.00       259.81
   74.02        2953.25           2190          70.00       299.04
   74.05        2953.50           2193          63.00       268.53
   74.08        2953.75           2197          66.00       281.61
   74.11        2954.00           2200          66.00       281.61
   74.14        2954.25           2204          64.00       272.89
   74.17        2954.50           2208          68.00       290.33
   74.20        2954.75           2211          69.00       294.68
   74.23        2955.00           2215          66.00       281.61
   74.27        2955.25           2218          70.00       299.04
   74.30        2955.50           2222          75.00       320.84
   74.33        2955.75           2225          74.00       316.48
   74.36        2956.00           2229          75.00       320.84
   74.39        2956.25           2232          75.00       320.84
   74.42        2956.50           2236          85.00       364.43
   74.45        2956.75           2239          83.00       355.71
   74.48        2957.00           2243          82.00       351.36
   74.51        2957.25           2246          84.00       360.07
   74.54        2957.50           2250          85.00       364.43
   74.57        2957.75           2254          74.00       316.48
   74.60        2958.00           2257         107.00       460.34
   74.63        2958.25           2261          79.00       338.28
   74.66        2958.50           2264          85.00       364.43
   74.69        2958.75           2268          77.00       329.56
   74.72        2959.00           2271          77.00       329.56
   74.75        2959.25           2275          83.00       355.71
   74.79        2959.50           2278          77.00       329.56
   74.82        2959.75           2282          87.00       373.15
   74.85        2960.00           2285          91.00       390.59
   74.88        2960.25           2289          94.00       403.67
   74.91        2960.50           2293         119.00       512.65
   74.94        2960.75           2296          95.00       408.03
   74.97        2961.00           2300         133.00       573.68
   75.01        2961.25           2303         211.00       913.72
   75.05        2961.50           2307         756.00      3289.82
   75.08        2961.75           2310        1558.00      6787.09
   75.11        2962.00           2314        2744.00     11960.40
   75.14        2962.25           2317        3771.00     16441.62
   75.17        2962.50           2321        5291.00     23076.51
   75.20        2962.75           2324        6431.00     28054.65
   75.23        2963.00           2328        7978.00     34812.76
   75.26        2963.25           2331        9116.00     39786.13
   75.29        2963.50           2335       10562.00     46107.98
   75.32        2963.75           2339       12400.00     54147.55
   75.35        2964.00           2342       13673.00     59718.35
   75.38        2964.25           2346       15206.00     66429.73
   75.41        2964.50           2349       16359.00     71479.53
   75.44        2964.75           2353       17717.00     77429.38
   75.47        2965.00           2356       18752.00     81965.68
   75.50        2965.25           2360       20559.00     89888.96
   75.53        2965.50           2363       21387.00     93520.96
   75.58        2965.75           2367       23277.00    101814.80
   75.61        2966.00           2370       23929.00    104677.00
   75.64        2966.25           2374       26549.00    116184.30
   75.67        2966.50           2378       27256.00    119291.00
   75.70        2966.75           2381       26558.00    116223.90
   75.73        2967.00           2385       26308.00    115125.40
   75.76        2967.25           2388       26289.00    115042.00
   75.79        2967.50           2392       26246.00    114853.00
   75.83        2967.75           2395       26420.00    115617.50
   75.86        2968.00           2399       25339.00    110868.80
   75.89        2968.25           2402       24315.00    106371.80
   75.92        2968.50           2406       22823.00     99822.09
   75.95        2968.75           2409       21620.00     94543.18
   75.98        2969.00           2413       19933.00     87143.60
   76.01        2969.25           2417       18708.00     81772.81
   76.04        2969.50           2420       17657.00     77166.46
   76.07        2969.75           2424       16113.00     70401.98
   76.10        2970.00           2427       14720.00     64301.72
   76.13        2970.25           2431       13113.00     57267.46
   76.16        2970.50           2434       11744.00     51277.64
   76.19        2970.75           2438        9983.00     43576.29
   76.22        2971.00           2441        8922.00     38938.18
   76.25        2971.25           2445        7493.00     32693.69
   76.28        2971.50           2449        6137.00     26770.65
   76.31        2971.75           2452        5018.00     21884.63
   76.35        2972.00           2456        3471.00     15132.46
   76.38        2972.25           2459        2453.00     10690.90
   76.41        2972.50           2463        1235.00      5378.49
   76.44        2972.75           2466         564.00      2452.69
   76.47        2973.00           2470         200.00       865.76
   76.50        2973.25           2473         146.00       630.35
   76.53        2973.50           2477         114.00       490.85
   76.56        2973.75           2481         123.00       530.09
   76.59        2974.00           2484         100.00       429.82
   76.62        2974.25           2488         123.00       530.09
   76.65        2974.50           2491          95.00       408.03
   76.68        2974.75           2495          87.00       373.15
   76.71        2975.00           2498          89.00       381.87
   76.74        2975.25           2502         117.00       503.93
   76.77        2975.50           2505          91.00       390.59
   76.80        2975.75           2509          83.00       355.71
   76.83        2976.00           2512          78.00       333.92
   76.87        2976.25           2516          75.00       320.84
   76.90        2976.50           2520         107.00       460.34
   76.93        2976.75           2523          83.00       355.71
   76.96        2977.00           2527          80.00       342.64
   76.99        2977.25           2530          76.00       325.20
   77.02        2977.50           2534          79.00       338.28
   77.05        2977.75           2537          80.00       342.64
   77.08        2978.00           2541          82.00       351.36
   77.11        2978.25           2544          70.00       299.04
   77.14        2978.50           2548          83.00       355.71
   77.17        2978.75           2552          82.00       351.36
   77.20        2979.00           2555          74.00       316.48
   77.23        2979.25           2559          81.00       347.00
   77.26        2979.50           2562          77.00       329.56
   77.29        2979.75           2566          78.00       333.92
   77.32        2980.00           2569          79.00       338.28
   77.35        2980.25           2573          73.00       312.12
   77.38        2980.50           2577          81.00       347.00
   77.42        2980.75           2580          63.00       268.53
   77.45        2981.00           2584          76.00       325.20
   77.48        2981.25           2587          73.00       312.12
   77.51        2981.50           2591          73.00       312.12
   77.54        2981.75           2594          76.00       325.20
   77.57        2982.00           2598          74.00       316.48
   77.60        2982.25           2601          75.00       320.84
   77.63        2982.50           2605          73.00       312.12
   77.66        2982.75           2609          86.00       368.79
   77.69        2983.00           2612          68.00       290.33
   77.72        2983.25           2616          75.00       320.84
   77.75        2983.50           2619          74.00       316.48
   77.78        2983.75           2623          68.00       290.33
   77.81        2984.00           2626          73.00       312.12
HS scan finished at 01:18:02
end
************************************************************
  HS Scan of (1) Internal mercury lamp
************************************************************
Integration time is 0.2294 seconds per sample
dh020918Reading 51.44 .94 3.82pr1000
************************************************************
Dead Time -------------------------  3.4E-08 
Number of Cycles Used -------------  4 
Starting Wavelength (Angstroms) ---  2950 
Final Wavelength (Angstoms) -------  2984 
Wavelength Increment (Angstroms) --  .25 
Filter Wheel #1 Position ---------- (1) Ground quartz diffuser (ND=2.32)
Filter Wheel #2 Position ---------- (1) Neutral Density 0.494



************************************************************
HS scan start time = 19:37:23
Dark Count =  7.1 


Time (GMT)  Wavelength (Ang)  Step Number  Raw Counts  Counts/Second

 1178.29        2950.00           2144          60.00       230.60
 1178.48        2950.25           2147          67.00       261.12
 1178.51        2950.50           2151          65.00       252.40
 1178.54        2950.75           2155          66.00       256.76
 1178.57        2951.00           2158          64.00       248.04
 1178.60        2951.25           2162          64.00       248.04
 1178.64        2951.50           2165          64.00       248.04
 1178.67        2951.75           2169          62.00       239.32
 1178.70        2952.00           2172          57.00       217.53
 1178.73        2952.25           2176          65.00       252.40
 1178.76        2952.50           2179          69.00       269.84
 1178.79        2952.75           2183          60.00       230.60
 1178.82        2953.00           2186          73.00       287.27
 1178.85        2953.25           2190          68.00       265.48
 1178.88        2953.50           2193          69.00       269.84
 1178.91        2953.75           2197          69.00       269.84
 1178.94        2954.00           2200          66.00       256.76
 1178.97        2954.25           2204          71.00       278.56
 1179.00        2954.50           2208          61.00       234.96
 1179.03        2954.75           2211          61.00       234.96
 1179.06        2955.00           2215          68.00       265.48
 1179.09        2955.25           2218          73.00       287.27
 1179.12        2955.50           2222          71.00       278.56
 1179.16        2955.75           2225          72.00       282.91
 1179.19        2956.00           2229          74.00       291.63
 1179.22        2956.25           2232          72.00       282.91
 1179.25        2956.50           2236          71.00       278.56
 1179.28        2956.75           2239          66.00       256.76
 1179.31        2957.00           2243          67.00       261.12
 1179.34        2957.25           2246          69.00       269.84
 1179.37        2957.50           2250          72.00       282.91
 1179.40        2957.75           2254          76.00       300.35
 1179.43        2958.00           2257          77.00       304.71
 1179.46        2958.25           2261          78.00       309.07
 1179.49        2958.50           2264          78.00       309.07
 1179.52        2958.75           2268          82.00       326.51
 1179.55        2959.00           2271          77.00       304.71
 1179.58        2959.25           2275          84.00       335.23
 1179.61        2959.50           2278          83.00       330.87
 1179.64        2959.75           2282          83.00       330.87
 1179.68        2960.00           2285          85.00       339.59
 1179.71        2960.25           2289          87.00       348.30
 1179.74        2960.50           2293          89.00       357.02
 1179.77        2960.75           2296          86.00       343.94
 1179.80        2961.00           2300         122.00       500.88
 1179.83        2961.25           2303         162.00       675.26
 1179.86        2961.50           2307         580.00      2497.60
 1179.89        2961.75           2310        1232.00      5340.55
 1179.92        2962.00           2314        2447.00     10639.86
 1179.95        2962.25           2317        3482.00     15155.58
 1179.98        2962.50           2321        4777.00     20807.65
 1180.01        2962.75           2324        5502.00     23972.89
 1180.04        2963.00           2328        7165.00     31235.86
 1180.07        2963.25           2331        8316.00     36264.83
 1180.10        2963.50           2335        9859.00     43009.23
 1180.13        2963.75           2339       11382.00     49669.25
 1180.16        2964.00           2342       12493.00     54529.52
 1180.20        2964.25           2346       13997.00     61111.60
 1180.23        2964.50           2349       15244.00     66571.18
 1180.26        2964.75           2353       16841.00     73566.08
 1180.29        2965.00           2356       18129.00     79209.99
 1180.32        2965.25           2360       19443.00     84970.06
 1180.35        2965.50           2363       20567.00     89899.05
 1180.38        2965.75           2367       21979.00     96093.31
 1180.41        2966.00           2370       22953.00    100367.70
 1180.44        2966.25           2374       24326.00    106395.10
 1180.47        2966.50           2378       25078.00    109697.40
 1180.50        2966.75           2381       25593.00    111959.40
 1180.53        2967.00           2385       25736.00    112587.50
 1180.56        2967.25           2388       26046.00    113949.40
 1180.59        2967.50           2392       25796.00    112851.10
 1180.62        2967.75           2395       25588.00    111937.40
 1180.65        2968.00           2399       25588.00    111937.40
 1180.68        2968.25           2402       25093.00    109763.30
 1180.72        2968.50           2406       23676.00    103541.30
 1180.75        2968.75           2409       22563.00     98656.00
 1180.78        2969.00           2413       21199.00     92671.22
 1180.81        2969.25           2417       19600.00     85658.44
 1180.84        2969.50           2420       18632.00     81414.69
 1180.87        2969.75           2424       17417.00     76089.80
 1180.90        2970.00           2427       16057.00     70131.72
 1180.93        2970.25           2431       14306.00     62464.26
 1180.96        2970.50           2434       13028.00     56870.55
 1180.99        2970.75           2438       11463.00     50023.55
 1181.02        2971.00           2441       10231.00     44635.70
 1181.05        2971.25           2445        8728.00     38065.37
 1181.08        2971.50           2449        7244.00     31580.97
 1181.11        2971.75           2452        6054.00     26383.29
 1181.14        2972.00           2456        4388.00     19109.62
 1181.17        2972.25           2459        3200.00     13925.08
 1181.20        2972.50           2463        1855.00      8057.57
 1181.24        2972.75           2466        1031.00      4464.06
 1181.27        2973.00           2470         371.00      1586.40
 1181.30        2973.25           2473         174.00       727.57
 1181.33        2973.50           2477         131.00       540.11
 1181.36        2973.75           2481         111.00       452.93
 1181.39        2974.00           2484         107.00       435.49
 1181.42        2974.25           2488         105.00       426.77
 1181.45        2974.50           2491         104.00       422.41
 1181.48        2974.75           2495         114.00       466.01
 1181.51        2975.00           2498          95.00       383.18
 1181.54        2975.25           2502          95.00       383.18
 1181.57        2975.50           2505          88.00       352.66
 1181.60        2975.75           2509          91.00       365.74
 1181.63        2976.00           2512         102.00       413.69
 1181.66        2976.25           2516          85.00       339.59
 1181.69        2976.50           2520          96.00       387.54
 1181.72        2976.75           2523         104.00       422.41
 1181.75        2977.00           2527         109.00       444.21
 1181.79        2977.25           2530          80.00       317.79
 1181.82        2977.50           2534          83.00       330.87
 1181.85        2977.75           2537          85.00       339.59
 1181.88        2978.00           2541          87.00       348.30
 1181.91        2978.25           2544          80.00       317.79
 1181.94        2978.50           2548          77.00       304.71
 1181.97        2978.75           2552          72.00       282.91
 1182.00        2979.00           2555          80.00       317.79
 1182.03        2979.25           2559          69.00       269.84
 1182.06        2979.50           2562          74.00       291.63
 1182.10        2979.75           2566          78.00       309.07
 1182.13        2980.00           2569          75.00       295.99
 1182.16        2980.25           2573          75.00       295.99
 1182.19        2980.50           2577          77.00       304.71
 1182.22        2980.75           2580          76.00       300.35
 1182.26        2981.00           2584          75.00       295.99
 1182.29        2981.25           2587          72.00       282.91
 1182.32        2981.50           2591          74.00       291.63
 1182.35        2981.75           2594          70.00       274.20
 1182.38        2982.00           2598          72.00       282.91
 1182.41        2982.25           2601          65.00       252.40
 1182.44        2982.50           2605          78.00       309.07
 1182.47        2982.75           2609          72.00       282.91
 1182.50        2983.00           2612          74.00       291.63
 1182.53        2983.25           2616          74.00       291.63
 1182.56        2983.50           2619          72.00       282.91
 1182.59        2983.75           2623          77.00       304.71
 1182.62        2984.00           2626          72.00       282.91
HS scan finished at 19:42:51
end
