************************************************************
  HS Scan of (1) Internal mercury lamp
************************************************************
Integration time is 0.2294 seconds per sample
dh310818Reading 51.44 .94 3.56pr1000
************************************************************
Dead Time -------------------------  3.4E-08 
Number of Cycles Used -------------  4 
Starting Wavelength (Angstroms) ---  2950 
Final Wavelength (Angstoms) -------  2984 
Wavelength Increment (Angstroms) --  .25 
Filter Wheel #1 Position ---------- (1) Ground quartz diffuser (ND=2.32)
Filter Wheel #2 Position ---------- (1) Neutral Density 0.494



************************************************************
HS scan start time = 01:08:25
Dark Count =  2.8 


Time (GMT)  Wavelength (Ang)  Step Number  Raw Counts  Counts/Second

   69.32        2950.00           2144          52.00       214.47
   69.52        2950.25           2147          55.00       227.55
   69.55        2950.50           2151          57.00       236.27
   69.58        2950.75           2155          58.00       240.63
   69.61        2951.00           2158          56.00       231.91
   69.64        2951.25           2162          58.00       240.63
   69.67        2951.50           2165          64.00       266.79
   69.70        2951.75           2169          61.00       253.71
   69.73        2952.00           2172          63.00       262.43
   69.76        2952.25           2176          65.00       271.14
   69.79        2952.50           2179          55.00       227.55
   69.82        2952.75           2183          74.00       310.38
   69.85        2953.00           2186          62.00       258.07
   69.88        2953.25           2190          58.00       240.63
   69.91        2953.50           2193          64.00       266.79
   69.94        2953.75           2197          70.00       292.94
   69.98        2954.00           2200          64.00       266.79
   70.01        2954.25           2204          65.00       271.14
   70.04        2954.50           2208          63.00       262.43
   70.07        2954.75           2211          71.00       297.30
   70.10        2955.00           2215          67.00       279.86
   70.13        2955.25           2218          69.00       288.58
   70.16        2955.50           2222          61.00       253.71
   70.19        2955.75           2225          59.00       244.99
   70.22        2956.00           2229          72.00       301.66
   70.25        2956.25           2232          60.00       249.35
   70.28        2956.50           2236          75.00       314.74
   70.31        2956.75           2239          65.00       271.14
   70.34        2957.00           2243          74.00       310.38
   70.37        2957.25           2246          59.00       244.99
   70.40        2957.50           2250          71.00       297.30
   70.43        2957.75           2254          75.00       314.74
   70.46        2958.00           2257          73.00       306.02
   70.50        2958.25           2261          73.00       306.02
   70.53        2958.50           2264          73.00       306.02
   70.56        2958.75           2268          68.00       284.22
   70.59        2959.00           2271          71.00       297.30
   70.62        2959.25           2275          77.00       323.46
   70.65        2959.50           2278          72.00       301.66
   70.68        2959.75           2282          79.00       332.17
   70.71        2960.00           2285          80.00       336.53
   70.74        2960.25           2289          88.00       371.41
   70.77        2960.50           2293          82.00       345.25
   70.80        2960.75           2296          89.00       375.77
   70.83        2961.00           2300         106.00       449.88
   70.86        2961.25           2303         176.00       755.03
   70.89        2961.50           2307         602.00      2612.26
   70.92        2961.75           2310        1309.00      5695.09
   70.95        2962.00           2314        2364.00     10296.54
   70.98        2962.25           2317        3221.00     14035.47
   71.02        2962.50           2321        4440.00     19355.37
   71.05        2962.75           2324        5243.00     22860.83
   71.08        2963.00           2328        6789.00     29612.19
   71.11        2963.25           2331        7802.00     34037.63
   71.14        2963.50           2335        9066.00     39561.46
   71.17        2963.75           2339       10559.00     46088.73
   71.20        2964.00           2342       11449.00     49981.12
   71.23        2964.25           2346       12702.00     55462.82
   71.26        2964.50           2349       13704.00     59847.90
   71.29        2964.75           2353       15059.00     65779.91
   71.32        2965.00           2356       16163.00     70614.85
   71.35        2965.25           2360       17399.00     76029.77
   71.38        2965.50           2363       18115.00     79167.47
   71.41        2965.75           2367       19634.00     85826.37
   71.44        2966.00           2370       20430.00     89317.02
   71.47        2966.25           2374       21745.00     95085.46
   71.50        2966.50           2378       22709.00     99315.62
   71.54        2966.75           2381       22929.00    100281.20
   71.57        2967.00           2385       23095.00    101009.80
   71.60        2967.25           2388       22972.00    100469.90
   71.63        2967.50           2392       23031.00    100728.90
   71.66        2967.75           2395       23057.00    100843.00
   71.69        2968.00           2399       22582.00     98758.25
   71.72        2968.25           2402       22104.00     96660.65
   71.75        2968.50           2406       20739.00     90672.30
   71.78        2968.75           2409       19775.00     86444.62
   71.81        2969.00           2413       18364.00     80258.81
   71.84        2969.25           2417       17034.00     74430.49
   71.87        2969.50           2420       16095.00     70317.00
   71.90        2969.75           2424       14766.00     64497.00
   71.93        2970.00           2427       13759.00     60088.64
   71.96        2970.25           2431       12142.00     53012.65
   71.99        2970.50           2434       10953.00     47811.75
   72.03        2970.75           2438        9675.00     42223.61
   72.06        2971.00           2441        8746.00     38162.83
   72.09        2971.25           2445        7436.00     32438.55
   72.12        2971.50           2449        6002.00     26174.99
   72.15        2971.75           2452        5026.00     21913.45
   72.18        2972.00           2456        3701.00     16130.03
   72.21        2972.25           2459        2688.00     11709.98
   72.24        2972.50           2463        1564.00      6807.16
   72.27        2972.75           2466         845.00      3671.78
   72.30        2973.00           2470         277.00      1195.34
   72.33        2973.25           2473         141.00       602.45
   72.36        2973.50           2477          98.00       415.00
   72.39        2973.75           2481         109.00       462.95
   72.42        2974.00           2484          94.00       397.56
   72.45        2974.25           2488          91.00       384.49
   72.48        2974.50           2491          89.00       375.77
   72.51        2974.75           2495          77.00       323.46
   72.54        2975.00           2498          89.00       375.77
   72.58        2975.25           2502          79.00       332.17
   72.61        2975.50           2505          84.00       353.97
   72.64        2975.75           2509          74.00       310.38
   72.67        2976.00           2512          81.00       340.89
   72.70        2976.25           2516          79.00       332.17
   72.73        2976.50           2520          73.00       306.02
   72.76        2976.75           2523          75.00       314.74
   72.79        2977.00           2527          81.00       340.89
   72.82        2977.25           2530          69.00       288.58
   72.85        2977.50           2534          69.00       288.58
   72.88        2977.75           2537          75.00       314.74
   72.91        2978.00           2541          73.00       306.02
   72.94        2978.25           2544          69.00       288.58
   72.97        2978.50           2548          69.00       288.58
   73.00        2978.75           2552          52.00       214.47
   73.03        2979.00           2555          71.00       297.30
   73.06        2979.25           2559          72.00       301.66
   73.10        2979.50           2562          66.00       275.50
   73.13        2979.75           2566          62.00       258.07
   73.16        2980.00           2569          71.00       297.30
   73.19        2980.25           2573          70.00       292.94
   73.22        2980.50           2577          60.00       249.35
   73.25        2980.75           2580          64.00       266.79
   73.28        2981.00           2584          64.00       266.79
   73.31        2981.25           2587          58.00       240.63
   73.34        2981.50           2591          60.00       249.35
   73.37        2981.75           2594          59.00       244.99
   73.40        2982.00           2598          59.00       244.99
   73.43        2982.25           2601          62.00       258.07
   73.46        2982.50           2605          64.00       266.79
   73.49        2982.75           2609          66.00       275.50
   73.52        2983.00           2612          68.00       284.22
   73.55        2983.25           2616          60.00       249.35
   73.58        2983.50           2619          66.00       275.50
   73.62        2983.75           2623          58.00       240.63
   73.65        2984.00           2626          63.00       262.43
HS scan finished at 01:13:52
end
************************************************************
  HS Scan of (1) Internal mercury lamp
************************************************************
Integration time is 0.2294 seconds per sample
dh310818Reading 51.44 .94 3.78pr1000
************************************************************
Dead Time -------------------------  3.4E-08 
Number of Cycles Used -------------  4 
Starting Wavelength (Angstroms) ---  2950 
Final Wavelength (Angstoms) -------  2984 
Wavelength Increment (Angstroms) --  .25 
Filter Wheel #1 Position ---------- (1) Ground quartz diffuser (ND=2.32)
Filter Wheel #2 Position ---------- (1) Neutral Density 0.494



************************************************************
HS scan start time = 19:37:24
Dark Count =  5.6 


Time (GMT)  Wavelength (Ang)  Step Number  Raw Counts  Counts/Second

 1178.30        2950.00           2144         110.00       455.11
 1178.49        2950.25           2147          81.00       328.69
 1178.52        2950.50           2151          82.00       333.05
 1178.55        2950.75           2155          88.00       359.20
 1178.58        2951.00           2158          92.00       376.64
 1178.61        2951.25           2162         101.00       415.87
 1178.64        2951.50           2165          91.00       372.28
 1178.67        2951.75           2169          87.00       354.84
 1178.70        2952.00           2172          91.00       372.28
 1178.73        2952.25           2176          87.00       354.84
 1178.77        2952.50           2179          94.00       385.36
 1178.80        2952.75           2183          86.00       350.48
 1178.83        2953.00           2186          96.00       394.08
 1178.86        2953.25           2190          93.00       381.00
 1178.89        2953.50           2193         133.00       555.37
 1178.92        2953.75           2197          93.00       381.00
 1178.95        2954.00           2200         108.00       446.39
 1178.98        2954.25           2204         107.00       442.03
 1179.01        2954.50           2208         115.00       476.90
 1179.04        2954.75           2211         100.00       411.51
 1179.07        2955.00           2215          94.00       385.36
 1179.10        2955.25           2218          93.00       381.00
 1179.13        2955.50           2222         108.00       446.39
 1179.16        2955.75           2225         119.00       494.34
 1179.19        2956.00           2229         103.00       424.59
 1179.22        2956.25           2232          98.00       402.80
 1179.25        2956.50           2236         116.00       481.26
 1179.29        2956.75           2239         105.00       433.31
 1179.32        2957.00           2243         104.00       428.95
 1179.35        2957.25           2246         127.00       529.22
 1179.38        2957.50           2250         123.00       511.78
 1179.41        2957.75           2254         111.00       459.47
 1179.44        2958.00           2257         126.00       524.86
 1179.47        2958.25           2261         123.00       511.78
 1179.50        2958.50           2264         113.00       468.19
 1179.53        2958.75           2268         116.00       481.26
 1179.56        2959.00           2271         154.00       646.92
 1179.59        2959.25           2275         125.00       520.50
 1179.62        2959.50           2278         135.00       564.09
 1179.65        2959.75           2282         147.00       616.40
 1179.68        2960.00           2285         146.00       612.04
 1179.71        2960.25           2289         168.00       707.95
 1179.74        2960.50           2293         143.00       598.97
 1179.77        2960.75           2296         150.00       629.48
 1179.81        2961.00           2300         166.00       699.23
 1179.84        2961.25           2303         367.00      1575.50
 1179.87        2961.50           2307        1348.00      5852.95
 1179.90        2961.75           2310        2794.00     12160.21
 1179.93        2962.00           2314        5091.00     22185.00
 1179.96        2962.25           2317        7110.00     31002.15
 1179.99        2962.50           2321        9787.00     42701.02
 1180.02        2962.75           2324       11821.00     51596.11
 1180.05        2963.00           2328       14226.00     62120.61
 1180.08        2963.25           2331       16170.00     70633.25
 1180.11        2963.50           2335       19087.00     83415.85
 1180.14        2963.75           2339       21800.00     95314.49
 1180.17        2964.00           2342       23898.00    104522.50
 1180.20        2964.25           2346       27108.00    118622.20
 1180.23        2964.50           2349       28895.00    126477.30
 1180.26        2964.75           2353       31756.00    139062.20
 1180.29        2965.00           2356       33878.00    148403.40
 1180.33        2965.25           2360       36256.00    158878.60
 1180.36        2965.50           2363       37858.00    165939.70
 1180.39        2965.75           2367       40100.00    175827.40
 1180.42        2966.00           2370       41555.00    182247.90
 1180.45        2966.25           2374       43759.00    191978.80
 1180.48        2966.50           2378       44931.00    197155.90
 1180.51        2966.75           2381       45300.00    198786.30
 1180.54        2967.00           2385       45435.00    199382.80
 1180.57        2967.25           2388       45090.00    197858.40
 1180.60        2967.50           2392       45258.00    198600.70
 1180.63        2967.75           2395       44815.00    196643.40
 1180.66        2968.00           2399       43313.00    190009.10
 1180.69        2968.25           2402       41737.00    183051.10
 1180.72        2968.50           2406       39716.00    174133.40
 1180.75        2968.75           2409       37583.00    164727.40
 1180.78        2969.00           2413       34707.00    152054.30
 1180.82        2969.25           2417       31930.00    139828.00
 1180.85        2969.50           2420       30028.00    131459.90
 1180.88        2969.75           2424       27284.00    119395.60
 1180.91        2970.00           2427       25218.00    110318.90
 1180.94        2970.25           2431       22496.00     98368.56
 1180.97        2970.50           2434       21067.00     92098.76
 1181.00        2970.75           2438       18248.00     79738.12
 1181.03        2971.00           2441       16000.00     69888.63
 1181.06        2971.25           2445       13177.00     57529.16
 1181.09        2971.50           2449       10464.00     45661.07
 1181.12        2971.75           2452        8561.00     37342.06
 1181.15        2972.00           2456        6229.00     27154.09
 1181.18        2972.25           2459        4507.00     19635.60
 1181.21        2972.50           2463        2483.00     10803.44
 1181.24        2972.75           2466        1170.00      5076.73
 1181.27        2973.00           2470         354.00      1518.82
 1181.30        2973.25           2473         195.00       825.66
 1181.33        2973.50           2477         165.00       694.87
 1181.37        2973.75           2481         159.00       668.72
 1181.40        2974.00           2484         153.00       642.56
 1181.43        2974.25           2488         141.00       590.25
 1181.46        2974.50           2491         174.00       734.11
 1181.49        2974.75           2495         144.00       603.33
 1181.52        2975.00           2498         148.00       620.76
 1181.55        2975.25           2502         141.00       590.25
 1181.58        2975.50           2505         138.00       577.17
 1181.61        2975.75           2509         127.00       529.22
 1181.64        2976.00           2512         145.00       607.68
 1181.67        2976.25           2516         154.00       646.92
 1181.70        2976.50           2520         132.00       551.01
 1181.73        2976.75           2523         114.00       472.54
 1181.76        2977.00           2527         162.00       681.79
 1181.79        2977.25           2530         118.00       489.98
 1181.82        2977.50           2534         125.00       520.50
 1181.85        2977.75           2537         106.00       437.67
 1181.89        2978.00           2541         112.00       463.83
 1181.92        2978.25           2544         139.00       581.53
 1181.95        2978.50           2548         117.00       485.62
 1181.98        2978.75           2552         112.00       463.83
 1182.01        2979.00           2555         106.00       437.67
 1182.04        2979.25           2559         114.00       472.54
 1182.07        2979.50           2562         133.00       555.37
 1182.10        2979.75           2566         100.00       411.51
 1182.13        2980.00           2569         101.00       415.87
 1182.16        2980.25           2573         123.00       511.78
 1182.19        2980.50           2577         104.00       428.95
 1182.22        2980.75           2580          87.00       354.84
 1182.25        2981.00           2584          97.00       398.44
 1182.28        2981.25           2587          96.00       394.08
 1182.31        2981.50           2591          88.00       359.20
 1182.34        2981.75           2594          88.00       359.20
 1182.37        2982.00           2598          84.00       341.77
 1182.41        2982.25           2601          96.00       394.08
 1182.44        2982.50           2605          88.00       359.20
 1182.47        2982.75           2609          96.00       394.08
 1182.50        2983.00           2612          95.00       389.72
 1182.53        2983.25           2616          89.00       363.56
 1182.56        2983.50           2619          95.00       389.72
 1182.59        2983.75           2623          89.00       363.56
 1182.62        2984.00           2626          90.00       367.92
HS scan finished at 19:42:51
end
