************************************************************
  HS Scan of (1) Internal mercury lamp
************************************************************
Integration time is 0.2294 seconds per sample
dh290818Reading 51.44 .94 3.41pr1000
************************************************************
Dead Time -------------------------  3.4E-08 
Number of Cycles Used -------------  4 
Starting Wavelength (Angstroms) ---  2950 
Final Wavelength (Angstoms) -------  2984 
Wavelength Increment (Angstroms) --  .25 
Filter Wheel #1 Position ---------- (1) Ground quartz diffuser (ND=2.32)
Filter Wheel #2 Position ---------- (1) Neutral Density 0.494



************************************************************
HS scan start time = 00:33:25
Dark Count =  2.4 


Time (GMT)  Wavelength (Ang)  Step Number  Raw Counts  Counts/Second

   34.32        2950.00           2144          56.00       233.65
   34.51        2950.25           2147          66.00       277.25
   34.54        2950.50           2151          64.00       268.53
   34.57        2950.75           2155          63.00       264.17
   34.60        2951.00           2158          55.00       229.30
   34.63        2951.25           2162          61.00       255.45
   34.66        2951.50           2165          67.00       281.61
   34.69        2951.75           2169          65.00       272.89
   34.72        2952.00           2172          60.00       251.09
   34.75        2952.25           2176          62.00       259.81
   34.78        2952.50           2179          68.00       285.97
   34.81        2952.75           2183          62.00       259.81
   34.84        2953.00           2186          71.00       299.04
   34.88        2953.25           2190          63.00       264.17
   34.91        2953.50           2193          70.00       294.68
   34.94        2953.75           2197          61.00       255.45
   34.97        2954.00           2200          66.00       277.25
   35.00        2954.25           2204          63.00       264.17
   35.03        2954.50           2208          60.00       251.09
   35.06        2954.75           2211          63.00       264.17
   35.09        2955.00           2215          65.00       272.89
   35.12        2955.25           2218          64.00       268.53
   35.15        2955.50           2222          70.00       294.68
   35.18        2955.75           2225          75.00       316.48
   35.21        2956.00           2229          62.00       259.81
   35.24        2956.25           2232          69.00       290.33
   35.27        2956.50           2236          66.00       277.25
   35.30        2956.75           2239          74.00       312.12
   35.33        2957.00           2243          78.00       329.56
   35.36        2957.25           2246          78.00       329.56
   35.40        2957.50           2250          75.00       316.48
   35.43        2957.75           2254          78.00       329.56
   35.46        2958.00           2257          83.00       351.36
   35.49        2958.25           2261          78.00       329.56
   35.52        2958.50           2264          78.00       329.56
   35.55        2958.75           2268          73.00       307.76
   35.58        2959.00           2271          73.00       307.76
   35.61        2959.25           2275          74.00       312.12
   35.64        2959.50           2278          89.00       377.51
   35.67        2959.75           2282          81.00       342.64
   35.70        2960.00           2285          86.00       364.43
   35.73        2960.25           2289          86.00       364.43
   35.76        2960.50           2293          89.00       377.51
   35.79        2960.75           2296          95.00       403.67
   35.82        2961.00           2300         144.00       617.28
   35.85        2961.25           2303         270.00      1166.57
   35.88        2961.50           2307         916.00      3983.10
   35.92        2961.75           2310        1675.00      7293.00
   35.95        2962.00           2314        2812.00     12252.71
   35.98        2962.25           2317        3808.00     16598.73
   36.01        2962.50           2321        5030.00     21932.66
   36.04        2962.75           2324        6092.00     26569.76
   36.07        2963.00           2328        7432.00     32422.82
   36.10        2963.25           2331        8558.00     37342.93
   36.13        2963.50           2335       10019.00     43729.31
   36.16        2963.75           2339       11120.00     48543.87
   36.19        2964.00           2342       12211.00     53316.26
   36.22        2964.25           2346       13299.00     58077.08
   36.25        2964.50           2349       14127.00     61701.23
   36.28        2964.75           2353       15386.00     67213.58
   36.31        2965.00           2356       16301.00     71221.08
   36.34        2965.25           2360       17249.00     75374.26
   36.37        2965.50           2363       18661.00     81562.40
   36.40        2965.75           2367       19801.00     86560.39
   36.44        2966.00           2370       20452.00     89415.27
   36.47        2966.25           2374       21465.00     93858.76
   36.50        2966.50           2378       21864.00     95609.33
   36.53        2966.75           2381       21823.00     95429.44
   36.56        2967.00           2385       21790.00     95284.65
   36.59        2967.25           2388       21910.00     95811.16
   36.62        2967.50           2392       21869.00     95631.28
   36.65        2967.75           2395       21838.00     95495.26
   36.68        2968.00           2399       21394.00     93547.28
   36.71        2968.25           2402       21352.00     93363.03
   36.74        2968.50           2406       20001.00     87437.41
   36.77        2968.75           2409       19182.00     83846.36
   36.80        2969.00           2413       18041.00     78844.91
   36.83        2969.25           2417       16494.00     72066.51
   36.86        2969.50           2420       15244.00     66591.75
   36.89        2969.75           2424       13986.00     61084.01
   36.92        2970.00           2427       12889.00     56282.84
   36.96        2970.25           2431       11548.00     50415.90
   36.99        2970.50           2434       10937.00     47743.53
   37.02        2970.75           2438        9465.00     41307.32
   37.05        2971.00           2441        8503.00     37102.57
   37.08        2971.25           2445        6920.00     30186.16
   37.11        2971.50           2449        5532.00     24124.40
   37.14        2971.75           2452        4463.00     19457.51
   37.17        2972.00           2456        3193.00     13915.04
   37.20        2972.25           2459        2263.00      9857.71
   37.23        2972.50           2463        1157.00      5033.99
   37.26        2972.75           2466         572.00      2483.21
   37.29        2973.00           2470         168.00       721.90
   37.32        2973.25           2473         104.00       442.90
   37.35        2973.50           2477         116.00       495.21
   37.38        2973.75           2481          93.00       394.95
   37.41        2974.00           2484          94.00       399.31
   37.44        2974.25           2488          83.00       351.36
   37.48        2974.50           2491         107.00       455.98
   37.51        2974.75           2495          82.00       347.00
   37.54        2975.00           2498          88.00       373.15
   37.57        2975.25           2502          88.00       373.15
   37.60        2975.50           2505          80.00       338.28
   37.63        2975.75           2509          83.00       351.36
   37.66        2976.00           2512          87.00       368.79
   37.69        2976.25           2516          79.00       333.92
   37.72        2976.50           2520          91.00       386.23
   37.75        2976.75           2523          78.00       329.56
   37.78        2977.00           2527          73.00       307.76
   37.81        2977.25           2530          75.00       316.48
   37.84        2977.50           2534          87.00       368.79
   37.87        2977.75           2537          86.00       364.43
   37.90        2978.00           2541          78.00       329.56
   37.93        2978.25           2544          78.00       329.56
   37.96        2978.50           2548          79.00       333.92
   37.99        2978.75           2552          73.00       307.76
   38.03        2979.00           2555          73.00       307.76
   38.06        2979.25           2559          72.00       303.40
   38.09        2979.50           2562          67.00       281.61
   38.12        2979.75           2566          78.00       329.56
   38.15        2980.00           2569          67.00       281.61
   38.18        2980.25           2573          62.00       259.81
   38.21        2980.50           2577          67.00       281.61
   38.24        2980.75           2580          68.00       285.97
   38.27        2981.00           2584          70.00       294.68
   38.30        2981.25           2587          73.00       307.76
   38.33        2981.50           2591          68.00       285.97
   38.36        2981.75           2594          68.00       285.97
   38.39        2982.00           2598          74.00       312.12
   38.42        2982.25           2601          71.00       299.04
   38.45        2982.50           2605          72.00       303.40
   38.48        2982.75           2609          68.00       285.97
   38.51        2983.00           2612          67.00       281.61
   38.55        2983.25           2616          65.00       272.89
   38.58        2983.50           2619          62.00       259.81
   38.61        2983.75           2623          65.00       272.89
   38.64        2984.00           2626          62.00       259.81
HS scan finished at 00:38:52
end
************************************************************
  HS Scan of (1) Internal mercury lamp
************************************************************
Integration time is 0.2294 seconds per sample
dh290818Reading 51.44 .94 3.52pr1000
************************************************************
Dead Time -------------------------  3.4E-08 
Number of Cycles Used -------------  4 
Starting Wavelength (Angstroms) ---  2950 
Final Wavelength (Angstoms) -------  2984 
Wavelength Increment (Angstroms) --  .25 
Filter Wheel #1 Position ---------- (1) Ground quartz diffuser (ND=2.32)
Filter Wheel #2 Position ---------- (1) Neutral Density 0.494



************************************************************
HS scan start time = 20:07:21
Dark Count =  2.5 


Time (GMT)  Wavelength (Ang)  Step Number  Raw Counts  Counts/Second

 1208.25        2950.00           2144          55.00       228.86
 1208.44        2950.25           2147          47.00       193.99
 1208.48        2950.50           2151          54.00       224.50
 1208.51        2950.75           2155          48.00       198.34
 1208.54        2951.00           2158          45.00       185.27
 1208.57        2951.25           2162          50.00       207.06
 1208.60        2951.50           2165          48.00       198.34
 1208.63        2951.75           2169          50.00       207.06
 1208.66        2952.00           2172          50.00       207.06
 1208.69        2952.25           2176          49.00       202.70
 1208.72        2952.50           2179          51.00       211.42
 1208.75        2952.75           2183          51.00       211.42
 1208.78        2953.00           2186          52.00       215.78
 1208.81        2953.25           2190          49.00       202.70
 1208.84        2953.50           2193          54.00       224.50
 1208.87        2953.75           2197          52.00       215.78
 1208.90        2954.00           2200          48.00       198.34
 1208.93        2954.25           2204          52.00       215.78
 1208.97        2954.50           2208          54.00       224.50
 1209.00        2954.75           2211          54.00       224.50
 1209.03        2955.00           2215          54.00       224.50
 1209.06        2955.25           2218          53.00       220.14
 1209.09        2955.50           2222          56.00       233.22
 1209.12        2955.75           2225          52.00       215.78
 1209.15        2956.00           2229          50.00       207.06
 1209.18        2956.25           2232          59.00       246.30
 1209.21        2956.50           2236          52.00       215.78
 1209.24        2956.75           2239          53.00       220.14
 1209.27        2957.00           2243          61.00       255.02
 1209.30        2957.25           2246          62.00       259.37
 1209.33        2957.50           2250          57.00       237.58
 1209.36        2957.75           2254          63.00       263.73
 1209.39        2958.00           2257          65.00       272.45
 1209.42        2958.25           2261          56.00       233.22
 1209.45        2958.50           2264          67.00       281.17
 1209.48        2958.75           2268          63.00       263.73
 1209.52        2959.00           2271          67.00       281.17
 1209.55        2959.25           2275          66.00       276.81
 1209.58        2959.50           2278          61.00       255.02
 1209.61        2959.75           2282          68.00       285.53
 1209.64        2960.00           2285          71.00       298.61
 1209.67        2960.25           2289          71.00       298.61
 1209.70        2960.50           2293          72.00       302.97
 1209.73        2960.75           2296          75.00       316.05
 1209.76        2961.00           2300         100.00       425.03
 1209.79        2961.25           2303         209.00       900.20
 1209.82        2961.50           2307         701.00      3045.22
 1209.85        2961.75           2310        1264.00      5500.16
 1209.88        2962.00           2314        2163.00      9421.06
 1209.91        2962.25           2317        2952.00     12863.08
 1209.94        2962.50           2321        4023.00     17536.61
 1209.97        2962.75           2324        4643.00     20242.79
 1210.00        2963.00           2328        5574.00     24307.35
 1210.04        2963.25           2331        6398.00     27905.72
 1210.07        2963.50           2335        7386.00     32221.42
 1210.10        2963.75           2339        8659.00     37783.91
 1210.13        2964.00           2342        9453.00     41254.43
 1210.16        2964.25           2346       10515.00     45897.64
 1210.19        2964.50           2349       11316.00     49400.69
 1210.22        2964.75           2353       12380.00     54055.23
 1210.25        2965.00           2356       13219.00     57726.53
 1210.28        2965.25           2360       14071.00     61455.65
 1210.31        2965.50           2363       14800.00     64647.17
 1210.34        2965.75           2367       15813.00     69083.18
 1210.37        2966.00           2370       16403.00     71667.44
 1210.40        2966.25           2374       16994.00     74256.56
 1210.43        2966.50           2378       17569.00     76776.00
 1210.46        2966.75           2381       17393.00     76004.79
 1210.49        2967.00           2385       17412.00     76088.04
 1210.52        2967.25           2388       17509.00     76513.09
 1210.56        2967.50           2392       17404.00     76052.99
 1210.59        2967.75           2395       17471.00     76346.57
 1210.62        2968.00           2399       16894.00     73818.43
 1210.65        2968.25           2402       16088.00     70287.66
 1210.68        2968.50           2406       15065.00     65807.50
 1210.71        2968.75           2409       14348.00     62668.26
 1210.74        2969.00           2413       13220.00     57730.91
 1210.77        2969.25           2417       12364.00     53985.23
 1210.80        2969.50           2420       11513.00     50262.37
 1210.83        2969.75           2424       10532.00     45971.98
 1210.86        2970.00           2427        9751.00     42557.18
 1210.89        2970.25           2431        8806.00     38426.37
 1210.92        2970.50           2434        8072.00     35218.70
 1210.95        2970.75           2438        7121.00     31063.74
 1210.98        2971.00           2441        6199.00     27036.61
 1211.01        2971.25           2445        5316.00     23180.86
 1211.04        2971.50           2449        4349.00     18959.47
 1211.08        2971.75           2452        3638.00     15856.41
 1211.11        2972.00           2456        2750.00     11981.78
 1211.14        2972.25           2459        2024.00      8814.76
 1211.17        2972.50           2463        1148.00      4994.31
 1211.20        2972.75           2466         510.00      2212.46
 1211.23        2973.00           2470         156.00       669.15
 1211.26        2973.25           2473         109.00       464.26
 1211.29        2973.50           2477          74.00       311.69
 1211.32        2973.75           2481          72.00       302.97
 1211.35        2974.00           2484          74.00       311.69
 1211.38        2974.25           2488          74.00       311.69
 1211.41        2974.50           2491          59.00       246.30
 1211.44        2974.75           2495          69.00       289.89
 1211.47        2975.00           2498          65.00       272.45
 1211.50        2975.25           2502          67.00       281.17
 1211.53        2975.50           2505          69.00       289.89
 1211.56        2975.75           2509          63.00       263.73
 1211.60        2976.00           2512          62.00       259.37
 1211.63        2976.25           2516          60.00       250.66
 1211.66        2976.50           2520          65.00       272.45
 1211.69        2976.75           2523          62.00       259.37
 1211.72        2977.00           2527          59.00       246.30
 1211.75        2977.25           2530          61.00       255.02
 1211.78        2977.50           2534          58.00       241.94
 1211.81        2977.75           2537          57.00       237.58
 1211.84        2978.00           2541          54.00       224.50
 1211.87        2978.25           2544          63.00       263.73
 1211.90        2978.50           2548          57.00       237.58
 1211.93        2978.75           2552          55.00       228.86
 1211.96        2979.00           2555          51.00       211.42
 1211.99        2979.25           2559          58.00       241.94
 1212.02        2979.50           2562          53.00       220.14
 1212.05        2979.75           2566          53.00       220.14
 1212.08        2980.00           2569          55.00       228.86
 1212.11        2980.25           2573          52.00       215.78
 1212.15        2980.50           2577          52.00       215.78
 1212.18        2980.75           2580          47.00       193.99
 1212.21        2981.00           2584          52.00       215.78
 1212.24        2981.25           2587          52.00       215.78
 1212.27        2981.50           2591          54.00       224.50
 1212.30        2981.75           2594          51.00       211.42
 1212.33        2982.00           2598          49.00       202.70
 1212.36        2982.25           2601          51.00       211.42
 1212.39        2982.50           2605          47.00       193.99
 1212.42        2982.75           2609          50.00       207.06
 1212.45        2983.00           2612          49.00       202.70
 1212.48        2983.25           2616          50.00       207.06
 1212.51        2983.50           2619          58.00       241.94
 1212.54        2983.75           2623          51.00       211.42
 1212.57        2984.00           2626          54.00       224.50
HS scan finished at 20:12:48
end
