************************************************************
  HS Scan of (1) Internal mercury lamp
************************************************************
Integration time is 0.2294 seconds per sample
dh290817Reading 51.44 .94 3.7pr1000
************************************************************
Dead Time -------------------------  3.4E-08 
Number of Cycles Used -------------  4 
Starting Wavelength (Angstroms) ---  2950 
Final Wavelength (Angstoms) -------  2984 
Wavelength Increment (Angstroms) --  .25 
Filter Wheel #1 Position ---------- (1) Ground quartz diffuser (ND=2.32)
Filter Wheel #2 Position ---------- (1) Neutral Density 0.494



************************************************************
HS scan start time = 02:37:53
Dark Count =  4.4 


Time (GMT)  Wavelength (Ang)  Step Number  Raw Counts  Counts/Second

  158.79        2950.00           2144          90.00       373.15
  158.98        2950.25           2147          95.00       394.95
  159.01        2950.50           2151          93.00       386.23
  159.04        2950.75           2155          95.00       394.95
  159.07        2951.00           2158          95.00       394.95
  159.10        2951.25           2162          98.00       408.03
  159.14        2951.50           2165          87.00       360.07
  159.17        2951.75           2169          98.00       408.03
  159.20        2952.00           2172          96.00       399.31
  159.23        2952.25           2176         110.00       460.34
  159.26        2952.50           2179          94.00       390.59
  159.29        2952.75           2183          99.00       412.39
  159.32        2953.00           2186          97.00       403.67
  159.35        2953.25           2190          91.00       377.51
  159.38        2953.50           2193         100.00       416.75
  159.41        2953.75           2197          98.00       408.03
  159.44        2954.00           2200         107.00       447.26
  159.47        2954.25           2204         121.00       508.29
  159.50        2954.50           2208          97.00       403.67
  159.53        2954.75           2211         114.00       477.78
  159.56        2955.00           2215          94.00       390.59
  159.59        2955.25           2218         127.00       534.45
  159.62        2955.50           2222         108.00       451.62
  159.66        2955.75           2225         107.00       447.26
  159.69        2956.00           2229         101.00       421.10
  159.72        2956.25           2232         104.00       434.18
  159.75        2956.50           2236         127.00       534.45
  159.78        2956.75           2239         129.00       543.17
  159.81        2957.00           2243         117.00       490.85
  159.84        2957.25           2246         124.00       521.37
  159.87        2957.50           2250         121.00       508.29
  159.90        2957.75           2254         169.00       717.54
  159.93        2958.00           2257         124.00       521.37
  159.96        2958.25           2261         134.00       564.96
  159.99        2958.50           2264         162.00       687.03
  160.02        2958.75           2268         117.00       490.85
  160.05        2959.00           2271         140.00       591.12
  160.08        2959.25           2275         123.00       517.01
  160.11        2959.50           2278         131.00       551.88
  160.14        2959.75           2282         160.00       678.31
  160.17        2960.00           2285         127.00       534.45
  160.21        2960.25           2289         149.00       630.35
  160.24        2960.50           2293         143.00       604.20
  160.27        2960.75           2296         149.00       630.35
  160.30        2961.00           2300         234.00      1000.91
  160.33        2961.25           2303         556.00      2404.73
  160.36        2961.50           2307        1772.00      7707.34
  160.39        2961.75           2310        3109.00     13539.80
  160.42        2962.00           2314        5200.00     22666.11
  160.45        2962.25           2317        6757.00     29465.43
  160.48        2962.50           2321        8720.00     38042.20
  160.51        2962.75           2324       10358.00     45202.81
  160.54        2963.00           2328       12620.00     55097.02
  160.57        2963.25           2331       14452.00     63115.25
  160.60        2963.50           2335       16638.00     72688.58
  160.63        2963.75           2339       19054.00     83276.43
  160.66        2964.00           2342       20760.00     90757.39
  160.69        2964.25           2346       22895.00    100124.90
  160.73        2964.50           2349       24721.00    108141.40
  160.76        2964.75           2353       27056.00    118399.00
  160.79        2965.00           2356       28807.00    126095.70
  160.82        2965.25           2360       30782.00    134781.90
  160.85        2965.50           2363       32422.00    141998.70
  160.88        2965.75           2367       34393.00    150676.70
  160.91        2966.00           2370       35955.00    157557.60
  160.94        2966.25           2374       38041.00    166751.80
  160.97        2966.50           2378       38982.00    170901.30
  161.00        2966.75           2381       39386.00    172683.10
  161.03        2967.00           2385       39380.00    172656.60
  161.06        2967.25           2388       39340.00    172480.20
  161.09        2967.50           2392       39429.00    172872.80
  161.12        2967.75           2395       39093.00    171390.80
  161.15        2968.00           2399       37926.00    166244.80
  161.18        2968.25           2402       36773.00    161162.30
  161.21        2968.50           2406       34256.00    150073.30
  161.25        2968.75           2409       32835.00    143816.60
  161.28        2969.00           2413       30441.00    133281.80
  161.31        2969.25           2417       28334.00    124016.20
  161.34        2969.50           2420       26634.00    116544.60
  161.37        2969.75           2424       24315.00    106358.60
  161.40        2970.00           2427       22164.00     96916.92
  161.43        2970.25           2431       19635.00     85823.74
  161.46        2970.50           2434       18039.00     78827.38
  161.49        2970.75           2438       15569.00     68006.24
  161.52        2971.00           2441       13747.00     60029.12
  161.55        2971.25           2445       11569.00     50499.01
  161.58        2971.50           2449        9605.00     41910.60
  161.61        2971.75           2452        7711.00     33633.04
  161.64        2972.00           2456        5355.00     23342.85
  161.67        2972.25           2459        3740.00     16293.24
  161.70        2972.50           2463        1914.00      8326.68
  161.73        2972.75           2466         914.00      3965.66
  161.77        2973.00           2470         316.00      1358.39
  161.80        2973.25           2473         183.00       778.57
  161.83        2973.50           2477         168.00       713.18
  161.86        2973.75           2481         146.00       617.28
  161.89        2974.00           2484         169.00       717.54
  161.92        2974.25           2488         151.00       639.07
  161.95        2974.50           2491         157.00       665.23
  161.98        2974.75           2495         150.00       634.71
  162.02        2975.00           2498         154.00       652.15
  162.05        2975.25           2502         137.00       578.04
  162.08        2975.50           2505         125.00       525.73
  162.11        2975.75           2509         149.00       630.35
  162.14        2976.00           2512         149.00       630.35
  162.17        2976.25           2516         142.00       599.84
  162.20        2976.50           2520         113.00       473.42
  162.23        2976.75           2523         131.00       551.88
  162.27        2977.00           2527         171.00       726.26
  162.30        2977.25           2530         118.00       495.21
  162.33        2977.50           2534         133.00       560.60
  162.36        2977.75           2537         143.00       604.20
  162.39        2978.00           2541         104.00       434.18
  162.42        2978.25           2544         129.00       543.17
  162.45        2978.50           2548         127.00       534.45
  162.48        2978.75           2552         143.00       604.20
  162.51        2979.00           2555         122.00       512.65
  162.54        2979.25           2559         104.00       434.18
  162.57        2979.50           2562         102.00       425.46
  162.60        2979.75           2566         106.00       442.90
  162.63        2980.00           2569         119.00       499.57
  162.66        2980.25           2573          99.00       412.39
  162.69        2980.50           2577         102.00       425.46
  162.72        2980.75           2580          98.00       408.03
  162.75        2981.00           2584          96.00       399.31
  162.79        2981.25           2587         100.00       416.75
  162.82        2981.50           2591         123.00       517.01
  162.85        2981.75           2594         101.00       421.10
  162.88        2982.00           2598         118.00       495.21
  162.91        2982.25           2601         126.00       530.09
  162.94        2982.50           2605          92.00       381.87
  162.97        2982.75           2609         107.00       447.26
  163.00        2983.00           2612          92.00       381.87
  163.03        2983.25           2616          96.00       399.31
  163.06        2983.50           2619          91.00       377.51
  163.09        2983.75           2623          99.00       412.39
  163.12        2984.00           2626          96.00       399.31
HS scan finished at 02:43:21
end
************************************************************
  HS Scan of (1) Internal mercury lamp
************************************************************
Integration time is 0.2294 seconds per sample
dh290817Reading 51.44 .94 3.76pr1000
************************************************************
Dead Time -------------------------  3.4E-08 
Number of Cycles Used -------------  4 
Starting Wavelength (Angstroms) ---  2950 
Final Wavelength (Angstoms) -------  2984 
Wavelength Increment (Angstroms) --  .25 
Filter Wheel #1 Position ---------- (1) Ground quartz diffuser (ND=2.32)
Filter Wheel #2 Position ---------- (1) Neutral Density 0.494



************************************************************
HS scan start time = 19:37:26
Dark Count =  5.7 


Time (GMT)  Wavelength (Ang)  Step Number  Raw Counts  Counts/Second

 1178.32        2950.00           2144          61.00       241.07
 1178.52        2950.25           2147          58.00       227.99
 1178.55        2950.50           2151          59.00       232.35
 1178.58        2950.75           2155          61.00       241.07
 1178.61        2951.00           2158          58.00       227.99
 1178.64        2951.25           2162          68.00       271.58
 1178.67        2951.50           2165          65.00       258.50
 1178.70        2951.75           2169          56.00       219.27
 1178.73        2952.00           2172          65.00       258.50
 1178.76        2952.25           2176          61.00       241.07
 1178.79        2952.50           2179          64.00       254.14
 1178.82        2952.75           2183          68.00       271.58
 1178.85        2953.00           2186          61.00       241.07
 1178.89        2953.25           2190          64.00       254.14
 1178.92        2953.50           2193          70.00       280.30
 1178.95        2953.75           2197          60.00       236.71
 1178.98        2954.00           2200          70.00       280.30
 1179.01        2954.25           2204          60.00       236.71
 1179.04        2954.50           2208          63.00       249.78
 1179.07        2954.75           2211          66.00       262.86
 1179.10        2955.00           2215          77.00       310.81
 1179.13        2955.25           2218          69.00       275.94
 1179.16        2955.50           2222          73.00       293.38
 1179.19        2955.75           2225          72.00       289.02
 1179.22        2956.00           2229          69.00       275.94
 1179.25        2956.25           2232          70.00       280.30
 1179.28        2956.50           2236          63.00       249.78
 1179.31        2956.75           2239          69.00       275.94
 1179.34        2957.00           2243          68.00       271.58
 1179.37        2957.25           2246          70.00       280.30
 1179.41        2957.50           2250          74.00       297.74
 1179.44        2957.75           2254          77.00       310.81
 1179.47        2958.00           2257          77.00       310.81
 1179.50        2958.25           2261          79.00       319.53
 1179.53        2958.50           2264          75.00       302.10
 1179.56        2958.75           2268          77.00       310.81
 1179.59        2959.00           2271          78.00       315.17
 1179.62        2959.25           2275          87.00       354.41
 1179.65        2959.50           2278          80.00       323.89
 1179.68        2959.75           2282          89.00       363.13
 1179.71        2960.00           2285          80.00       323.89
 1179.74        2960.25           2289          84.00       341.33
 1179.77        2960.50           2293          97.00       398.00
 1179.80        2960.75           2296          94.00       384.92
 1179.83        2961.00           2300         130.00       541.86
 1179.86        2961.25           2303         208.00       881.89
 1179.89        2961.50           2307         832.00      3602.45
 1179.92        2961.75           2310        1711.00      7435.62
 1179.96        2962.00           2314        2936.00     12779.31
 1179.99        2962.25           2317        3851.00     16771.99
 1180.02        2962.50           2321        5184.00     22590.58
 1180.05        2962.75           2324        6208.00     27061.94
 1180.08        2963.00           2328        7646.00     33343.36
 1180.11        2963.25           2331        8610.00     37555.77
 1180.14        2963.50           2335       10125.00     44178.34
 1180.17        2963.75           2339       11485.00     50125.90
 1180.20        2964.00           2342       12494.00     54540.02
 1180.23        2964.25           2346       14091.00     61529.19
 1180.26        2964.50           2349       15334.00     66971.41
 1180.29        2964.75           2353       16559.00     72336.81
 1180.32        2965.00           2356       17683.00     77261.55
 1180.35        2965.25           2360       18962.00     82867.41
 1180.38        2965.50           2363       20159.00     88115.81
 1180.41        2965.75           2367       21752.00     95103.46
 1180.44        2966.00           2370       22622.00     98921.08
 1180.48        2966.25           2374       23634.00    103363.10
 1180.51        2966.50           2378       24130.00    105540.70
 1180.54        2966.75           2381       24296.00    106269.50
 1180.57        2967.00           2385       24137.00    105571.40
 1180.60        2967.25           2388       24171.00    105720.70
 1180.63        2967.50           2392       24220.00    105935.80
 1180.66        2967.75           2395       24350.00    106506.60
 1180.69        2968.00           2399       23344.00    102090.00
 1180.72        2968.25           2402       22214.00     97130.62
 1180.75        2968.50           2406       20941.00     91545.62
 1180.78        2968.75           2409       19981.00     87335.24
 1180.82        2969.00           2413       18745.00     81916.15
 1180.85        2969.25           2417       17451.00     76244.91
 1180.88        2969.50           2420       16489.00     72030.16
 1180.91        2969.75           2424       14955.00     65311.83
 1180.94        2970.00           2427       13791.00     60216.01
 1180.97        2970.25           2431       12364.00     53971.23
 1181.00        2970.50           2434       11285.00     49251.11
 1181.03        2970.75           2438        9914.00     43255.82
 1181.06        2971.00           2441        8924.00     38928.13
 1181.09        2971.25           2445        7604.00     33159.86
 1181.12        2971.50           2449        6354.00     27699.57
 1181.15        2971.75           2452        5275.00     22987.88
 1181.18        2972.00           2456        3791.00     16510.14
 1181.21        2972.25           2459        2725.00     11858.75
 1181.25        2972.50           2463        1486.00      6454.34
 1181.28        2972.75           2466         785.00      3397.52
 1181.31        2973.00           2470         302.00      1291.69
 1181.34        2973.25           2473         147.00       615.97
 1181.37        2973.50           2477         128.00       533.14
 1181.40        2973.75           2481          95.00       389.28
 1181.43        2974.00           2484          92.00       376.20
 1181.46        2974.25           2488          98.00       402.36
 1181.49        2974.50           2491          91.00       371.84
 1181.52        2974.75           2495          88.00       358.77
 1181.55        2975.00           2498          86.00       350.05
 1181.58        2975.25           2502          81.00       328.25
 1181.61        2975.50           2505          81.00       328.25
 1181.64        2975.75           2509          80.00       323.89
 1181.67        2976.00           2512          72.00       289.02
 1181.70        2976.25           2516          81.00       328.25
 1181.73        2976.50           2520          75.00       302.10
 1181.76        2976.75           2523          78.00       315.17
 1181.80        2977.00           2527          88.00       358.77
 1181.83        2977.25           2530          72.00       289.02
 1181.86        2977.50           2534          80.00       323.89
 1181.89        2977.75           2537          73.00       293.38
 1181.92        2978.00           2541          73.00       293.38
 1181.95        2978.25           2544          68.00       271.58
 1181.98        2978.50           2548          63.00       249.78
 1182.01        2978.75           2552          66.00       262.86
 1182.04        2979.00           2555          64.00       254.14
 1182.07        2979.25           2559          67.00       267.22
 1182.10        2979.50           2562          70.00       280.30
 1182.13        2979.75           2566          68.00       271.58
 1182.16        2980.00           2569          74.00       297.74
 1182.19        2980.25           2573          69.00       275.94
 1182.22        2980.50           2577          68.00       271.58
 1182.25        2980.75           2580          61.00       241.07
 1182.28        2981.00           2584          68.00       271.58
 1182.32        2981.25           2587          65.00       258.50
 1182.35        2981.50           2591          65.00       258.50
 1182.38        2981.75           2594          63.00       249.78
 1182.41        2982.00           2598          61.00       241.07
 1182.44        2982.25           2601          61.00       241.07
 1182.47        2982.50           2605          67.00       267.22
 1182.50        2982.75           2609          65.00       258.50
 1182.53        2983.00           2612          61.00       241.07
 1182.56        2983.25           2616          64.00       254.14
 1182.59        2983.50           2619          53.00       206.19
 1182.62        2983.75           2623          65.00       258.50
 1182.65        2984.00           2626          61.00       241.07
HS scan finished at 19:42:52
end
