************************************************************
  HS Scan of (1) Internal mercury lamp
************************************************************
Integration time is 0.2294 seconds per sample
dh050917Reading 51.44 .94 3.72pr1000
************************************************************
Dead Time -------------------------  3.4E-08 
Number of Cycles Used -------------  4 
Starting Wavelength (Angstroms) ---  2950 
Final Wavelength (Angstoms) -------  2984 
Wavelength Increment (Angstroms) --  .25 
Filter Wheel #1 Position ---------- (1) Ground quartz diffuser (ND=2.32)
Filter Wheel #2 Position ---------- (1) Neutral Density 0.494



************************************************************
HS scan start time = 02:34:30
Dark Count =  4.7 


Time (GMT)  Wavelength (Ang)  Step Number  Raw Counts  Counts/Second

  155.40        2950.00           2144          76.00       310.81
  155.59        2950.25           2147          86.00       354.41
  155.62        2950.50           2151          85.00       350.05
  155.65        2950.75           2155          81.00       332.61
  155.68        2951.00           2158          79.00       323.89
  155.71        2951.25           2162          81.00       332.61
  155.74        2951.50           2165          89.00       367.49
  155.77        2951.75           2169          87.00       358.77
  155.80        2952.00           2172          88.00       363.13
  155.83        2952.25           2176          78.00       319.53
  155.86        2952.50           2179         107.00       445.95
  155.90        2952.75           2183          91.00       376.20
  155.93        2953.00           2186          81.00       332.61
  155.96        2953.25           2190          88.00       363.13
  155.99        2953.50           2193          96.00       398.00
  156.02        2953.75           2197          92.00       380.56
  156.05        2954.00           2200          94.00       389.28
  156.08        2954.25           2204          94.00       389.28
  156.11        2954.50           2208          88.00       363.13
  156.14        2954.75           2211          95.00       393.64
  156.17        2955.00           2215          99.00       411.08
  156.20        2955.25           2218          93.00       384.92
  156.23        2955.50           2222          99.00       411.08
  156.26        2955.75           2225          95.00       393.64
  156.29        2956.00           2229          97.00       402.36
  156.32        2956.25           2232         112.00       467.75
  156.35        2956.50           2236          98.00       406.72
  156.38        2956.75           2239         142.00       598.53
  156.41        2957.00           2243         105.00       437.23
  156.45        2957.25           2246         100.00       415.44
  156.48        2957.50           2250         101.00       419.80
  156.51        2957.75           2254         103.00       428.52
  156.54        2958.00           2257         122.00       511.34
  156.57        2958.25           2261         123.00       515.70
  156.60        2958.50           2264         107.00       445.95
  156.63        2958.75           2268         108.00       450.31
  156.66        2959.00           2271         116.00       485.19
  156.69        2959.25           2275         113.00       472.11
  156.72        2959.50           2278         148.00       624.69
  156.75        2959.75           2282         131.00       550.58
  156.78        2960.00           2285         137.00       576.73
  156.81        2960.25           2289         149.00       629.05
  156.84        2960.50           2293         137.00       576.73
  156.87        2960.75           2296         180.00       764.19
  156.90        2961.00           2300         230.00       982.16
  156.93        2961.25           2303         517.00      2233.39
  156.97        2961.50           2307        1622.00      7051.82
  157.00        2961.75           2310        2883.00     12552.44
  157.03        2962.00           2314        5105.00     22250.04
  157.06        2962.25           2317        6354.00     27703.94
  157.09        2962.50           2321        8088.00     35278.99
  157.12        2962.75           2324        9723.00     42425.15
  157.15        2963.00           2328       11717.00     51145.10
  157.18        2963.25           2331       13466.00     58797.90
  157.21        2963.50           2335       15317.00     66901.35
  157.24        2963.75           2339       19860.00     86809.03
  157.27        2964.00           2342       18812.00     82214.24
  157.30        2964.25           2346       20896.00     91352.62
  157.33        2964.50           2349       26003.00    113771.00
  157.36        2964.75           2353       24777.00    108386.10
  157.39        2965.00           2356       25875.00    113208.70
  157.42        2965.25           2360       32223.00    141121.40
  157.45        2965.50           2363       29595.00    129559.40
  157.49        2965.75           2367       31190.00    136575.60
  157.52        2966.00           2370       35555.00    155793.90
  157.55        2966.25           2374       34909.00    152948.10
  157.58        2966.50           2378       35337.00    154833.50
  157.61        2966.75           2381       35680.00    156344.60
  157.64        2967.00           2385       35549.00    155767.40
  157.67        2967.25           2388       35383.00    155036.10
  157.70        2967.50           2392       36030.00    157886.70
  157.73        2967.75           2395       35472.00    155428.20
  157.76        2968.00           2399       34004.00    148962.20
  157.79        2968.25           2402       37682.00    165167.70
  157.82        2968.50           2406       30747.00    134626.60
  157.85        2968.75           2409       29244.00    128015.90
  157.88        2969.00           2413       31737.00    138982.60
  157.91        2969.25           2417       25809.00    112918.80
  157.94        2969.50           2420       23960.00    104798.60
  157.97        2969.75           2424       25056.00    109611.30
  158.01        2970.00           2427       20175.00     88190.38
  158.04        2970.25           2431       20985.00     91743.02
  158.07        2970.50           2434       16574.00     72406.90
  158.10        2970.75           2438       15114.00     66012.43
  158.13        2971.00           2441       13068.00     57056.09
  158.16        2971.25           2445       10362.00     45218.99
  158.19        2971.50           2449        9599.00     41883.05
  158.22        2971.75           2452        6777.00     29551.48
  158.25        2972.00           2456        4753.00     20713.36
  158.28        2972.25           2459        3851.00     16776.35
  158.31        2972.50           2463        1841.00      8006.97
  158.34        2972.75           2466         851.00      3689.65
  158.37        2973.00           2470         324.00      1391.96
  158.40        2973.25           2473         171.00       724.95
  158.43        2973.50           2477         140.00       589.81
  158.46        2973.75           2481         135.00       568.01
  158.49        2974.00           2484         148.00       624.69
  158.53        2974.25           2488         154.00       650.84
  158.56        2974.50           2491         161.00       681.36
  158.59        2974.75           2495         134.00       563.66
  158.62        2975.00           2498         145.00       611.61
  158.65        2975.25           2502         149.00       629.05
  158.68        2975.50           2505         114.00       476.47
  158.71        2975.75           2509         131.00       550.58
  158.74        2976.00           2512         114.00       476.47
  158.77        2976.25           2516         139.00       585.45
  158.80        2976.50           2520         125.00       524.42
  158.83        2976.75           2523         142.00       598.53
  158.86        2977.00           2527         128.00       537.50
  158.89        2977.25           2530         152.00       642.12
  158.92        2977.50           2534         103.00       428.52
  158.95        2977.75           2537         149.00       629.05
  158.98        2978.00           2541         119.00       498.26
  159.01        2978.25           2544         142.00       598.53
  159.04        2978.50           2548         101.00       419.80
  159.08        2978.75           2552          96.00       398.00
  159.11        2979.00           2555         148.00       624.69
  159.14        2979.25           2559         121.00       506.98
  159.17        2979.50           2562          91.00       376.20
  159.20        2979.75           2566         133.00       559.30
  159.23        2980.00           2569          98.00       406.72
  159.26        2980.25           2573          99.00       411.08
  159.29        2980.50           2577         106.00       441.59
  159.32        2980.75           2580          90.00       371.84
  159.35        2981.00           2584          89.00       367.49
  159.38        2981.25           2587          97.00       402.36
  159.41        2981.50           2591          92.00       380.56
  159.44        2981.75           2594          89.00       367.49
  159.47        2982.00           2598         107.00       445.95
  159.50        2982.25           2601         122.00       511.34
  159.53        2982.50           2605          82.00       336.97
  159.56        2982.75           2609          96.00       398.00
  159.60        2983.00           2612          89.00       367.49
  159.63        2983.25           2616         121.00       506.98
  159.66        2983.50           2619          92.00       380.56
  159.69        2983.75           2623          87.00       358.77
  159.72        2984.00           2626          88.00       363.13
HS scan finished at 02:39:56
end
************************************************************
  HS Scan of (1) Internal mercury lamp
************************************************************
Integration time is 0.2294 seconds per sample
dh050917Reading 51.44 .94 3.62pr1000
************************************************************
Dead Time -------------------------  3.4E-08 
Number of Cycles Used -------------  4 
Starting Wavelength (Angstroms) ---  2950 
Final Wavelength (Angstoms) -------  2984 
Wavelength Increment (Angstroms) --  .25 
Filter Wheel #1 Position ---------- (1) Ground quartz diffuser (ND=2.32)
Filter Wheel #2 Position ---------- (1) Neutral Density 0.494



************************************************************
HS scan start time = 19:37:29
Dark Count =  3.7 


Time (GMT)  Wavelength (Ang)  Step Number  Raw Counts  Counts/Second

 1178.38        2950.00           2144          91.00       380.56
 1178.57        2950.25           2147          97.00       406.72
 1178.60        2950.50           2151          91.00       380.56
 1178.63        2950.75           2155         109.00       459.03
 1178.67        2951.00           2158          83.00       345.69
 1178.70        2951.25           2162          95.00       398.00
 1178.73        2951.50           2165          84.00       350.05
 1178.76        2951.75           2169          84.00       350.05
 1178.79        2952.00           2172          86.00       358.77
 1178.82        2952.25           2176          93.00       389.28
 1178.85        2952.50           2179          98.00       411.08
 1178.88        2952.75           2183          95.00       398.00
 1178.91        2953.00           2186         116.00       489.55
 1178.94        2953.25           2190          95.00       398.00
 1178.97        2953.50           2193          94.00       393.64
 1179.00        2953.75           2197          93.00       389.28
 1179.03        2954.00           2200         117.00       493.91
 1179.06        2954.25           2204         107.00       450.31
 1179.09        2954.50           2208          88.00       367.49
 1179.12        2954.75           2211          96.00       402.36
 1179.15        2955.00           2215          97.00       406.72
 1179.19        2955.25           2218          99.00       415.44
 1179.22        2955.50           2222         101.00       424.16
 1179.25        2955.75           2225         121.00       511.34
 1179.28        2956.00           2229          97.00       406.72
 1179.31        2956.25           2232         105.00       441.59
 1179.34        2956.50           2236          99.00       415.44
 1179.37        2956.75           2239          96.00       402.36
 1179.40        2957.00           2243         124.00       524.42
 1179.43        2957.25           2246          97.00       406.72
 1179.46        2957.50           2250         142.00       602.89
 1179.49        2957.75           2254         107.00       450.31
 1179.52        2958.00           2257         123.00       520.06
 1179.55        2958.25           2261         112.00       472.11
 1179.58        2958.50           2264         152.00       646.48
 1179.61        2958.75           2268         117.00       493.91
 1179.64        2959.00           2271         148.00       629.05
 1179.67        2959.25           2275         113.00       476.47
 1179.70        2959.50           2278         115.00       485.19
 1179.74        2959.75           2282         139.00       589.81
 1179.77        2960.00           2285         159.00       677.00
 1179.80        2960.25           2289         138.00       585.45
 1179.83        2960.50           2293         135.00       572.37
 1179.86        2960.75           2296         149.00       633.41
 1179.89        2961.00           2300         170.00       724.95
 1179.92        2961.25           2303         303.00      1304.77
 1179.95        2961.50           2307        1172.00      5093.73
 1179.98        2961.75           2310        2330.00     10144.30
 1180.01        2962.00           2314        4412.00     19229.22
 1180.04        2962.25           2317        5870.00     25594.63
 1180.07        2962.50           2321        8035.00     35051.77
 1180.10        2962.75           2324        9638.00     42057.92
 1180.13        2963.00           2328       11850.00     51731.28
 1180.16        2963.25           2331       13249.00     57852.57
 1180.19        2963.50           2335       15594.00     68118.79
 1180.23        2963.75           2339       17605.00     76928.51
 1180.26        2964.00           2342       19278.00     84261.55
 1180.29        2964.25           2346       21425.00     93677.59
 1180.32        2964.50           2349       22940.00    100325.50
 1180.35        2964.75           2353       24836.00    108649.50
 1180.39        2965.00           2356       26323.00    115181.20
 1180.42        2965.25           2360       28153.00    123223.60
 1180.45        2965.50           2363       29450.00    128926.20
 1180.49        2965.75           2367       31665.00    138670.10
 1180.52        2966.00           2370       33050.00    144766.20
 1180.55        2966.25           2374       34708.00    152067.10
 1180.58        2966.50           2378       35421.00    155207.90
 1180.61        2966.75           2381       35598.00    155987.70
 1180.64        2967.00           2385       35537.00    155719.00
 1180.67        2967.25           2388       35533.00    155701.30
 1180.70        2967.50           2392       35405.00    155137.40
 1180.73        2967.75           2395       34961.00    153181.50
 1180.76        2968.00           2399       33591.00    147148.10
 1180.79        2968.25           2402       32396.00    141887.30
 1180.82        2968.50           2406       30532.00    133685.20
 1180.85        2968.75           2409       29240.00    128002.70
 1180.88        2969.00           2413       27010.00    118199.90
 1180.91        2969.25           2417       25376.00    111021.20
 1180.94        2969.50           2420       23766.00    103951.30
 1180.97        2969.75           2424       21602.00     94454.12
 1181.00        2970.00           2427       20060.00     87690.44
 1181.04        2970.25           2431       18079.00     79005.76
 1181.07        2970.50           2434       16458.00     71903.13
 1181.10        2970.75           2438       14281.00     62369.70
 1181.13        2971.00           2441       12754.00     55686.42
 1181.16        2971.25           2445       10672.00     46578.94
 1181.19        2971.50           2449        8610.00     37564.52
 1181.22        2971.75           2452        7059.00     30787.66
 1181.25        2972.00           2456        5017.00     21870.22
 1181.28        2972.25           2459        3618.00     15763.90
 1181.31        2972.50           2463        1757.00      7644.97
 1181.34        2972.75           2466         905.00      3929.47
 1181.37        2973.00           2470         344.00      1483.51
 1181.40        2973.25           2473         182.00       777.27
 1181.43        2973.50           2477         155.00       659.56
 1181.46        2973.75           2481         144.00       611.61
 1181.49        2974.00           2484         142.00       602.89
 1181.53        2974.25           2488         125.00       528.78
 1181.56        2974.50           2491         137.00       581.09
 1181.59        2974.75           2495         120.00       506.98
 1181.62        2975.00           2498         135.00       572.37
 1181.65        2975.25           2502         120.00       506.98
 1181.68        2975.50           2505         114.00       480.83
 1181.71        2975.75           2509         124.00       524.42
 1181.74        2976.00           2512         108.00       454.67
 1181.77        2976.25           2516         117.00       493.91
 1181.80        2976.50           2520         128.00       541.86
 1181.83        2976.75           2523         124.00       524.42
 1181.86        2977.00           2527         106.00       445.95
 1181.89        2977.25           2530         104.00       437.23
 1181.92        2977.50           2534         107.00       450.31
 1181.95        2977.75           2537         111.00       467.75
 1181.98        2978.00           2541         105.00       441.59
 1182.01        2978.25           2544         102.00       428.52
 1182.05        2978.50           2548          95.00       398.00
 1182.08        2978.75           2552         117.00       493.91
 1182.11        2979.00           2555         106.00       445.95
 1182.14        2979.25           2559          92.00       384.92
 1182.17        2979.50           2562         103.00       432.87
 1182.20        2979.75           2566          99.00       415.44
 1182.23        2980.00           2569         103.00       432.87
 1182.26        2980.25           2573          96.00       402.36
 1182.29        2980.50           2577         110.00       463.39
 1182.32        2980.75           2580         116.00       489.55
 1182.35        2981.00           2584          95.00       398.00
 1182.38        2981.25           2587          95.00       398.00
 1182.41        2981.50           2591          97.00       406.72
 1182.44        2981.75           2594          89.00       371.84
 1182.47        2982.00           2598          89.00       371.84
 1182.50        2982.25           2601          90.00       376.20
 1182.53        2982.50           2605          89.00       371.84
 1182.56        2982.75           2609          87.00       363.13
 1182.60        2983.00           2612          89.00       371.84
 1182.63        2983.25           2616          91.00       380.56
 1182.66        2983.50           2619          89.00       371.84
 1182.69        2983.75           2623          93.00       389.28
 1182.72        2984.00           2626          81.00       336.97
HS scan finished at 19:42:56
end
