************************************************************
  HS Scan of (1) Internal mercury lamp
************************************************************
Integration time is 0.2294 seconds per sample
dh110918Reading 51.44 .94 3.43pr1000
************************************************************
Dead Time -------------------------  3.4E-08 
Number of Cycles Used -------------  4 
Starting Wavelength (Angstroms) ---  2950 
Final Wavelength (Angstoms) -------  2984 
Wavelength Increment (Angstroms) --  .25 
Filter Wheel #1 Position ---------- (1) Ground quartz diffuser (ND=2.32)
Filter Wheel #2 Position ---------- (1) Neutral Density 0.494



************************************************************
HS scan start time = 02:09:10
Dark Count =  2 


Time (GMT)  Wavelength (Ang)  Step Number  Raw Counts  Counts/Second

  130.07        2950.00           2144          58.00       244.12
  130.27        2950.25           2147          61.00       257.19
  130.30        2950.50           2151          59.00       248.48
  130.33        2950.75           2155          55.00       231.04
  130.36        2951.00           2158          52.00       217.96
  130.39        2951.25           2162          67.00       283.35
  130.42        2951.50           2165          52.00       217.96
  130.45        2951.75           2169          54.00       226.68
  130.48        2952.00           2172          61.00       257.19
  130.51        2952.25           2176          64.00       270.27
  130.54        2952.50           2179          61.00       257.19
  130.57        2952.75           2183          63.00       265.91
  130.60        2953.00           2186          60.00       252.84
  130.63        2953.25           2190          64.00       270.27
  130.66        2953.50           2193          66.00       278.99
  130.69        2953.75           2197          64.00       270.27
  130.72        2954.00           2200          61.00       257.19
  130.75        2954.25           2204          59.00       248.48
  130.79        2954.50           2208          70.00       296.43
  130.82        2954.75           2211          66.00       278.99
  130.85        2955.00           2215          54.00       226.68
  130.88        2955.25           2218          62.00       261.55
  130.91        2955.50           2222          59.00       248.48
  130.94        2955.75           2225          62.00       261.55
  130.97        2956.00           2229          59.00       248.48
  131.00        2956.25           2232          55.00       231.04
  131.03        2956.50           2236          70.00       296.43
  131.06        2956.75           2239          64.00       270.27
  131.09        2957.00           2243          59.00       248.48
  131.12        2957.25           2246          66.00       278.99
  131.15        2957.50           2250          73.00       309.51
  131.18        2957.75           2254          76.00       322.58
  131.21        2958.00           2257          71.00       300.79
  131.24        2958.25           2261          71.00       300.79
  131.27        2958.50           2264          69.00       292.07
  131.30        2958.75           2268          66.00       278.99
  131.34        2959.00           2271          71.00       300.79
  131.37        2959.25           2275          73.00       309.51
  131.40        2959.50           2278          71.00       300.79
  131.43        2959.75           2282          77.00       326.94
  131.46        2960.00           2285          77.00       326.94
  131.49        2960.25           2289          83.00       353.10
  131.52        2960.50           2293          82.00       348.74
  131.55        2960.75           2296          84.00       357.46
  131.58        2961.00           2300         123.00       527.47
  131.61        2961.25           2303         168.00       723.64
  131.64        2961.50           2307         583.00      2532.91
  131.67        2961.75           2310        1192.00      5188.36
  131.70        2962.00           2314        2247.00      9789.66
  131.73        2962.25           2317        3089.00     13463.01
  131.76        2962.50           2321        4294.00     18721.59
  131.79        2962.75           2324        5152.00     22467.02
  131.82        2963.00           2328        6386.00     27855.49
  131.86        2963.25           2331        7414.00     32345.93
  131.89        2963.50           2335        8577.00     37427.72
  131.92        2963.75           2339        9990.00     43604.27
  131.95        2964.00           2342       10922.00     47679.67
  131.98        2964.25           2346       11916.00     52027.44
  132.01        2964.50           2349       12909.00     56372.11
  132.04        2964.75           2353       14119.00     61667.96
  132.07        2965.00           2356       15308.00     66873.77
  132.10        2965.25           2360       16375.00     71546.99
  132.13        2965.50           2363       17601.00     76918.43
  132.16        2965.75           2367       18802.00     82182.24
  132.19        2966.00           2370       19459.00     85062.57
  132.22        2966.25           2374       20212.00     88364.48
  132.25        2966.50           2378       20891.00     91342.53
  132.28        2966.75           2381       21157.00     92509.34
  132.31        2967.00           2385       21244.00     92891.01
  132.34        2967.25           2388       21880.00     95681.29
  132.38        2967.50           2392       21700.00     94891.53
  132.41        2967.75           2395       21339.00     93307.76
  132.44        2968.00           2399       20569.00     89930.18
  132.47        2968.25           2402       19458.00     85058.19
  132.50        2968.50           2406       18665.00     81581.68
  132.53        2968.75           2409       17684.00     77282.15
  132.56        2969.00           2413       16294.00     71192.18
  132.59        2969.25           2417       14867.00     64942.72
  132.62        2969.50           2420       14128.00     61707.36
  132.65        2969.75           2424       13074.00     57094.17
  132.68        2970.00           2427       11844.00     51712.46
  132.71        2970.25           2431       10477.00     45733.66
  132.74        2970.50           2434        9677.00     42235.85
  132.77        2970.75           2438        8416.00     36724.12
  132.80        2971.00           2441        7577.00     33058.06
  132.83        2971.25           2445        6398.00     27907.90
  132.86        2971.50           2449        5113.00     22296.76
  132.90        2971.75           2452        4129.00     18001.43
  132.93        2972.00           2456        2975.00     12965.61
  132.96        2972.25           2459        2124.00      9253.13
  132.99        2972.50           2463        1070.00      4656.36
  133.02        2972.75           2466         550.00      2389.03
  133.05        2973.00           2470         192.00       828.27
  133.08        2973.25           2473         125.00       536.19
  133.11        2973.50           2477         103.00       440.29
  133.14        2973.75           2481          95.00       405.41
  133.17        2974.00           2484          93.00       396.69
  133.20        2974.25           2488          82.00       348.74
  133.23        2974.50           2491          98.00       418.49
  133.26        2974.75           2495          79.00       335.66
  133.30        2975.00           2498          89.00       379.26
  133.33        2975.25           2502          89.00       379.26
  133.36        2975.50           2505          88.00       374.90
  133.39        2975.75           2509          82.00       348.74
  133.42        2976.00           2512          75.00       318.22
  133.45        2976.25           2516          77.00       326.94
  133.48        2976.50           2520          69.00       292.07
  133.51        2976.75           2523          68.00       287.71
  133.54        2977.00           2527          69.00       292.07
  133.57        2977.25           2530          76.00       322.58
  133.61        2977.50           2534          73.00       309.51
  133.64        2977.75           2537          63.00       265.91
  133.67        2978.00           2541          76.00       322.58
  133.70        2978.25           2544          68.00       287.71
  133.73        2978.50           2548          70.00       296.43
  133.76        2978.75           2552          76.00       322.58
  133.79        2979.00           2555          70.00       296.43
  133.82        2979.25           2559          67.00       283.35
  133.85        2979.50           2562          74.00       313.87
  133.88        2979.75           2566          63.00       265.91
  133.91        2980.00           2569          70.00       296.43
  133.94        2980.25           2573          72.00       305.15
  133.97        2980.50           2577          67.00       283.35
  134.00        2980.75           2580          63.00       265.91
  134.03        2981.00           2584          63.00       265.91
  134.06        2981.25           2587          58.00       244.12
  134.09        2981.50           2591          68.00       287.71
  134.13        2981.75           2594          53.00       222.32
  134.16        2982.00           2598          62.00       261.55
  134.19        2982.25           2601          64.00       270.27
  134.22        2982.50           2605          63.00       265.91
  134.25        2982.75           2609          66.00       278.99
  134.28        2983.00           2612          58.00       244.12
  134.31        2983.25           2616          73.00       309.51
  134.34        2983.50           2619          62.00       261.55
  134.37        2983.75           2623          58.00       244.12
  134.40        2984.00           2626          58.00       244.12
HS scan finished at 02:14:37
end
************************************************************
  HS Scan of (1) Internal mercury lamp
************************************************************
Integration time is 0.2294 seconds per sample
dh110918Reading 51.44 .94 3.64pr1000
************************************************************
Dead Time -------------------------  3.4E-08 
Number of Cycles Used -------------  4 
Starting Wavelength (Angstroms) ---  2950 
Final Wavelength (Angstoms) -------  2984 
Wavelength Increment (Angstroms) --  .25 
Filter Wheel #1 Position ---------- (1) Ground quartz diffuser (ND=2.32)
Filter Wheel #2 Position ---------- (1) Neutral Density 0.494



************************************************************
HS scan start time = 19:37:27
Dark Count =  3.1 


Time (GMT)  Wavelength (Ang)  Step Number  Raw Counts  Counts/Second

 1178.35        2950.00           2144          57.00       234.96
 1178.54        2950.25           2147          57.00       234.96
 1178.57        2950.50           2151          61.00       252.40
 1178.60        2950.75           2155          62.00       256.76
 1178.64        2951.00           2158          61.00       252.40
 1178.67        2951.25           2162          60.00       248.04
 1178.70        2951.50           2165          55.00       226.24
 1178.73        2951.75           2169          61.00       252.40
 1178.76        2952.00           2172          59.00       243.68
 1178.80        2952.25           2176          64.00       265.48
 1178.83        2952.50           2179          62.00       256.76
 1178.86        2952.75           2183          60.00       248.04
 1178.90        2953.00           2186          59.00       243.68
 1178.93        2953.25           2190          60.00       248.04
 1178.96        2953.50           2193          63.00       261.12
 1178.99        2953.75           2197          64.00       265.48
 1179.02        2954.00           2200          59.00       243.68
 1179.05        2954.25           2204          64.00       265.48
 1179.08        2954.50           2208          67.00       278.56
 1179.11        2954.75           2211          66.00       274.20
 1179.14        2955.00           2215          69.00       287.27
 1179.17        2955.25           2218          60.00       248.04
 1179.20        2955.50           2222          67.00       278.56
 1179.23        2955.75           2225          69.00       287.27
 1179.26        2956.00           2229          67.00       278.56
 1179.29        2956.25           2232          63.00       261.12
 1179.32        2956.50           2236          66.00       274.20
 1179.35        2956.75           2239          66.00       274.20
 1179.39        2957.00           2243          75.00       313.43
 1179.42        2957.25           2246          72.00       300.35
 1179.45        2957.50           2250          68.00       282.91
 1179.48        2957.75           2254          72.00       300.35
 1179.51        2958.00           2257          72.00       300.35
 1179.54        2958.25           2261          72.00       300.35
 1179.57        2958.50           2264          72.00       300.35
 1179.60        2958.75           2268          85.00       357.02
 1179.63        2959.00           2271          73.00       304.71
 1179.66        2959.25           2275          81.00       339.59
 1179.69        2959.50           2278          70.00       291.63
 1179.72        2959.75           2282          80.00       335.23
 1179.75        2960.00           2285          76.00       317.79
 1179.78        2960.25           2289          83.00       348.30
 1179.81        2960.50           2293          78.00       326.51
 1179.85        2960.75           2296          86.00       361.38
 1179.88        2961.00           2300         104.00       439.85
 1179.91        2961.25           2303         207.00       888.87
 1179.94        2961.50           2307         664.00      2881.28
 1179.97        2961.75           2310        1386.00      6029.57
 1180.00        2962.00           2314        2460.00     10714.02
 1180.03        2962.25           2317        3408.00     14850.13
 1180.06        2962.50           2321        4560.00     19877.86
 1180.09        2962.75           2324        5440.00     23719.65
 1180.12        2963.00           2328        6716.00     29292.02
 1180.15        2963.25           2331        7539.00     32887.24
 1180.18        2963.50           2335        8873.00     38716.59
 1180.21        2963.75           2339        9982.00     43564.48
 1180.24        2964.00           2342       10972.00     47893.54
 1180.27        2964.25           2346       12350.00     53921.35
 1180.30        2964.50           2349       13035.00     56918.68
 1180.33        2964.75           2353       14335.00     62608.73
 1180.37        2965.00           2356       15344.00     67026.60
 1180.40        2965.25           2360       16422.00     71748.04
 1180.43        2965.50           2363       17395.00     76010.93
 1180.46        2965.75           2367       18961.00     82874.43
 1180.49        2966.00           2370       19656.00     85921.52
 1180.52        2966.25           2374       20553.00     89855.18
 1180.55        2966.50           2378       21098.00     92245.71
 1180.58        2966.75           2381       21183.00     92618.59
 1180.61        2967.00           2385       21189.00     92644.89
 1180.64        2967.25           2388       21205.00     92715.09
 1180.67        2967.50           2392       21277.00     93030.94
 1180.70        2967.75           2395       20807.00     90969.25
 1180.73        2968.00           2399       20084.00     87798.33
 1180.76        2968.25           2402       19326.00     84474.62
 1180.79        2968.50           2406       18383.00     80340.79
 1180.82        2968.75           2409       17261.00     75423.77
 1180.85        2969.00           2413       16278.00     71117.27
 1180.89        2969.25           2417       14963.00     65358.25
 1180.92        2969.50           2420       14139.00     61750.71
 1180.95        2969.75           2424       13038.00     56931.81
 1180.98        2970.00           2427       12187.00     53208.21
 1181.01        2970.25           2431       10727.00     46822.09
 1181.04        2970.50           2434        9734.00     42480.24
 1181.07        2970.75           2438        8397.00     36636.29
 1181.10        2971.00           2441        7501.00     32721.22
 1181.13        2971.25           2445        6370.00     27780.81
 1181.16        2971.50           2449        5266.00     22959.94
 1181.19        2971.75           2452        4338.00     18908.84
 1181.22        2972.00           2456        3294.00     14352.69
 1181.25        2972.25           2459        2466.00     10740.19
 1181.28        2972.50           2463        1373.00      5972.88
 1181.31        2972.75           2466         732.00      3177.76
 1181.34        2973.00           2470         212.00       910.66
 1181.37        2973.25           2473         116.00       492.16
 1181.40        2973.50           2477         112.00       474.72
 1181.44        2973.75           2481          86.00       361.38
 1181.47        2974.00           2484          92.00       387.54
 1181.50        2974.25           2488          90.00       378.82
 1181.53        2974.50           2491          81.00       339.59
 1181.56        2974.75           2495          75.00       313.43
 1181.59        2975.00           2498          79.00       330.87
 1181.62        2975.25           2502          75.00       313.43
 1181.65        2975.50           2505          83.00       348.30
 1181.68        2975.75           2509          64.00       265.48
 1181.71        2976.00           2512          69.00       287.27
 1181.74        2976.25           2516          74.00       309.07
 1181.77        2976.50           2520          73.00       304.71
 1181.80        2976.75           2523          75.00       313.43
 1181.83        2977.00           2527          67.00       278.56
 1181.86        2977.25           2530          66.00       274.20
 1181.89        2977.50           2534          66.00       274.20
 1181.93        2977.75           2537          72.00       300.35
 1181.96        2978.00           2541          68.00       282.91
 1181.99        2978.25           2544          70.00       291.63
 1182.02        2978.50           2548          63.00       261.12
 1182.05        2978.75           2552          67.00       278.56
 1182.08        2979.00           2555          66.00       274.20
 1182.11        2979.25           2559          63.00       261.12
 1182.14        2979.50           2562          66.00       274.20
 1182.17        2979.75           2566          70.00       291.63
 1182.20        2980.00           2569          64.00       265.48
 1182.23        2980.25           2573          67.00       278.56
 1182.26        2980.50           2577          61.00       252.40
 1182.29        2980.75           2580          61.00       252.40
 1182.32        2981.00           2584          57.00       234.96
 1182.35        2981.25           2587          64.00       265.48
 1182.38        2981.50           2591          66.00       274.20
 1182.41        2981.75           2594          63.00       261.12
 1182.45        2982.00           2598          62.00       256.76
 1182.48        2982.25           2601          62.00       256.76
 1182.51        2982.50           2605          63.00       261.12
 1182.54        2982.75           2609          64.00       265.48
 1182.57        2983.00           2612          59.00       243.68
 1182.60        2983.25           2616          64.00       265.48
 1182.63        2983.50           2619          68.00       282.91
 1182.66        2983.75           2623          59.00       243.68
 1182.69        2984.00           2626          62.00       256.76
HS scan finished at 19:42:55
end
