************************************************************
  HS Scan of (1) Internal mercury lamp
************************************************************
Integration time is 0.2294 seconds per sample
dh090917Reading 51.44 .94 3.09pr1000
************************************************************
Dead Time -------------------------  3.4E-08 
Number of Cycles Used -------------  4 
Starting Wavelength (Angstroms) ---  2950 
Final Wavelength (Angstoms) -------  2984 
Wavelength Increment (Angstroms) --  .25 
Filter Wheel #1 Position ---------- (1) Ground quartz diffuser (ND=2.32)
Filter Wheel #2 Position ---------- (1) Neutral Density 0.494



************************************************************
HS scan start time = 02:00:57
Dark Count =  .9 


Time (GMT)  Wavelength (Ang)  Step Number  Raw Counts  Counts/Second

  121.85        2950.00           2144         205.00       889.74
  122.04        2950.25           2147         196.00       850.50
  122.07        2950.50           2151         208.00       902.82
  122.10        2950.75           2155         209.00       907.18
  122.13        2951.00           2158         208.00       902.82
  122.16        2951.25           2162         212.00       920.26
  122.19        2951.50           2165         214.00       928.97
  122.23        2951.75           2169         216.00       937.69
  122.26        2952.00           2172         212.00       920.26
  122.29        2952.25           2176         209.00       907.18
  122.32        2952.50           2179         213.00       924.62
  122.35        2952.75           2183         219.00       950.77
  122.38        2953.00           2186         235.00      1020.52
  122.42        2953.25           2190         217.00       942.05
  122.45        2953.50           2193         224.00       972.57
  122.48        2953.75           2197         240.00      1042.32
  122.51        2954.00           2200         226.00       981.29
  122.54        2954.25           2204         220.00       955.13
  122.57        2954.50           2208         231.00      1003.09
  122.60        2954.75           2211         244.00      1059.76
  122.63        2955.00           2215         231.00      1003.09
  122.66        2955.25           2218         229.00       994.37
  122.69        2955.50           2222         231.00      1003.09
  122.72        2955.75           2225         254.00      1103.35
  122.75        2956.00           2229         264.00      1146.95
  122.78        2956.25           2232         234.00      1016.16
  122.81        2956.50           2236         243.00      1055.40
  122.84        2956.75           2239         267.00      1160.03
  122.87        2957.00           2243         284.00      1234.14
  122.90        2957.25           2246         266.00      1155.67
  122.94        2957.50           2250         287.00      1247.22
  122.97        2957.75           2254         252.00      1094.64
  123.00        2958.00           2257         258.00      1120.79
  123.03        2958.25           2261         290.00      1260.30
  123.06        2958.50           2264         272.00      1181.83
  123.09        2958.75           2268         260.00      1129.51
  123.12        2959.00           2271         270.00      1173.11
  123.15        2959.25           2275         267.00      1160.03
  123.18        2959.50           2278         282.00      1225.42
  123.21        2959.75           2282         281.00      1221.06
  123.24        2960.00           2285         300.00      1303.89
  123.27        2960.25           2289         295.00      1282.10
  123.30        2960.50           2293         309.00      1343.13
  123.33        2960.75           2296         306.00      1330.05
  123.36        2961.00           2300         335.00      1456.48
  123.39        2961.25           2303         589.00      2563.87
  123.42        2961.50           2307        2160.00      9414.96
  123.46        2961.75           2310        4527.00     19743.41
  123.49        2962.00           2314        8310.00     36265.70
  123.52        2962.25           2317       11424.00     49880.08
  123.55        2962.50           2321       16102.00     70355.98
  123.58        2962.75           2324       19707.00     86154.78
  123.61        2963.00           2328       24791.00    108464.20
  123.64        2963.25           2331       28013.00    122620.50
  123.67        2963.50           2335       32563.00    142634.70
  123.70        2963.75           2339       36805.00    161318.80
  123.73        2964.00           2342       40426.00    177286.40
  123.76        2964.25           2346       45640.00    200309.50
  123.79        2964.50           2349       49042.00    215350.90
  123.82        2964.75           2353       53469.00    234947.40
  123.85        2965.00           2356       56565.00    248667.70
  123.88        2965.25           2360       60806.00    267483.10
  123.91        2965.50           2363       64149.00    282331.50
  123.94        2965.75           2367       68260.00    300611.80
  123.98        2966.00           2370       71443.00    314781.30
  124.01        2966.25           2374       75774.00    334083.30
  124.04        2966.50           2378       78268.00    345209.90
  124.07        2966.75           2381       78973.00    348356.70
  124.10        2967.00           2385       79008.00    348513.00
  124.13        2967.25           2388       78905.00    348053.10
  124.16        2967.50           2392       79120.00    349012.90
  124.19        2967.75           2395       78884.00    347959.40
  124.22        2968.00           2399       77311.00    340939.40
  124.25        2968.25           2402       74394.00    327930.20
  124.28        2968.50           2406       70220.00    309335.30
  124.31        2968.75           2409       67701.00    298124.80
  124.34        2969.00           2413       63571.00    279763.10
  124.37        2969.25           2417       59073.00    259791.60
  124.40        2969.50           2420       55593.00    244358.80
  124.43        2969.75           2424       50735.00    222842.00
  124.46        2970.00           2427       47289.00    207598.40
  124.49        2970.25           2431       42435.00    186153.10
  124.53        2970.50           2434       38967.00    170850.60
  124.56        2970.75           2438       34331.00    150419.00
  124.59        2971.00           2441       30713.00    134493.70
  124.62        2971.25           2445       25532.00    111718.70
  124.65        2971.50           2449       20652.00     90299.04
  124.68        2971.75           2452       17025.00     74399.40
  124.71        2972.00           2456       12654.00     55261.10
  124.74        2972.25           2459        9511.00     41514.97
  124.77        2972.50           2463        5412.00     23607.00
  124.80        2972.75           2466        2866.00     12494.85
  124.83        2973.00           2470         904.00      3937.32
  124.86        2973.25           2473         428.00      1861.93
  124.89        2973.50           2477         321.00      1395.45
  124.92        2973.75           2481         311.00      1351.85
  124.95        2974.00           2484         306.00      1330.05
  124.98        2974.25           2488         301.00      1308.25
  125.01        2974.50           2491         286.00      1242.86
  125.05        2974.75           2495         279.00      1212.34
  125.08        2975.00           2498         285.00      1238.50
  125.11        2975.25           2502         262.00      1138.23
  125.14        2975.50           2505         285.00      1238.50
  125.17        2975.75           2509         274.00      1190.55
  125.20        2976.00           2512         264.00      1146.95
  125.23        2976.25           2516         244.00      1059.76
  125.26        2976.50           2520         248.00      1077.20
  125.29        2976.75           2523         239.00      1037.96
  125.32        2977.00           2527         237.00      1029.24
  125.35        2977.25           2530         244.00      1059.76
  125.38        2977.50           2534         264.00      1146.95
  125.41        2977.75           2537         225.00       976.93
  125.44        2978.00           2541         243.00      1055.40
  125.47        2978.25           2544         215.00       933.33
  125.50        2978.50           2548         241.00      1046.68
  125.53        2978.75           2552         215.00       933.33
  125.57        2979.00           2555         208.00       902.82
  125.60        2979.25           2559         223.00       968.21
  125.63        2979.50           2562         194.00       841.79
  125.66        2979.75           2566         212.00       920.26
  125.69        2980.00           2569         205.00       889.74
  125.72        2980.25           2573         225.00       976.93
  125.75        2980.50           2577         213.00       924.62
  125.78        2980.75           2580         199.00       863.58
  125.81        2981.00           2584         191.00       828.71
  125.84        2981.25           2587         200.00       867.94
  125.87        2981.50           2591         200.00       867.94
  125.90        2981.75           2594         199.00       863.58
  125.93        2982.00           2598         204.00       885.38
  125.96        2982.25           2601         204.00       885.38
  125.99        2982.50           2605         186.00       806.91
  126.02        2982.75           2609         200.00       867.94
  126.05        2983.00           2612         195.00       846.14
  126.09        2983.25           2616         180.00       780.75
  126.12        2983.50           2619         183.00       793.83
  126.15        2983.75           2623         192.00       833.07
  126.18        2984.00           2626         193.00       837.43
HS scan finished at 02:06:24
end
************************************************************
  HS Scan of (1) Internal mercury lamp
************************************************************
Integration time is 0.2294 seconds per sample
dh090917Reading 51.44 .94 3.29pr1000
************************************************************
Dead Time -------------------------  3.4E-08 
Number of Cycles Used -------------  4 
Starting Wavelength (Angstroms) ---  2950 
Final Wavelength (Angstoms) -------  2984 
Wavelength Increment (Angstroms) --  .25 
Filter Wheel #1 Position ---------- (1) Ground quartz diffuser (ND=2.32)
Filter Wheel #2 Position ---------- (1) Neutral Density 0.494



************************************************************
HS scan start time = 19:37:27
Dark Count =  1.8 


Time (GMT)  Wavelength (Ang)  Step Number  Raw Counts  Counts/Second

 1178.34        2950.00           2144         101.00       432.44
 1178.54        2950.25           2147         118.00       506.55
 1178.57        2950.50           2151         115.00       493.47
 1178.60        2950.75           2155          96.00       410.64
 1178.63        2951.00           2158          93.00       397.56
 1178.66        2951.25           2162          93.00       397.56
 1178.69        2951.50           2165          87.00       371.41
 1178.72        2951.75           2169          86.00       367.05
 1178.75        2952.00           2172         106.00       454.24
 1178.78        2952.25           2176         115.00       493.47
 1178.81        2952.50           2179         111.00       476.03
 1178.84        2952.75           2183         148.00       637.33
 1178.87        2953.00           2186         122.00       523.98
 1178.90        2953.25           2190         106.00       454.24
 1178.93        2953.50           2193          99.00       423.72
 1178.96        2953.75           2197         120.00       515.27
 1178.99        2954.00           2200          93.00       397.56
 1179.03        2954.25           2204         117.00       502.19
 1179.06        2954.50           2208          96.00       410.64
 1179.09        2954.75           2211         112.00       480.39
 1179.12        2955.00           2215         128.00       550.14
 1179.15        2955.25           2218         130.00       558.86
 1179.18        2955.50           2222         115.00       493.47
 1179.21        2955.75           2225         126.00       541.42
 1179.24        2956.00           2229         127.00       545.78
 1179.27        2956.25           2232         112.00       480.39
 1179.30        2956.50           2236         113.00       484.75
 1179.33        2956.75           2239         108.00       462.95
 1179.36        2957.00           2243         108.00       462.95
 1179.39        2957.25           2246         127.00       545.78
 1179.42        2957.50           2250         123.00       528.34
 1179.45        2957.75           2254         121.00       519.63
 1179.48        2958.00           2257         162.00       698.36
 1179.51        2958.25           2261         116.00       497.83
 1179.55        2958.50           2264         153.00       659.13
 1179.58        2958.75           2268         141.00       606.81
 1179.61        2959.00           2271         114.00       489.11
 1179.64        2959.25           2275         126.00       541.42
 1179.67        2959.50           2278         141.00       606.81
 1179.70        2959.75           2282         147.00       632.97
 1179.73        2960.00           2285         144.00       619.89
 1179.76        2960.25           2289         141.00       606.81
 1179.79        2960.50           2293         130.00       558.86
 1179.82        2960.75           2296         152.00       654.77
 1179.85        2961.00           2300         158.00       680.92
 1179.88        2961.25           2303         275.00      1190.98
 1179.91        2961.50           2307        1080.00      4700.84
 1179.94        2961.75           2310        2332.00     10161.31
 1179.97        2962.00           2314        3927.00     17120.69
 1180.00        2962.25           2317        5385.00     23485.18
 1180.03        2962.50           2321        7404.00     32303.11
 1180.07        2962.75           2324       10640.00     46447.32
 1180.10        2963.00           2328       12770.00     55764.74
 1180.13        2963.25           2331       14392.00     62863.96
 1180.16        2963.50           2335       16888.00     73795.21
 1180.19        2963.75           2339       16764.00     73251.96
 1180.22        2964.00           2342       18034.00     78816.86
 1180.25        2964.25           2346       19873.00     86878.75
 1180.28        2964.50           2349       25626.00    112127.60
 1180.31        2964.75           2353       27571.00    120673.70
 1180.34        2965.00           2356       27014.00    118225.80
 1180.37        2965.25           2360       27240.00    119219.00
 1180.40        2965.50           2363       28714.00    125698.20
 1180.43        2965.75           2367       30228.00    132356.30
 1180.46        2966.00           2370       37510.00    164422.30
 1180.49        2966.25           2374       34465.00    151005.20
 1180.52        2966.50           2378       35122.00    153899.10
 1180.55        2966.75           2381       35486.00    155502.60
 1180.58        2967.00           2385       41386.00    181518.80
 1180.62        2967.25           2388       40897.00    179360.70
 1180.65        2967.50           2392       40827.00    179051.90
 1180.68        2967.75           2395       40532.00    177750.20
 1180.71        2968.00           2399       39340.00    172491.60
 1180.74        2968.25           2402       37896.00    166124.00
 1180.77        2968.50           2406       35844.00    157079.90
 1180.80        2968.75           2409       29838.00    130640.90
 1180.83        2969.00           2413       27011.00    118212.60
 1180.86        2969.25           2417       24870.00    108807.20
 1180.89        2969.50           2420       23208.00    101510.20
 1180.92        2969.75           2424       26134.00    114359.20
 1180.95        2970.00           2427       24093.00    105395.30
 1180.98        2970.25           2431       21572.00     94330.84
 1181.01        2970.50           2434       19747.00     86326.24
 1181.04        2970.75           2438       16959.00     74106.28
 1181.07        2971.00           2441       15092.00     65928.79
 1181.10        2971.25           2445       12816.00     55966.03
 1181.14        2971.50           2449       10424.00     45502.78
 1181.17        2971.75           2452        8887.00     38783.46
 1181.20        2972.00           2456        5707.00     24891.15
 1181.23        2972.25           2459        4065.00     17722.97
 1181.26        2972.50           2463        2523.00     10994.52
 1181.29        2972.75           2466        1493.00      6501.87
 1181.32        2973.00           2470         354.00      1535.39
 1181.35        2973.25           2473         193.00       833.50
 1181.38        2973.50           2477         149.00       641.69
 1181.41        2973.75           2481         132.00       567.58
 1181.44        2974.00           2484         169.00       728.88
 1181.47        2974.25           2488         151.00       650.41
 1181.50        2974.50           2491         155.00       667.84
 1181.53        2974.75           2495         148.00       637.33
 1181.56        2975.00           2498         132.00       567.58
 1181.59        2975.25           2502         118.00       506.55
 1181.62        2975.50           2505         145.00       624.25
 1181.66        2975.75           2509         140.00       602.45
 1181.69        2976.00           2512         150.00       646.05
 1181.72        2976.25           2516         137.00       589.38
 1181.75        2976.50           2520         143.00       615.53
 1181.78        2976.75           2523         104.00       445.52
 1181.81        2977.00           2527         140.00       602.45
 1181.84        2977.25           2530         141.00       606.81
 1181.87        2977.50           2534         123.00       528.34
 1181.90        2977.75           2537         130.00       558.86
 1181.93        2978.00           2541         133.00       571.94
 1181.96        2978.25           2544         134.00       576.30
 1181.99        2978.50           2548         102.00       436.80
 1182.02        2978.75           2552         103.00       441.16
 1182.05        2979.00           2555          91.00       388.85
 1182.08        2979.25           2559         139.00       598.09
 1182.11        2979.50           2562         155.00       667.84
 1182.14        2979.75           2566         117.00       502.19
 1182.18        2980.00           2569         123.00       528.34
 1182.21        2980.25           2573         108.00       462.95
 1182.24        2980.50           2577         112.00       480.39
 1182.27        2980.75           2580          95.00       406.28
 1182.30        2981.00           2584         105.00       449.88
 1182.33        2981.25           2587         111.00       476.03
 1182.36        2981.50           2591         101.00       432.44
 1182.39        2981.75           2594          89.00       380.13
 1182.42        2982.00           2598          88.00       375.77
 1182.45        2982.25           2601          90.00       384.49
 1182.48        2982.50           2605         105.00       449.88
 1182.51        2982.75           2609         107.00       458.59
 1182.54        2983.00           2612         102.00       436.80
 1182.57        2983.25           2616         104.00       445.52
 1182.60        2983.50           2619         112.00       480.39
 1182.63        2983.75           2623          89.00       380.13
 1182.66        2984.00           2626          92.00       393.20
HS scan finished at 19:42:53
end
