************************************************************
  HS Scan of (1) Internal mercury lamp
************************************************************
Integration time is 0.2294 seconds per sample
dh120918Reading 51.44 .94 3.5pr1000
************************************************************
Dead Time -------------------------  3.4E-08 
Number of Cycles Used -------------  4 
Starting Wavelength (Angstroms) ---  2950 
Final Wavelength (Angstoms) -------  2984 
Wavelength Increment (Angstroms) --  .25 
Filter Wheel #1 Position ---------- (1) Ground quartz diffuser (ND=2.32)
Filter Wheel #2 Position ---------- (1) Neutral Density 0.494



************************************************************
HS scan start time = 02:32:07
Dark Count =  2 


Time (GMT)  Wavelength (Ang)  Step Number  Raw Counts  Counts/Second

  153.02        2950.00           2144          54.00       226.68
  153.21        2950.25           2147          59.00       248.48
  153.24        2950.50           2151          58.00       244.12
  153.27        2950.75           2155          67.00       283.35
  153.30        2951.00           2158          57.00       239.76
  153.33        2951.25           2162          56.00       235.40
  153.37        2951.50           2165          52.00       217.96
  153.40        2951.75           2169          57.00       239.76
  153.43        2952.00           2172          63.00       265.91
  153.46        2952.25           2176          62.00       261.55
  153.49        2952.50           2179          59.00       248.48
  153.52        2952.75           2183          61.00       257.19
  153.55        2953.00           2186          48.00       200.52
  153.58        2953.25           2190          57.00       239.76
  153.61        2953.50           2193          51.00       213.60
  153.64        2953.75           2197          68.00       287.71
  153.67        2954.00           2200          64.00       270.27
  153.70        2954.25           2204          63.00       265.91
  153.73        2954.50           2208          62.00       261.55
  153.76        2954.75           2211          66.00       278.99
  153.79        2955.00           2215          65.00       274.63
  153.82        2955.25           2218          53.00       222.32
  153.85        2955.50           2222          58.00       244.12
  153.89        2955.75           2225          62.00       261.55
  153.92        2956.00           2229          70.00       296.43
  153.95        2956.25           2232          65.00       274.63
  153.98        2956.50           2236          68.00       287.71
  154.01        2956.75           2239          73.00       309.51
  154.04        2957.00           2243          62.00       261.55
  154.07        2957.25           2246          69.00       292.07
  154.10        2957.50           2250          72.00       305.15
  154.13        2957.75           2254          78.00       331.30
  154.16        2958.00           2257          65.00       274.63
  154.19        2958.25           2261          77.00       326.94
  154.22        2958.50           2264          73.00       309.51
  154.25        2958.75           2268          69.00       292.07
  154.28        2959.00           2271          76.00       322.58
  154.31        2959.25           2275          71.00       300.79
  154.35        2959.50           2278          73.00       309.51
  154.38        2959.75           2282          70.00       296.43
  154.41        2960.00           2285          79.00       335.66
  154.44        2960.25           2289          79.00       335.66
  154.47        2960.50           2293          80.00       340.02
  154.50        2960.75           2296          89.00       379.26
  154.53        2961.00           2300         145.00       623.38
  154.56        2961.25           2303         343.00      1486.56
  154.60        2961.50           2307         945.00      4111.30
  154.63        2961.75           2310        1618.00      7046.15
  154.66        2962.00           2314        2764.00     12045.04
  154.69        2962.25           2317        3645.00     15889.14
  154.72        2962.50           2321        4873.00     21249.00
  154.75        2962.75           2324        5720.00     24947.05
  154.78        2963.00           2328        6731.00     29362.34
  154.81        2963.25           2331        7673.00     33477.49
  154.84        2963.50           2335        8931.00     38974.89
  154.87        2963.75           2339       10126.00     44198.89
  154.90        2964.00           2342       10960.00     47845.87
  154.93        2964.25           2346       12261.00     53536.77
  154.96        2964.50           2349       13096.00     57190.44
  154.99        2964.75           2353       14788.00     64596.82
  155.02        2965.00           2356       15608.00     68187.55
  155.05        2965.25           2360       16753.00     73202.90
  155.08        2965.50           2363       18048.00     78877.34
  155.12        2965.75           2367       18843.00     82361.97
  155.15        2966.00           2370       20234.00     88460.96
  155.18        2966.25           2374       21598.00     94444.02
  155.21        2966.50           2378       21632.00     94593.19
  155.24        2966.75           2381       21584.00     94382.59
  155.27        2967.00           2385       22060.00     96471.09
  155.30        2967.25           2388       21829.00     95457.53
  155.33        2967.50           2392       21804.00     95347.84
  155.36        2967.75           2395       21025.00     91930.31
  155.39        2968.00           2399       20334.00     88899.52
  155.42        2968.25           2402       19255.00     84168.16
  155.45        2968.50           2406       18346.00     80183.43
  155.48        2968.75           2409       17438.00     76204.16
  155.51        2969.00           2413       16146.00     70543.88
  155.54        2969.25           2417       15078.00     65866.61
  155.57        2969.50           2420       14221.00     62114.48
  155.60        2969.75           2424       13086.00     57146.68
  155.64        2970.00           2427       12018.00     52473.67
  155.67        2970.25           2431       10776.00     47041.18
  155.70        2970.50           2434        9713.00     42393.24
  155.73        2970.75           2438        8495.00     37069.36
  155.76        2971.00           2441        7400.00     32284.77
  155.79        2971.25           2445        6185.00     26977.66
  155.82        2971.50           2449        4960.00     21628.80
  155.85        2971.75           2452        4122.00     17970.87
  155.88        2972.00           2456        2903.00     12651.47
  155.91        2972.25           2459        2024.00      8816.94
  155.94        2972.50           2463         892.00      3880.20
  155.97        2972.75           2466         368.00      1595.55
  156.00        2973.00           2470         134.00       575.43
  156.03        2973.25           2473         101.00       431.57
  156.06        2973.50           2477         103.00       440.29
  156.09        2973.75           2481          83.00       353.10
  156.14        2974.00           2484          79.00       335.66
  156.17        2974.25           2488          78.00       331.30
  156.20        2974.50           2491          81.00       344.38
  156.23        2974.75           2495          80.00       340.02
  156.26        2975.00           2498          70.00       296.43
  156.29        2975.25           2502          72.00       305.15
  156.32        2975.50           2505          73.00       309.51
  156.35        2975.75           2509          71.00       300.79
  156.38        2976.00           2512          70.00       296.43
  156.41        2976.25           2516          76.00       322.58
  156.45        2976.50           2520          72.00       305.15
  156.48        2976.75           2523          68.00       287.71
  156.51        2977.00           2527          68.00       287.71
  156.54        2977.25           2530          71.00       300.79
  156.57        2977.50           2534          67.00       283.35
  156.60        2977.75           2537          65.00       274.63
  156.63        2978.00           2541          58.00       244.12
  156.66        2978.25           2544          66.00       278.99
  156.69        2978.50           2548          69.00       292.07
  156.72        2978.75           2552          69.00       292.07
  156.75        2979.00           2555          70.00       296.43
  156.78        2979.25           2559          70.00       296.43
  156.81        2979.50           2562          59.00       248.48
  156.84        2979.75           2566          60.00       252.84
  156.87        2980.00           2569          71.00       300.79
  156.90        2980.25           2573          69.00       292.07
  156.93        2980.50           2577          62.00       261.55
  156.97        2980.75           2580          59.00       248.48
  157.00        2981.00           2584          62.00       261.55
  157.03        2981.25           2587          62.00       261.55
  157.06        2981.50           2591          65.00       274.63
  157.09        2981.75           2594          62.00       261.55
  157.12        2982.00           2598          53.00       222.32
  157.15        2982.25           2601          57.00       239.76
  157.18        2982.50           2605          56.00       235.40
  157.21        2982.75           2609          60.00       252.84
  157.24        2983.00           2612          52.00       217.96
  157.27        2983.25           2616          61.00       257.19
  157.30        2983.50           2619          59.00       248.48
  157.33        2983.75           2623          60.00       252.84
  157.36        2984.00           2626          58.00       244.12
HS scan finished at 02:37:35
end
************************************************************
  HS Scan of (1) Internal mercury lamp
************************************************************
Integration time is 0.2294 seconds per sample
dh120918Reading 51.44 .94 3.39pr1000
************************************************************
Dead Time -------------------------  3.4E-08 
Number of Cycles Used -------------  4 
Starting Wavelength (Angstroms) ---  2950 
Final Wavelength (Angstoms) -------  2984 
Wavelength Increment (Angstroms) --  .25 
Filter Wheel #1 Position ---------- (1) Ground quartz diffuser (ND=2.32)
Filter Wheel #2 Position ---------- (1) Neutral Density 0.494



************************************************************
HS scan start time = 19:07:27
Dark Count =  2 


Time (GMT)  Wavelength (Ang)  Step Number  Raw Counts  Counts/Second

 1148.34        2950.00           2144          56.00       235.40
 1148.53        2950.25           2147          55.00       231.04
 1148.57        2950.50           2151          62.00       261.55
 1148.60        2950.75           2155          55.00       231.04
 1148.63        2951.00           2158          59.00       248.48
 1148.66        2951.25           2162          59.00       248.48
 1148.69        2951.50           2165          60.00       252.84
 1148.72        2951.75           2169          54.00       226.68
 1148.76        2952.00           2172          62.00       261.55
 1148.79        2952.25           2176          83.00       353.10
 1148.82        2952.50           2179          94.00       401.05
 1148.85        2952.75           2183          63.00       265.91
 1148.88        2953.00           2186          58.00       244.12
 1148.91        2953.25           2190          55.00       231.04
 1148.94        2953.50           2193          58.00       244.12
 1148.97        2953.75           2197          65.00       274.63
 1149.00        2954.00           2200          57.00       239.76
 1149.03        2954.25           2204          54.00       226.68
 1149.06        2954.50           2208          66.00       278.99
 1149.09        2954.75           2211          62.00       261.55
 1149.12        2955.00           2215          65.00       274.63
 1149.15        2955.25           2218          62.00       261.55
 1149.18        2955.50           2222          63.00       265.91
 1149.21        2955.75           2225          55.00       231.04
 1149.24        2956.00           2229          62.00       261.55
 1149.28        2956.25           2232          67.00       283.35
 1149.31        2956.50           2236          66.00       278.99
 1149.34        2956.75           2239          95.00       405.41
 1149.37        2957.00           2243          84.00       357.46
 1149.40        2957.25           2246          69.00       292.07
 1149.43        2957.50           2250          67.00       283.35
 1149.46        2957.75           2254          77.00       326.94
 1149.49        2958.00           2257          68.00       287.71
 1149.52        2958.25           2261          69.00       292.07
 1149.55        2958.50           2264          62.00       261.55
 1149.58        2958.75           2268          72.00       305.15
 1149.61        2959.00           2271          67.00       283.35
 1149.64        2959.25           2275          74.00       313.87
 1149.67        2959.50           2278          77.00       326.94
 1149.70        2959.75           2282          76.00       322.58
 1149.73        2960.00           2285          72.00       305.15
 1149.76        2960.25           2289          82.00       348.74
 1149.80        2960.50           2293          86.00       366.18
 1149.83        2960.75           2296          87.00       370.54
 1149.86        2961.00           2300         108.00       462.08
 1149.89        2961.25           2303         245.00      1059.32
 1149.92        2961.50           2307         727.00      3160.76
 1149.95        2961.75           2310        1348.00      5868.65
 1149.98        2962.00           2314        2274.00      9907.43
 1150.01        2962.25           2317        3036.00     13231.76
 1150.04        2962.50           2321        4012.00     17490.78
 1150.07        2962.75           2324        4831.00     21065.65
 1150.10        2963.00           2328        5880.00     25645.72
 1150.13        2963.25           2331        6708.00     29261.88
 1150.16        2963.50           2335        7865.00     34316.39
 1150.19        2963.75           2339        8940.00     39014.23
 1150.22        2964.00           2342       10180.00     44435.00
 1150.25        2964.25           2346       11093.00     48427.55
 1150.28        2964.50           2349       11629.00     50771.96
 1150.32        2964.75           2353       12996.00     56752.82
 1150.35        2965.00           2356       14052.00     61374.67
 1150.38        2965.25           2360       14867.00     64942.72
 1150.41        2965.50           2363       16415.00     71722.21
 1150.44        2965.75           2367       17467.00     76331.24
 1150.47        2966.00           2370       17911.00     78276.93
 1150.50        2966.25           2374       18155.00     79346.29
 1150.53        2966.50           2378       18997.00     83037.08
 1150.56        2966.75           2381       19606.00     85707.10
 1150.59        2967.00           2385       19392.00     84768.81
 1150.62        2967.25           2388       19691.00     86079.81
 1150.65        2967.50           2392       19758.00     86373.59
 1150.68        2967.75           2395       19458.00     85058.19
 1150.71        2968.00           2399       18561.00     81125.82
 1150.74        2968.25           2402       18419.00     80503.40
 1150.77        2968.50           2406       17680.00     77264.62
 1150.80        2968.75           2409       16679.00     72878.71
 1150.84        2969.00           2413       15134.00     66111.82
 1150.87        2969.25           2417       13857.00     60521.10
 1150.90        2969.50           2420       13087.00     57151.05
 1150.93        2969.75           2424       11611.00     50693.23
 1150.96        2970.00           2427       11490.00     50163.96
 1150.99        2970.25           2431       10075.00     43975.91
 1151.02        2970.50           2434        9015.00     39342.04
 1151.05        2970.75           2438        7795.00     34010.54
 1151.08        2971.00           2441        7233.00     31555.20
 1151.11        2971.25           2445        5803.00     25309.48
 1151.14        2971.50           2449        4697.00     20480.69
 1151.17        2971.75           2452        3903.00     17015.07
 1151.20        2972.00           2456        2825.00     12311.17
 1151.23        2972.25           2459        1985.00      8646.83
 1151.26        2972.50           2463        1008.00      4386.01
 1151.29        2972.75           2466         495.00      2149.24
 1151.32        2973.00           2470         194.00       836.99
 1151.36        2973.25           2473         105.00       449.00
 1151.39        2973.50           2477          97.00       414.13
 1151.42        2973.75           2481          90.00       383.61
 1151.45        2974.00           2484          88.00       374.90
 1151.48        2974.25           2488          81.00       344.38
 1151.51        2974.50           2491          78.00       331.30
 1151.54        2974.75           2495          79.00       335.66
 1151.57        2975.00           2498          75.00       318.22
 1151.60        2975.25           2502          83.00       353.10
 1151.63        2975.50           2505          70.00       296.43
 1151.66        2975.75           2509          71.00       300.79
 1151.69        2976.00           2512          75.00       318.22
 1151.72        2976.25           2516          73.00       309.51
 1151.75        2976.50           2520          74.00       313.87
 1151.78        2976.75           2523          64.00       270.27
 1151.81        2977.00           2527          69.00       292.07
 1151.84        2977.25           2530          70.00       296.43
 1151.88        2977.50           2534          67.00       283.35
 1151.91        2977.75           2537          62.00       261.55
 1151.94        2978.00           2541          60.00       252.84
 1151.97        2978.25           2544          71.00       300.79
 1152.00        2978.50           2548          70.00       296.43
 1152.03        2978.75           2552          64.00       270.27
 1152.06        2979.00           2555          59.00       248.48
 1152.09        2979.25           2559          60.00       252.84
 1152.12        2979.50           2562          58.00       244.12
 1152.15        2979.75           2566          58.00       244.12
 1152.18        2980.00           2569          60.00       252.84
 1152.21        2980.25           2573          56.00       235.40
 1152.24        2980.50           2577          57.00       239.76
 1152.27        2980.75           2580          92.00       392.33
 1152.30        2981.00           2584          88.00       374.90
 1152.33        2981.25           2587          84.00       357.46
 1152.36        2981.50           2591          87.00       370.54
 1152.39        2981.75           2594          60.00       252.84
 1152.43        2982.00           2598          55.00       231.04
 1152.46        2982.25           2601          56.00       235.40
 1152.49        2982.50           2605          57.00       239.76
 1152.52        2982.75           2609          69.00       292.07
 1152.55        2983.00           2612          58.00       244.12
 1152.58        2983.25           2616          57.00       239.76
 1152.61        2983.50           2619          55.00       231.04
 1152.64        2983.75           2623          55.00       231.04
 1152.67        2984.00           2626          60.00       252.84
HS scan finished at 19:12:54
end
