************************************************************
  HS Scan of (1) Internal mercury lamp
************************************************************
Integration time is 0.2294 seconds per sample
dh080918Reading 51.44 .94 3.09pr1000
************************************************************
Dead Time -------------------------  3.4E-08 
Number of Cycles Used -------------  4 
Starting Wavelength (Angstroms) ---  2950 
Final Wavelength (Angstoms) -------  2984 
Wavelength Increment (Angstroms) --  .25 
Filter Wheel #1 Position ---------- (1) Ground quartz diffuser (ND=2.32)
Filter Wheel #2 Position ---------- (1) Neutral Density 0.494



************************************************************
HS scan start time = 01:54:43
Dark Count =  .7 


Time (GMT)  Wavelength (Ang)  Step Number  Raw Counts  Counts/Second

  115.62        2950.00           2144          61.00       262.86
  115.81        2950.25           2147          60.00       258.50
  115.84        2950.50           2151          63.00       271.58
  115.87        2950.75           2155          67.00       289.02
  115.90        2951.00           2158          59.00       254.14
  115.93        2951.25           2162          64.00       275.94
  115.97        2951.50           2165          62.00       267.22
  116.00        2951.75           2169          55.00       236.71
  116.03        2952.00           2172          62.00       267.22
  116.06        2952.25           2176          64.00       275.94
  116.09        2952.50           2179          59.00       254.14
  116.12        2952.75           2183          66.00       284.66
  116.15        2953.00           2186          67.00       289.02
  116.18        2953.25           2190          74.00       319.53
  116.21        2953.50           2193          66.00       284.66
  116.24        2953.75           2197          70.00       302.10
  116.27        2954.00           2200          69.00       297.74
  116.30        2954.25           2204          67.00       289.02
  116.33        2954.50           2208          69.00       297.74
  116.36        2954.75           2211          65.00       280.30
  116.39        2955.00           2215          62.00       267.22
  116.42        2955.25           2218          67.00       289.02
  116.45        2955.50           2222          68.00       293.38
  116.48        2955.75           2225          70.00       302.10
  116.52        2956.00           2229          73.00       315.17
  116.55        2956.25           2232          67.00       289.02
  116.58        2956.50           2236          72.00       310.81
  116.61        2956.75           2239          70.00       302.10
  116.64        2957.00           2243          69.00       297.74
  116.67        2957.25           2246          69.00       297.74
  116.70        2957.50           2250          76.00       328.25
  116.73        2957.75           2254          67.00       289.02
  116.76        2958.00           2257          83.00       358.77
  116.79        2958.25           2261          67.00       289.02
  116.82        2958.50           2264          79.00       341.33
  116.85        2958.75           2268          78.00       336.97
  116.88        2959.00           2271          75.00       323.89
  116.91        2959.25           2275          77.00       332.61
  116.94        2959.50           2278          92.00       398.00
  116.97        2959.75           2282          80.00       345.69
  117.01        2960.00           2285          78.00       336.97
  117.04        2960.25           2289          84.00       363.13
  117.07        2960.50           2293          85.00       367.49
  117.10        2960.75           2296          91.00       393.64
  117.13        2961.00           2300         102.00       441.59
  117.16        2961.25           2303         201.00       873.17
  117.19        2961.50           2307         641.00      2791.46
  117.22        2961.75           2310        1251.00      5451.32
  117.25        2962.00           2314        2280.00      9939.28
  117.28        2962.25           2317        3077.00     13416.32
  117.31        2962.50           2321        4160.00     18142.40
  117.34        2962.75           2324        4951.00     21595.19
  117.37        2963.00           2328        6103.00     26625.22
  117.40        2963.25           2331        7038.00     30709.03
  117.43        2963.50           2335        8315.00     36288.42
  117.46        2963.75           2339        9585.00     41839.34
  117.49        2964.00           2342       10354.00     45201.50
  117.52        2964.25           2346       11290.00     49294.84
  117.56        2964.50           2349       12223.00     53376.21
  117.59        2964.75           2353       13484.00     58894.19
  117.62        2965.00           2356       14290.00     62422.23
  117.65        2965.25           2360       15499.00     67715.88
  117.68        2965.50           2363       16270.00     71092.74
  117.71        2965.75           2367       17399.00     76038.97
  117.74        2966.00           2370       18633.00     81447.13
  117.77        2966.25           2374       19366.00     84660.52
  117.80        2966.50           2378       19780.00     86475.77
  117.83        2966.75           2381       20203.00     88330.71
  117.86        2967.00           2385       19951.00     87225.61
  117.89        2967.25           2388       20014.00     87501.88
  117.92        2967.50           2392       20269.00     88620.16
  117.95        2967.75           2395       20227.00     88435.97
  117.98        2968.00           2399       19898.00     86993.19
  118.01        2968.25           2402       19683.00     86050.44
  118.04        2968.50           2406       18435.00     80579.23
  118.08        2968.75           2409       17382.00     75964.48
  118.11        2969.00           2413       16493.00     72069.58
  118.14        2969.25           2417       15256.00     66651.75
  118.17        2969.50           2420       14146.00     61791.85
  118.20        2969.75           2424       12952.00     56565.97
  118.23        2970.00           2427       11980.00     52313.11
  118.26        2970.25           2431       10542.00     46023.58
  118.29        2970.50           2434        9624.00     42009.83
  118.32        2970.75           2438        8450.00     36878.38
  118.35        2971.00           2441        7501.00     32731.70
  118.38        2971.25           2445        6353.00     27717.04
  118.41        2971.50           2449        5300.00     23118.86
  118.44        2971.75           2452        4290.00     18709.81
  118.47        2972.00           2456        3023.00     13180.71
  118.50        2972.25           2459        2154.00      9389.66
  118.53        2972.50           2463        1161.00      5058.85
  118.56        2972.75           2466         602.00      2621.42
  118.60        2973.00           2470         204.00       886.25
  118.63        2973.25           2473         141.00       611.61
  118.66        2973.50           2477          97.00       419.80
  118.69        2973.75           2481          92.00       398.00
  118.72        2974.00           2484          92.00       398.00
  118.75        2974.25           2488          82.00       354.41
  118.78        2974.50           2491          82.00       354.41
  118.81        2974.75           2495          82.00       354.41
  118.84        2975.00           2498          83.00       358.77
  118.87        2975.25           2502          81.00       350.05
  118.90        2975.50           2505          77.00       332.61
  118.93        2975.75           2509          75.00       323.89
  118.96        2976.00           2512          78.00       336.97
  118.99        2976.25           2516          69.00       297.74
  119.02        2976.50           2520          68.00       293.38
  119.05        2976.75           2523          76.00       328.25
  119.08        2977.00           2527          74.00       319.53
  119.12        2977.25           2530          67.00       289.02
  119.15        2977.50           2534          72.00       310.81
  119.18        2977.75           2537          75.00       323.89
  119.21        2978.00           2541          64.00       275.94
  119.24        2978.25           2544          68.00       293.38
  119.27        2978.50           2548          77.00       332.61
  119.30        2978.75           2552          70.00       302.10
  119.33        2979.00           2555          65.00       280.30
  119.36        2979.25           2559          69.00       297.74
  119.39        2979.50           2562          63.00       271.58
  119.42        2979.75           2566          66.00       284.66
  119.45        2980.00           2569          61.00       262.86
  119.48        2980.25           2573          70.00       302.10
  119.51        2980.50           2577          67.00       289.02
  119.54        2980.75           2580          69.00       297.74
  119.57        2981.00           2584          67.00       289.02
  119.60        2981.25           2587          62.00       267.22
  119.63        2981.50           2591          59.00       254.14
  119.67        2981.75           2594          61.00       262.86
  119.70        2982.00           2598          61.00       262.86
  119.73        2982.25           2601          72.00       310.81
  119.76        2982.50           2605          64.00       275.94
  119.79        2982.75           2609          61.00       262.86
  119.82        2983.00           2612          55.00       236.71
  119.85        2983.25           2616          54.00       232.35
  119.88        2983.50           2619          66.00       284.66
  119.91        2983.75           2623          64.00       275.94
  119.94        2984.00           2626          57.00       245.42
HS scan finished at 02:00:10
end
************************************************************
  HS Scan of (1) Internal mercury lamp
************************************************************
Integration time is 0.2294 seconds per sample
dh080918Reading 51.44 .94 3.54pr1000
************************************************************
Dead Time -------------------------  3.4E-08 
Number of Cycles Used -------------  4 
Starting Wavelength (Angstroms) ---  2950 
Final Wavelength (Angstoms) -------  2984 
Wavelength Increment (Angstroms) --  .25 
Filter Wheel #1 Position ---------- (1) Ground quartz diffuser (ND=2.32)
Filter Wheel #2 Position ---------- (1) Neutral Density 0.494



************************************************************
HS scan start time = 19:37:28
Dark Count =  3 


Time (GMT)  Wavelength (Ang)  Step Number  Raw Counts  Counts/Second

 1178.36        2950.00           2144          57.00       235.40
 1178.55        2950.25           2147          58.00       239.76
 1178.58        2950.50           2151          50.00       204.88
 1178.61        2950.75           2155          52.00       213.60
 1178.65        2951.00           2158          53.00       217.96
 1178.68        2951.25           2162          57.00       235.40
 1178.71        2951.50           2165          58.00       239.76
 1178.74        2951.75           2169          55.00       226.68
 1178.77        2952.00           2172          58.00       239.76
 1178.80        2952.25           2176          57.00       235.40
 1178.83        2952.50           2179          50.00       204.88
 1178.86        2952.75           2183          58.00       239.76
 1178.89        2953.00           2186          60.00       248.48
 1178.92        2953.25           2190          54.00       222.32
 1178.95        2953.50           2193          61.00       252.84
 1178.98        2953.75           2197          58.00       239.76
 1179.01        2954.00           2200          61.00       252.84
 1179.04        2954.25           2204          53.00       217.96
 1179.07        2954.50           2208          60.00       248.48
 1179.10        2954.75           2211          60.00       248.48
 1179.13        2955.00           2215          57.00       235.40
 1179.17        2955.25           2218          65.00       270.27
 1179.20        2955.50           2222          63.00       261.55
 1179.23        2955.75           2225          72.00       300.79
 1179.26        2956.00           2229          60.00       248.48
 1179.29        2956.25           2232          60.00       248.48
 1179.32        2956.50           2236          68.00       283.35
 1179.35        2956.75           2239          67.00       278.99
 1179.38        2957.00           2243          55.00       226.68
 1179.41        2957.25           2246          65.00       270.27
 1179.44        2957.50           2250          58.00       239.76
 1179.47        2957.75           2254          67.00       278.99
 1179.50        2958.00           2257          60.00       248.48
 1179.53        2958.25           2261          74.00       309.51
 1179.56        2958.50           2264          65.00       270.27
 1179.59        2958.75           2268          73.00       305.15
 1179.62        2959.00           2271          72.00       300.79
 1179.65        2959.25           2275          75.00       313.87
 1179.69        2959.50           2278          71.00       296.43
 1179.72        2959.75           2282          74.00       309.51
 1179.75        2960.00           2285          78.00       326.94
 1179.78        2960.25           2289          74.00       309.51
 1179.81        2960.50           2293          81.00       340.02
 1179.84        2960.75           2296          83.00       348.74
 1179.87        2961.00           2300         112.00       475.16
 1179.90        2961.25           2303         280.00      1207.55
 1179.93        2961.50           2307         948.00      4120.02
 1179.96        2961.75           2310        1559.00      6784.48
 1179.99        2962.00           2314        2480.00     10801.70
 1180.02        2962.25           2317        3172.00     13820.79
 1180.05        2962.50           2321        4135.00     18023.25
 1180.08        2962.75           2324        5149.00     22449.56
 1180.11        2963.00           2328        6265.00     27322.67
 1180.14        2963.25           2331        7015.00     30598.52
 1180.17        2963.50           2335        8148.00     35548.61
 1180.21        2963.75           2339        9316.00     40653.36
 1180.24        2964.00           2342       10216.00     44588.04
 1180.27        2964.25           2346       11169.00     48755.56
 1180.30        2964.50           2349       11977.00     52289.92
 1180.33        2964.75           2353       12798.00     55882.01
 1180.36        2965.00           2356       13507.00     58984.78
 1180.39        2965.25           2360       14568.00     63629.23
 1180.42        2965.50           2363       15272.00     66711.75
 1180.45        2965.75           2367       16196.00     70758.53
 1180.48        2966.00           2370       16781.00     73321.18
 1180.51        2966.25           2374       17460.00     76296.19
 1180.54        2966.50           2378       17964.00     78504.81
 1180.57        2966.75           2381       18091.00     79061.41
 1180.60        2967.00           2385       17646.00     77111.24
 1180.63        2967.25           2388       17766.00     77637.10
 1180.66        2967.50           2392       17977.00     78561.80
 1180.69        2967.75           2395       18029.00     78789.69
 1180.73        2968.00           2399       17179.00     75064.93
 1180.76        2968.25           2402       17223.00     75257.71
 1180.79        2968.50           2406       16824.00     73509.56
 1180.82        2968.75           2409       15795.00     69002.15
 1180.85        2969.00           2413       14451.00     63116.99
 1180.88        2969.25           2417       13313.00     58135.72
 1180.91        2969.50           2420       12422.00     54236.80
 1180.94        2969.75           2424       11209.00     48930.51
 1180.97        2970.00           2427       10514.00     45891.08
 1181.00        2970.25           2431        9589.00     41846.77
 1181.03        2970.50           2434        8669.00     37825.42
 1181.06        2970.75           2438        7472.00     32594.95
 1181.09        2971.00           2441        6576.00     28680.96
 1181.12        2971.25           2445        5590.00     24375.03
 1181.15        2971.50           2449        4476.00     19511.63
 1181.18        2971.75           2452        3703.00     16137.89
 1181.21        2972.00           2456        2564.00     11168.15
 1181.25        2972.25           2459        1760.00      7661.11
 1181.28        2972.50           2463         797.00      3461.61
 1181.31        2972.75           2466         343.00      1482.20
 1181.34        2973.00           2470         126.00       536.19
 1181.37        2973.25           2473         110.00       466.44
 1181.40        2973.50           2477          85.00       357.46
 1181.43        2973.75           2481          80.00       335.66
 1181.46        2974.00           2484          78.00       326.94
 1181.49        2974.25           2488          78.00       326.94
 1181.52        2974.50           2491          73.00       305.15
 1181.55        2974.75           2495          78.00       326.94
 1181.58        2975.00           2498          76.00       318.22
 1181.61        2975.25           2502          67.00       278.99
 1181.64        2975.50           2505          62.00       257.19
 1181.67        2975.75           2509          65.00       270.27
 1181.70        2976.00           2512          74.00       309.51
 1181.73        2976.25           2516          64.00       265.91
 1181.76        2976.50           2520          67.00       278.99
 1181.80        2976.75           2523          73.00       305.15
 1181.83        2977.00           2527          58.00       239.76
 1181.86        2977.25           2530          70.00       292.07
 1181.89        2977.50           2534          73.00       305.15
 1181.92        2977.75           2537          69.00       287.71
 1181.95        2978.00           2541          59.00       244.12
 1181.98        2978.25           2544          71.00       296.43
 1182.01        2978.50           2548          72.00       300.79
 1182.04        2978.75           2552          65.00       270.27
 1182.07        2979.00           2555          62.00       257.19
 1182.10        2979.25           2559          71.00       296.43
 1182.13        2979.50           2562          60.00       248.48
 1182.16        2979.75           2566          60.00       248.48
 1182.19        2980.00           2569          53.00       217.96
 1182.22        2980.25           2573          63.00       261.55
 1182.25        2980.50           2577          62.00       257.19
 1182.28        2980.75           2580          60.00       248.48
 1182.32        2981.00           2584          62.00       257.19
 1182.35        2981.25           2587          60.00       248.48
 1182.38        2981.50           2591          64.00       265.91
 1182.41        2981.75           2594          62.00       257.19
 1182.44        2982.00           2598          59.00       244.12
 1182.47        2982.25           2601          62.00       257.19
 1182.50        2982.50           2605          58.00       239.76
 1182.53        2982.75           2609          54.00       222.32
 1182.56        2983.00           2612          67.00       278.99
 1182.59        2983.25           2616          63.00       261.55
 1182.62        2983.50           2619          54.00       222.32
 1182.65        2983.75           2623          53.00       217.96
 1182.68        2984.00           2626          62.00       257.19
HS scan finished at 19:42:54
end
