************************************************************
  HS Scan of (1) Internal mercury lamp
************************************************************
Integration time is 0.2294 seconds per sample
dh070917Reading 51.44 .94 3.31pr1000
************************************************************
Dead Time -------------------------  3.4E-08 
Number of Cycles Used -------------  4 
Starting Wavelength (Angstroms) ---  2950 
Final Wavelength (Angstoms) -------  2984 
Wavelength Increment (Angstroms) --  .25 
Filter Wheel #1 Position ---------- (1) Ground quartz diffuser (ND=2.32)
Filter Wheel #2 Position ---------- (1) Neutral Density 0.494



************************************************************
HS scan start time = 01:50:32
Dark Count =  1.6 


Time (GMT)  Wavelength (Ang)  Step Number  Raw Counts  Counts/Second

  111.44        2950.00           2144          98.00       420.23
  111.63        2950.25           2147          97.00       415.87
  111.66        2950.50           2151         116.00       498.70
  111.69        2950.75           2155          94.00       402.80
  111.72        2951.00           2158          93.00       398.44
  111.75        2951.25           2162          91.00       389.72
  111.78        2951.50           2165         117.00       503.06
  111.81        2951.75           2169          91.00       389.72
  111.84        2952.00           2172         106.00       455.11
  111.87        2952.25           2176          88.00       376.64
  111.91        2952.50           2179          98.00       420.23
  111.94        2952.75           2183          89.00       381.00
  111.97        2953.00           2186         116.00       498.70
  112.00        2953.25           2190          98.00       420.23
  112.03        2953.50           2193          94.00       402.80
  112.06        2953.75           2197         101.00       433.31
  112.09        2954.00           2200          99.00       424.59
  112.13        2954.25           2204          99.00       424.59
  112.16        2954.50           2208          99.00       424.59
  112.19        2954.75           2211         116.00       498.70
  112.22        2955.00           2215         127.00       546.65
  112.25        2955.25           2218         104.00       446.39
  112.28        2955.50           2222          96.00       411.51
  112.31        2955.75           2225          98.00       420.23
  112.34        2956.00           2229         110.00       472.54
  112.37        2956.25           2232         110.00       472.54
  112.40        2956.50           2236         100.00       428.95
  112.43        2956.75           2239         108.00       463.83
  112.46        2957.00           2243         146.00       629.48
  112.49        2957.25           2246         109.00       468.19
  112.52        2957.50           2250         129.00       555.37
  112.55        2957.75           2254         148.00       638.20
  112.58        2958.00           2257         120.00       516.14
  112.61        2958.25           2261         145.00       625.12
  112.65        2958.50           2264         133.00       572.81
  112.68        2958.75           2268         136.00       585.89
  112.71        2959.00           2271         122.00       524.86
  112.74        2959.25           2275         126.00       542.29
  112.77        2959.50           2278         130.00       559.73
  112.80        2959.75           2282         151.00       651.28
  112.83        2960.00           2285         134.00       577.17
  112.86        2960.25           2289         135.00       581.53
  112.89        2960.50           2293         143.00       616.40
  112.92        2960.75           2296         135.00       581.53
  112.95        2961.00           2300         154.00       664.36
  112.98        2961.25           2303         258.00      1117.74
  113.01        2961.50           2307         893.00      3886.30
  113.04        2961.75           2310        1895.00      8256.02
  113.07        2962.00           2314        3803.00     16580.40
  113.10        2962.25           2317        5181.00     22595.38
  113.13        2962.50           2321        7194.00     31386.57
  113.17        2962.75           2324        8657.00     37779.10
  113.20        2963.00           2328       10567.00     46128.97
  113.23        2963.25           2331       11991.00     52357.29
  113.26        2963.50           2335       14037.00     61310.77
  113.29        2963.75           2339       16053.00     70138.29
  113.32        2964.00           2342       17765.00     77638.86
  113.35        2964.25           2346       20065.00     87721.58
  113.38        2964.50           2349       22240.00     97262.69
  113.41        2964.75           2353       24370.00    106612.40
  113.44        2965.00           2356       25824.00    112998.30
  113.47        2965.25           2360       27755.00    121483.30
  113.50        2965.50           2363       29091.00    127356.70
  113.53        2965.75           2367       31176.00    136527.70
  113.56        2966.00           2370       32872.00    143991.80
  113.59        2966.25           2374       34441.00    150900.40
  113.62        2966.50           2378       35965.00    157614.00
  113.65        2966.75           2381       36331.00    159226.70
  113.69        2967.00           2385       36185.00    158583.40
  113.72        2967.25           2388       36245.00    158847.80
  113.75        2967.50           2392       35942.00    157512.60
  113.78        2967.75           2395       35848.00    157098.40
  113.81        2968.00           2399       35192.00    154208.40
  113.84        2968.25           2402       33849.00    148293.30
  113.87        2968.50           2406       32140.00    140769.80
  113.90        2968.75           2409       30434.00    133263.30
  113.93        2969.00           2413       28457.00    124569.20
  113.96        2969.25           2417       26521.00    116060.40
  113.99        2969.50           2420       24752.00    108289.90
  114.02        2969.75           2424       22694.00     99255.06
  114.05        2970.00           2427       21166.00     92550.59
  114.08        2970.25           2431       18631.00     81434.40
  114.11        2970.50           2434       17082.00     74646.06
  114.14        2970.75           2438       14946.00     65290.38
  114.17        2971.00           2441       13446.00     58723.94
  114.21        2971.25           2445       11352.00     49562.10
  114.24        2971.50           2449        9208.00     40187.40
  114.27        2971.75           2452        7785.00     33968.60
  114.30        2972.00           2456        5802.00     25306.86
  114.33        2972.25           2459        4378.00     19089.98
  114.36        2972.50           2463        2406.00     10484.99
  114.39        2972.75           2466        1209.00      5264.24
  114.42        2973.00           2470         334.00      1449.07
  114.45        2973.25           2473         183.00       790.78
  114.48        2973.50           2477         156.00       673.08
  114.51        2973.75           2481         151.00       651.28
  114.54        2974.00           2484         141.00       607.68
  114.57        2974.25           2488         126.00       542.29
  114.60        2974.50           2491         136.00       585.89
  114.63        2974.75           2495         139.00       598.97
  114.66        2975.00           2498         136.00       585.89
  114.69        2975.25           2502         145.00       625.12
  114.73        2975.50           2505         127.00       546.65
  114.76        2975.75           2509         137.00       590.25
  114.79        2976.00           2512         127.00       546.65
  114.82        2976.25           2516         137.00       590.25
  114.85        2976.50           2520         117.00       503.06
  114.88        2976.75           2523         117.00       503.06
  114.91        2977.00           2527         119.00       511.78
  114.94        2977.25           2530         152.00       655.64
  114.97        2977.50           2534         127.00       546.65
  115.00        2977.75           2537         117.00       503.06
  115.03        2978.00           2541         104.00       446.39
  115.06        2978.25           2544         116.00       498.70
  115.09        2978.50           2548         112.00       481.26
  115.12        2978.75           2552         129.00       555.37
  115.15        2979.00           2555         106.00       455.11
  115.18        2979.25           2559         105.00       450.75
  115.21        2979.50           2562          96.00       411.51
  115.25        2979.75           2566         102.00       437.67
  115.28        2980.00           2569         137.00       590.25
  115.31        2980.25           2573         140.00       603.33
  115.34        2980.50           2577         118.00       507.42
  115.37        2980.75           2580         102.00       437.67
  115.40        2981.00           2584          93.00       398.44
  115.43        2981.25           2587         103.00       442.03
  115.46        2981.50           2591         109.00       468.19
  115.49        2981.75           2594         105.00       450.75
  115.52        2982.00           2598         117.00       503.06
  115.55        2982.25           2601          89.00       381.00
  115.58        2982.50           2605          95.00       407.15
  115.61        2982.75           2609          95.00       407.15
  115.64        2983.00           2612          91.00       389.72
  115.67        2983.25           2616          92.00       394.08
  115.70        2983.50           2619          92.00       394.08
  115.73        2983.75           2623          86.00       367.92
  115.77        2984.00           2626          96.00       411.51
HS scan finished at 01:55:59
end
************************************************************
  HS Scan of (1) Internal mercury lamp
************************************************************
Integration time is 0.2294 seconds per sample
dh070917Reading 51.44 .94 3.56pr1000
************************************************************
Dead Time -------------------------  3.4E-08 
Number of Cycles Used -------------  4 
Starting Wavelength (Angstroms) ---  2950 
Final Wavelength (Angstoms) -------  2984 
Wavelength Increment (Angstroms) --  .25 
Filter Wheel #1 Position ---------- (1) Ground quartz diffuser (ND=2.32)
Filter Wheel #2 Position ---------- (1) Neutral Density 0.494



************************************************************
HS scan start time = 19:37:24
Dark Count =  3 


Time (GMT)  Wavelength (Ang)  Step Number  Raw Counts  Counts/Second

 1178.30        2950.00           2144          91.00       383.61
 1178.50        2950.25           2147         115.00       488.24
 1178.53        2950.50           2151          92.00       387.97
 1178.56        2950.75           2155          97.00       409.77
 1178.59        2951.00           2158         110.00       466.44
 1178.62        2951.25           2162          97.00       409.77
 1178.65        2951.50           2165         101.00       427.21
 1178.68        2951.75           2169         100.00       422.85
 1178.71        2952.00           2172         110.00       466.44
 1178.74        2952.25           2176          92.00       387.97
 1178.77        2952.50           2179          99.00       418.49
 1178.80        2952.75           2183          98.00       414.13
 1178.83        2953.00           2186         116.00       492.60
 1178.86        2953.25           2190         101.00       427.21
 1178.89        2953.50           2193         120.00       510.03
 1178.93        2953.75           2197         106.00       449.00
 1178.96        2954.00           2200          95.00       401.05
 1178.99        2954.25           2204          98.00       414.13
 1179.02        2954.50           2208         118.00       501.32
 1179.05        2954.75           2211          99.00       418.49
 1179.08        2955.00           2215         100.00       422.85
 1179.11        2955.25           2218         101.00       427.21
 1179.15        2955.50           2222         111.00       470.80
 1179.18        2955.75           2225         127.00       540.55
 1179.21        2956.00           2229         117.00       496.96
 1179.24        2956.25           2232         102.00       431.57
 1179.27        2956.50           2236         104.00       440.29
 1179.30        2956.75           2239         109.00       462.08
 1179.33        2957.00           2243         111.00       470.80
 1179.36        2957.25           2246         140.00       597.22
 1179.39        2957.50           2250         110.00       466.44
 1179.42        2957.75           2254         151.00       645.18
 1179.45        2958.00           2257         127.00       540.55
 1179.48        2958.25           2261         113.00       479.52
 1179.51        2958.50           2264         140.00       597.22
 1179.54        2958.75           2268         142.00       605.94
 1179.57        2959.00           2271         170.00       728.00
 1179.60        2959.25           2275         125.00       531.83
 1179.63        2959.50           2278         134.00       571.07
 1179.67        2959.75           2282         143.00       610.30
 1179.70        2960.00           2285         149.00       636.46
 1179.73        2960.25           2289         136.00       579.78
 1179.76        2960.50           2293         155.00       662.61
 1179.79        2960.75           2296         157.00       671.33
 1179.82        2961.00           2300         182.00       780.32
 1179.85        2961.25           2303         383.00      1656.59
 1179.88        2961.50           2307        1411.00      6139.03
 1179.91        2961.75           2310        2638.00     11490.98
 1179.94        2962.00           2314        4485.00     19550.92
 1179.97        2962.25           2317        5939.00     25899.00
 1180.00        2962.50           2321        7995.00     34880.05
 1180.03        2962.75           2324        9504.00     41475.19
 1180.06        2963.00           2328       11654.00     50876.95
 1180.09        2963.25           2331       13216.00     57711.21
 1180.12        2963.50           2335       15384.00     67202.21
 1180.15        2963.75           2339       17572.00     76786.96
 1180.19        2964.00           2342       19166.00     83773.58
 1180.22        2964.25           2346       21396.00     93553.42
 1180.25        2964.50           2349       22814.00     99775.57
 1180.28        2964.75           2353       25152.00    110040.40
 1180.31        2965.00           2356       27171.00    118910.50
 1180.34        2965.25           2360       28981.00    126866.90
 1180.37        2965.50           2363       30344.00    132861.20
 1180.40        2965.75           2367       32165.00    140873.70
 1180.43        2966.00           2370       33820.00    148159.50
 1180.46        2966.25           2374       35473.00    155440.10
 1180.49        2966.50           2378       36471.00    159837.50
 1180.52        2966.75           2381       36745.00    161045.10
 1180.55        2967.00           2385       36447.00    159731.70
 1180.58        2967.25           2388       36452.00    159753.80
 1180.61        2967.50           2392       36477.00    159863.90
 1180.64        2967.75           2395       36058.00    158017.60
 1180.67        2968.00           2399       34461.00    150982.30
 1180.71        2968.25           2402       33501.00    146754.90
 1180.74        2968.50           2406       31638.00    138554.40
 1180.77        2968.75           2409       30103.00    131801.20
 1180.80        2969.00           2413       28034.00    122703.50
 1180.83        2969.25           2417       25919.00    113409.40
 1180.86        2969.50           2420       24755.00    108296.90
 1180.89        2969.75           2424       22696.00     99257.68
 1180.92        2970.00           2427       21011.00     91864.52
 1180.95        2970.25           2431       18688.00     81678.13
 1180.98        2970.50           2434       16964.00     74122.93
 1181.01        2970.75           2438       14846.00     64846.39
 1181.04        2971.00           2441       13605.00     59413.71
 1181.07        2971.25           2445       11358.00     49582.21
 1181.10        2971.50           2449        9197.00     40133.19
 1181.13        2971.75           2452        7494.00     32691.07
 1181.16        2972.00           2456        5622.00     24514.76
 1181.19        2972.25           2459        4359.00     19000.94
 1181.23        2972.50           2463        2421.00     10544.32
 1181.26        2972.75           2466        1238.00      5384.60
 1181.29        2973.00           2470         324.00      1399.37
 1181.32        2973.25           2473         198.00       850.07
 1181.35        2973.50           2477         149.00       636.46
 1181.38        2973.75           2481         148.00       632.10
 1181.41        2974.00           2484         159.00       680.05
 1181.44        2974.25           2488         150.00       640.82
 1181.47        2974.50           2491         166.00       710.57
 1181.50        2974.75           2495         148.00       632.10
 1181.53        2975.00           2498         135.00       575.43
 1181.56        2975.25           2502         125.00       531.83
 1181.59        2975.50           2505         161.00       688.77
 1181.62        2975.75           2509         141.00       601.58
 1181.65        2976.00           2512         120.00       510.03
 1181.68        2976.25           2516         154.00       658.25
 1181.72        2976.50           2520         118.00       501.32
 1181.75        2976.75           2523         133.00       566.71
 1181.78        2977.00           2527         117.00       496.96
 1181.81        2977.25           2530         138.00       588.50
 1181.85        2977.50           2534         109.00       462.08
 1181.88        2977.75           2537         112.00       475.16
 1181.91        2978.00           2541         103.00       435.93
 1181.94        2978.25           2544         112.00       475.16
 1181.98        2978.50           2548         143.00       610.30
 1182.01        2978.75           2552         116.00       492.60
 1182.04        2979.00           2555         141.00       601.58
 1182.07        2979.25           2559         119.00       505.68
 1182.10        2979.50           2562         114.00       483.88
 1182.13        2979.75           2566          99.00       418.49
 1182.16        2980.00           2569          99.00       418.49
 1182.19        2980.25           2573         102.00       431.57
 1182.22        2980.50           2577          98.00       414.13
 1182.25        2980.75           2580         113.00       479.52
 1182.28        2981.00           2584         130.00       553.63
 1182.31        2981.25           2587         101.00       427.21
 1182.34        2981.50           2591          96.00       405.41
 1182.37        2981.75           2594          95.00       401.05
 1182.40        2982.00           2598          92.00       387.97
 1182.43        2982.25           2601          94.00       396.69
 1182.46        2982.50           2605          95.00       401.05
 1182.49        2982.75           2609          95.00       401.05
 1182.53        2983.00           2612         133.00       566.71
 1182.56        2983.25           2616         100.00       422.85
 1182.59        2983.50           2619          86.00       361.82
 1182.62        2983.75           2623          90.00       379.26
 1182.65        2984.00           2626          89.00       374.90
HS scan finished at 19:42:52
end
