************************************************************
  HS Scan of (1) Internal mercury lamp
************************************************************
Integration time is 0.2294 seconds per sample
dh150917Reading 51.44 .94 2.88pr1000
************************************************************
Dead Time -------------------------  3.4E-08 
Number of Cycles Used -------------  4 
Starting Wavelength (Angstroms) ---  2950 
Final Wavelength (Angstoms) -------  2984 
Wavelength Increment (Angstroms) --  .25 
Filter Wheel #1 Position ---------- (1) Ground quartz diffuser (ND=2.32)
Filter Wheel #2 Position ---------- (1) Neutral Density 0.494



************************************************************
HS scan start time = 02:26:18
Dark Count =  .5 


Time (GMT)  Wavelength (Ang)  Step Number  Raw Counts  Counts/Second

  147.20        2950.00           2144         134.00       581.96
  147.39        2950.25           2147         120.00       520.93
  147.42        2950.50           2151         128.00       555.81
  147.45        2950.75           2155         119.00       516.57
  147.48        2951.00           2158         124.00       538.37
  147.52        2951.25           2162         131.00       568.89
  147.55        2951.50           2165         130.00       564.53
  147.58        2951.75           2169         119.00       516.57
  147.61        2952.00           2172         101.00       438.11
  147.64        2952.25           2176         148.00       643.00
  147.67        2952.50           2179         114.00       494.78
  147.70        2952.75           2183         146.00       634.28
  147.73        2953.00           2186         113.00       490.42
  147.76        2953.25           2190         147.00       638.64
  147.79        2953.50           2193         133.00       577.61
  147.82        2953.75           2197         114.00       494.78
  147.85        2954.00           2200         132.00       573.25
  147.88        2954.25           2204         164.00       712.75
  147.91        2954.50           2208         132.00       573.25
  147.94        2954.75           2211         118.00       512.21
  147.97        2955.00           2215         112.00       486.06
  148.00        2955.25           2218         159.00       690.95
  148.04        2955.50           2222         116.00       503.50
  148.07        2955.75           2225         125.00       542.73
  148.10        2956.00           2229         135.00       586.32
  148.13        2956.25           2232         114.00       494.78
  148.16        2956.50           2236         126.00       547.09
  148.19        2956.75           2239         134.00       581.96
  148.22        2957.00           2243         124.00       538.37
  148.25        2957.25           2246         145.00       629.92
  148.28        2957.50           2250         149.00       647.36
  148.31        2957.75           2254         138.00       599.40
  148.34        2958.00           2257         159.00       690.95
  148.37        2958.25           2261         132.00       573.25
  148.40        2958.50           2264         147.00       638.64
  148.43        2958.75           2268         139.00       603.76
  148.46        2959.00           2271         139.00       603.76
  148.49        2959.25           2275         142.00       616.84
  148.52        2959.50           2278         159.00       690.95
  148.56        2959.75           2282         153.00       664.79
  148.59        2960.00           2285         144.00       625.56
  148.62        2960.25           2289         156.00       677.87
  148.65        2960.50           2293         152.00       660.43
  148.68        2960.75           2296         157.00       682.23
  148.71        2961.00           2300         182.00       791.22
  148.74        2961.25           2303         326.00      1418.99
  148.77        2961.50           2307        1051.00      4580.05
  148.80        2961.75           2310        2152.00      9381.81
  148.83        2962.00           2314        3976.00     17340.21
  148.86        2962.25           2317        5511.00     24041.01
  148.89        2962.50           2321        7554.00     32964.13
  148.92        2962.75           2324        9235.00     40310.23
  148.95        2963.00           2328       11229.00     49028.92
  148.98        2963.25           2331       13044.00     56969.44
  149.01        2963.50           2335       15513.00     67778.07
  149.04        2963.75           2339       17258.00     75422.03
  149.08        2964.00           2342       18904.00     82635.96
  149.11        2964.25           2346       21301.00     93147.62
  149.14        2964.50           2349       21346.00     93345.03
  149.17        2964.75           2353       25685.00    112392.50
  149.20        2965.00           2356       27362.00    119760.90
  149.23        2965.25           2360       29622.00    129696.70
  149.26        2965.50           2363       31427.00    137636.90
  149.29        2965.75           2367       33559.00    147021.20
  149.32        2966.00           2370       34751.00    152270.60
  149.35        2966.25           2374       37041.00    162360.70
  149.38        2966.50           2378       37743.00    165455.20
  149.41        2966.75           2381       38396.00    168334.30
  149.44        2967.00           2385       38383.00    168277.00
  149.47        2967.25           2388       37843.00    165896.10
  149.50        2967.50           2392       37679.00    165173.00
  149.53        2967.75           2395       37467.00    164238.50
  149.56        2968.00           2399       36447.00    159742.80
  149.60        2968.25           2402       34813.00    152543.70
  149.63        2968.50           2406       29176.00    127735.30
  149.66        2968.75           2409       30796.00    134860.60
  149.69        2969.00           2413       28632.00    125343.40
  149.72        2969.25           2417       26837.00    117453.70
  149.75        2969.50           2420       25401.00    111145.00
  149.78        2969.75           2424       23117.00    101116.40
  149.81        2970.00           2427       21152.00     92494.00
  149.84        2970.25           2431       18817.00     82254.57
  149.87        2970.50           2434       17339.00     75776.93
  149.90        2970.75           2438       14775.00     64546.48
  149.93        2971.00           2441       13108.00     57249.51
  149.96        2971.25           2445       11140.00     48639.66
  149.99        2971.50           2449        9132.00     39860.00
  150.02        2971.75           2452        7494.00     32701.99
  150.05        2972.00           2456        5232.00     22822.85
  150.08        2972.25           2459        3722.00     16231.71
  150.12        2972.50           2463        1903.00      8295.71
  150.15        2972.75           2466         925.00      4030.63
  150.18        2973.00           2470         306.00      1331.80
  150.21        2973.25           2473         191.00       830.45
  150.24        2973.50           2477         161.00       699.67
  150.27        2973.75           2481         166.00       721.46
  150.30        2974.00           2484         150.00       651.71
  150.33        2974.25           2488         149.00       647.36
  150.36        2974.50           2491         154.00       669.15
  150.39        2974.75           2495         146.00       634.28
  150.42        2975.00           2498         148.00       643.00
  150.45        2975.25           2502         152.00       660.43
  150.48        2975.50           2505         150.00       651.71
  150.51        2975.75           2509         148.00       643.00
  150.54        2976.00           2512         163.00       708.39
  150.57        2976.25           2516         135.00       586.32
  150.60        2976.50           2520         180.00       782.50
  150.63        2976.75           2523         131.00       568.89
  150.67        2977.00           2527         154.00       669.15
  150.70        2977.25           2530         147.00       638.64
  150.73        2977.50           2534         150.00       651.71
  150.76        2977.75           2537         138.00       599.40
  150.79        2978.00           2541         161.00       699.67
  150.82        2978.25           2544         126.00       547.09
  150.85        2978.50           2548         139.00       603.76
  150.88        2978.75           2552         142.00       616.84
  150.91        2979.00           2555         156.00       677.87
  150.94        2979.25           2559         133.00       577.61
  150.97        2979.50           2562         124.00       538.37
  151.00        2979.75           2566         126.00       547.09
  151.03        2980.00           2569         137.00       595.04
  151.06        2980.25           2573         135.00       586.32
  151.09        2980.50           2577         119.00       516.57
  151.12        2980.75           2580         121.00       525.29
  151.15        2981.00           2584         121.00       525.29
  151.19        2981.25           2587         134.00       581.96
  151.22        2981.50           2591         101.00       438.11
  151.25        2981.75           2594         127.00       551.45
  151.28        2982.00           2598         127.00       551.45
  151.31        2982.25           2601         100.00       433.75
  151.34        2982.50           2605         120.00       520.93
  151.37        2982.75           2609         107.00       464.26
  151.40        2983.00           2612         120.00       520.93
  151.43        2983.25           2616          98.00       425.03
  151.46        2983.50           2619         103.00       446.82
  151.49        2983.75           2623         102.00       442.47
  151.52        2984.00           2626         118.00       512.21
HS scan finished at 02:31:45
end
************************************************************
  HS Scan of (1) Internal mercury lamp
************************************************************
Integration time is 0.2294 seconds per sample
dh150917Reading 51.44 .94 3.31pr1000
************************************************************
Dead Time -------------------------  3.4E-08 
Number of Cycles Used -------------  4 
Starting Wavelength (Angstroms) ---  2950 
Final Wavelength (Angstoms) -------  2984 
Wavelength Increment (Angstroms) --  .25 
Filter Wheel #1 Position ---------- (1) Ground quartz diffuser (ND=2.32)
Filter Wheel #2 Position ---------- (1) Neutral Density 0.494



************************************************************
HS scan start time = 19:07:27
Dark Count =  2 


Time (GMT)  Wavelength (Ang)  Step Number  Raw Counts  Counts/Second

 1148.34        2950.00           2144         152.00       653.89
 1148.54        2950.25           2147         148.00       636.46
 1148.57        2950.50           2151         152.00       653.89
 1148.60        2950.75           2155         145.00       623.38
 1148.63        2951.00           2158         153.00       658.25
 1148.66        2951.25           2162         147.00       632.10
 1148.69        2951.50           2165         164.00       706.21
 1148.72        2951.75           2169         160.00       688.77
 1148.75        2952.00           2172         162.00       697.49
 1148.78        2952.25           2176         160.00       688.77
 1148.81        2952.50           2179         153.00       658.25
 1148.84        2952.75           2183         166.00       714.93
 1148.87        2953.00           2186         153.00       658.25
 1148.91        2953.25           2190         161.00       693.13
 1148.94        2953.50           2193         158.00       680.05
 1148.97        2953.75           2197         163.00       701.85
 1149.00        2954.00           2200         150.00       645.18
 1149.03        2954.25           2204         163.00       701.85
 1149.06        2954.50           2208         153.00       658.25
 1149.09        2954.75           2211         171.00       736.72
 1149.12        2955.00           2215         157.00       675.69
 1149.15        2955.25           2218         163.00       701.85
 1149.18        2955.50           2222         162.00       697.49
 1149.21        2955.75           2225         169.00       728.00
 1149.24        2956.00           2229         158.00       680.05
 1149.27        2956.25           2232         174.00       749.80
 1149.30        2956.50           2236         192.00       828.27
 1149.33        2956.75           2239         174.00       749.80
 1149.36        2957.00           2243         176.00       758.52
 1149.39        2957.25           2246         168.00       723.64
 1149.43        2957.50           2250         185.00       797.75
 1149.46        2957.75           2254         169.00       728.00
 1149.49        2958.00           2257         185.00       797.75
 1149.52        2958.25           2261         183.00       789.04
 1149.55        2958.50           2264         198.00       854.43
 1149.58        2958.75           2268         198.00       854.43
 1149.61        2959.00           2271         187.00       806.47
 1149.64        2959.25           2275         194.00       836.99
 1149.67        2959.50           2278         197.00       850.07
 1149.70        2959.75           2282         211.00       911.10
 1149.73        2960.00           2285         204.00       880.58
 1149.76        2960.25           2289         203.00       876.22
 1149.79        2960.50           2293         214.00       924.18
 1149.82        2960.75           2296         221.00       954.70
 1149.85        2961.00           2300         281.00      1216.27
 1149.88        2961.25           2303         566.00      2458.79
 1149.91        2961.50           2307        2012.00      8764.60
 1149.95        2961.75           2310        3771.00     16439.00
 1149.98        2962.00           2314        6718.00     29305.56
 1150.01        2962.25           2317        9382.00     40946.24
 1150.04        2962.50           2321       12890.00     56288.97
 1150.07        2962.75           2324       15516.00     67784.65
 1150.10        2963.00           2328       18864.00     82454.03
 1150.13        2963.25           2331       21346.00     93338.46
 1150.16        2963.50           2335       25148.00    110027.20
 1150.19        2963.75           2339       28503.00    124769.70
 1150.22        2964.00           2342       31026.00    135865.90
 1150.25        2964.25           2346       34258.00    150092.70
 1150.28        2964.50           2349       36890.00    161688.50
 1150.31        2964.75           2353       40528.00    177731.60
 1150.34        2965.00           2356       43147.00    189292.00
 1150.37        2965.25           2360       45879.00    201360.80
 1150.40        2965.50           2363       48387.00    212448.80
 1150.43        2965.75           2367       51757.00    227361.10
 1150.47        2966.00           2370       54251.00    238406.80
 1150.50        2966.25           2374       57389.00    252316.60
 1150.53        2966.50           2378       58865.00    258863.80
 1150.56        2966.75           2381       59313.00    260851.70
 1150.59        2967.00           2385       59301.00    260798.40
 1150.62        2967.25           2388       59529.00    261810.20
 1150.65        2967.50           2392       59325.00    260904.90
 1150.68        2967.75           2395       58880.00    258930.40
 1150.71        2968.00           2399       57496.00    252791.20
 1150.74        2968.25           2402       55475.00    243830.90
 1150.77        2968.50           2406       52417.00    230283.40
 1150.81        2968.75           2409       50277.00    220810.20
 1150.84        2969.00           2413       46889.00    205825.10
 1150.87        2969.25           2417       44001.00    193063.50
 1150.90        2969.50           2420       41348.00    181350.20
 1150.93        2969.75           2424       37641.00    164998.90
 1150.96        2970.00           2427       34842.00    152664.80
 1150.99        2970.25           2431       31357.00    137322.30
 1151.02        2970.50           2434       28918.00    126594.30
 1151.05        2970.75           2438       25334.00    110844.20
 1151.08        2971.00           2441       22521.00     98494.07
 1151.11        2971.25           2445       18798.00     82164.70
 1151.14        2971.50           2449       15463.00     67552.54
 1151.17        2971.75           2452       12780.00     55807.63
 1151.20        2972.00           2456        9665.00     42183.39
 1151.23        2972.25           2459        7099.00     30969.82
 1151.26        2972.50           2463        3778.00     16469.55
 1151.30        2972.75           2466        1848.00      8049.28
 1151.33        2973.00           2470         528.00      2293.12
 1151.36        2973.25           2473         303.00      1312.18
 1151.39        2973.50           2477         252.00      1089.84
 1151.42        2973.75           2481         250.00      1081.12
 1151.45        2974.00           2484         220.00       950.34
 1151.48        2974.25           2488         218.00       941.62
 1151.51        2974.50           2491         227.00       980.85
 1151.54        2974.75           2495         191.00       823.91
 1151.57        2975.00           2498         203.00       876.22
 1151.60        2975.25           2502         216.00       932.90
 1151.63        2975.50           2505         198.00       854.43
 1151.66        2975.75           2509         193.00       832.63
 1151.69        2976.00           2512         193.00       832.63
 1151.72        2976.25           2516         188.00       810.83
 1151.75        2976.50           2520         181.00       780.32
 1151.78        2976.75           2523         180.00       775.96
 1151.82        2977.00           2527         183.00       789.04
 1151.85        2977.25           2530         183.00       789.04
 1151.88        2977.50           2534         170.00       732.36
 1151.91        2977.75           2537         174.00       749.80
 1151.94        2978.00           2541         179.00       771.60
 1151.97        2978.25           2544         188.00       810.83
 1152.00        2978.50           2548         171.00       736.72
 1152.03        2978.75           2552         169.00       728.00
 1152.06        2979.00           2555         179.00       771.60
 1152.09        2979.25           2559         169.00       728.00
 1152.12        2979.50           2562         176.00       758.52
 1152.15        2979.75           2566         164.00       706.21
 1152.18        2980.00           2569         162.00       697.49
 1152.21        2980.25           2573         150.00       645.18
 1152.24        2980.50           2577         153.00       658.25
 1152.27        2980.75           2580         157.00       675.69
 1152.30        2981.00           2584         165.00       710.57
 1152.34        2981.25           2587         153.00       658.25
 1152.37        2981.50           2591         158.00       680.05
 1152.40        2981.75           2594         146.00       627.74
 1152.43        2982.00           2598         150.00       645.18
 1152.46        2982.25           2601         150.00       645.18
 1152.49        2982.50           2605         168.00       723.64
 1152.52        2982.75           2609         171.00       736.72
 1152.55        2983.00           2612         139.00       597.22
 1152.58        2983.25           2616         158.00       680.05
 1152.61        2983.50           2619         138.00       592.86
 1152.64        2983.75           2623         148.00       636.46
 1152.67        2984.00           2626         139.00       597.22
HS scan finished at 19:12:54
end
