************************************************************
  HS Scan of (1) Internal mercury lamp
************************************************************
Integration time is 0.2294 seconds per sample
dh140917Reading 51.44 .94 2.98pr1000
************************************************************
Dead Time -------------------------  3.4E-08 
Number of Cycles Used -------------  4 
Starting Wavelength (Angstroms) ---  2950 
Final Wavelength (Angstoms) -------  2984 
Wavelength Increment (Angstroms) --  .25 
Filter Wheel #1 Position ---------- (1) Ground quartz diffuser (ND=2.32)
Filter Wheel #2 Position ---------- (1) Neutral Density 0.494



************************************************************
HS scan start time = 02:22:31
Dark Count =  .9 


Time (GMT)  Wavelength (Ang)  Step Number  Raw Counts  Counts/Second

  143.41        2950.00           2144         175.00       758.96
  143.60        2950.25           2147         191.00       828.71
  143.63        2950.50           2151         182.00       789.47
  143.66        2950.75           2155         185.00       802.55
  143.69        2951.00           2158         187.00       811.27
  143.72        2951.25           2162         184.00       798.19
  143.75        2951.50           2165         186.00       806.91
  143.79        2951.75           2169         181.00       785.11
  143.82        2952.00           2172         182.00       789.47
  143.85        2952.25           2176         190.00       824.35
  143.88        2952.50           2179         195.00       846.14
  143.91        2952.75           2183         186.00       806.91
  143.94        2953.00           2186         202.00       876.66
  143.97        2953.25           2190         198.00       859.22
  144.00        2953.50           2193         182.00       789.47
  144.03        2953.75           2197         202.00       876.66
  144.06        2954.00           2200         203.00       881.02
  144.09        2954.25           2204         199.00       863.58
  144.12        2954.50           2208         215.00       933.33
  144.15        2954.75           2211         199.00       863.58
  144.18        2955.00           2215         204.00       885.38
  144.21        2955.25           2218         217.00       942.05
  144.24        2955.50           2222         210.00       911.54
  144.27        2955.75           2225         209.00       907.18
  144.31        2956.00           2229         214.00       928.97
  144.34        2956.25           2232         206.00       894.10
  144.37        2956.50           2236         230.00       998.73
  144.40        2956.75           2239         218.00       946.41
  144.43        2957.00           2243         209.00       907.18
  144.46        2957.25           2246         218.00       946.41
  144.49        2957.50           2250         259.00      1125.15
  144.52        2957.75           2254         226.00       981.29
  144.55        2958.00           2257         221.00       959.49
  144.58        2958.25           2261         226.00       981.29
  144.61        2958.50           2264         270.00      1173.11
  144.64        2958.75           2268         245.00      1064.12
  144.67        2959.00           2271         257.00      1116.43
  144.70        2959.25           2275         233.00      1011.80
  144.73        2959.50           2278         251.00      1090.28
  144.76        2959.75           2282         272.00      1181.83
  144.79        2960.00           2285         266.00      1155.67
  144.83        2960.25           2289         305.00      1325.69
  144.86        2960.50           2293         287.00      1247.22
  144.89        2960.75           2296         277.00      1203.62
  144.92        2961.00           2300         305.00      1325.69
  144.95        2961.25           2303         413.00      1796.54
  144.98        2961.50           2307        1416.00      6170.00
  145.01        2961.75           2310        3330.00     14519.37
  145.04        2962.00           2314        6808.00     29703.48
  145.07        2962.25           2317        9628.00     42026.44
  145.10        2962.50           2321       13327.00     58206.19
  145.13        2962.75           2324       16163.00     70623.16
  145.16        2963.00           2328       19987.00     87382.60
  145.19        2963.25           2331       22804.00     99740.90
  145.22        2963.50           2335       26443.00    115720.80
  145.25        2963.75           2339       30184.00    132166.70
  145.28        2964.00           2342       33517.00    146834.60
  145.31        2964.25           2346       38496.00    168773.50
  145.35        2964.50           2349       41488.00    181972.90
  145.38        2964.75           2353       45826.00    201131.40
  145.41        2965.00           2356       48466.00    212803.10
  145.44        2965.25           2360       52147.00    229092.70
  145.47        2965.50           2363       54894.00    241260.90
  145.50        2965.75           2367       59079.00    259818.20
  145.53        2966.00           2370       61662.00    271283.60
  145.56        2966.25           2374       65545.00    288536.50
  145.59        2966.50           2378       68166.00    300193.50
  145.62        2966.75           2381       68680.00    302480.70
  145.65        2967.00           2385       68947.00    303668.90
  145.68        2967.25           2388       69128.00    304474.40
  145.71        2967.50           2392       69122.00    304447.70
  145.74        2967.75           2395       68783.00    302939.10
  145.77        2968.00           2399       67155.00    295696.00
  145.80        2968.25           2402       64761.00    285051.40
  145.83        2968.50           2406       61674.00    271337.00
  145.87        2968.75           2409       58968.00    259325.70
  145.90        2969.00           2413       55224.00    242723.30
  145.93        2969.25           2417       51127.00    224577.10
  145.96        2969.50           2420       47932.00    210441.50
  145.99        2969.75           2424       43939.00    192794.50
  146.02        2970.00           2427       40837.00    179099.90
  146.05        2970.25           2431       36292.00    159058.00
  146.08        2970.50           2434       33500.00    146759.70
  146.11        2970.75           2438       29161.00    127667.60
  146.14        2971.00           2441       26116.00    114284.10
  146.17        2971.25           2445       22061.00     96480.31
  146.20        2971.50           2449       17976.00     78566.61
  146.23        2971.75           2452       15173.00     66287.41
  146.26        2972.00           2456       11407.00     49805.71
  146.29        2972.25           2459        8751.00     38192.98
  146.32        2972.50           2463        4994.00     21782.04
  146.35        2972.75           2466        2517.00     10972.27
  146.38        2973.00           2470         760.00      3309.44
  146.42        2973.25           2473         387.00      1683.18
  146.45        2973.50           2477         305.00      1325.69
  146.48        2973.75           2481         276.00      1199.26
  146.51        2974.00           2484         268.00      1164.39
  146.54        2974.25           2488         281.00      1221.06
  146.57        2974.50           2491         270.00      1173.11
  146.60        2974.75           2495         262.00      1138.23
  146.63        2975.00           2498         256.00      1112.07
  146.66        2975.25           2502         291.00      1264.66
  146.69        2975.50           2505         236.00      1024.88
  146.72        2975.75           2509         261.00      1133.87
  146.75        2976.00           2512         228.00       990.01
  146.78        2976.25           2516         249.00      1081.56
  146.81        2976.50           2520         235.00      1020.52
  146.84        2976.75           2523         224.00       972.57
  146.87        2977.00           2527         214.00       928.97
  146.91        2977.25           2530         220.00       955.13
  146.94        2977.50           2534         219.00       950.77
  146.97        2977.75           2537         208.00       902.82
  147.00        2978.00           2541         205.00       889.74
  147.03        2978.25           2544         216.00       937.69
  147.06        2978.50           2548         208.00       902.82
  147.09        2978.75           2552         216.00       937.69
  147.12        2979.00           2555         203.00       881.02
  147.15        2979.25           2559         201.00       872.30
  147.18        2979.50           2562         198.00       859.22
  147.21        2979.75           2566         195.00       846.14
  147.24        2980.00           2569         186.00       806.91
  147.27        2980.25           2573         187.00       811.27
  147.30        2980.50           2577         191.00       828.71
  147.33        2980.75           2580         191.00       828.71
  147.36        2981.00           2584         195.00       846.14
  147.39        2981.25           2587         185.00       802.55
  147.43        2981.50           2591         188.00       815.63
  147.46        2981.75           2594         188.00       815.63
  147.49        2982.00           2598         182.00       789.47
  147.52        2982.25           2601         176.00       763.32
  147.55        2982.50           2605         190.00       824.35
  147.58        2982.75           2609         175.00       758.96
  147.61        2983.00           2612         182.00       789.47
  147.64        2983.25           2616         168.00       728.44
  147.67        2983.50           2619         179.00       776.39
  147.70        2983.75           2623         181.00       785.11
  147.73        2984.00           2626         179.00       776.39
HS scan finished at 02:27:57
end
************************************************************
  HS Scan of (1) Internal mercury lamp
************************************************************
Integration time is 0.2294 seconds per sample
dh140917Reading 51.44 .94 3.25pr1000
************************************************************
Dead Time -------------------------  3.4E-08 
Number of Cycles Used -------------  4 
Starting Wavelength (Angstroms) ---  2950 
Final Wavelength (Angstoms) -------  2984 
Wavelength Increment (Angstroms) --  .25 
Filter Wheel #1 Position ---------- (1) Ground quartz diffuser (ND=2.32)
Filter Wheel #2 Position ---------- (1) Neutral Density 0.494



************************************************************
HS scan start time = 19:07:25
Dark Count =  1.6 


Time (GMT)  Wavelength (Ang)  Step Number  Raw Counts  Counts/Second

 1148.32        2950.00           2144          91.00       389.72
 1148.51        2950.25           2147          87.00       372.28
 1148.54        2950.50           2151          99.00       424.59
 1148.57        2950.75           2155         107.00       459.47
 1148.60        2951.00           2158         102.00       437.67
 1148.63        2951.25           2162         110.00       472.54
 1148.66        2951.50           2165         107.00       459.47
 1148.69        2951.75           2169         109.00       468.19
 1148.72        2952.00           2172          99.00       424.59
 1148.75        2952.25           2176         105.00       450.75
 1148.78        2952.50           2179         104.00       446.39
 1148.82        2952.75           2183         116.00       498.70
 1148.85        2953.00           2186         103.00       442.03
 1148.88        2953.25           2190         111.00       476.90
 1148.91        2953.50           2193         125.00       537.93
 1148.94        2953.75           2197         108.00       463.83
 1148.97        2954.00           2200         106.00       455.11
 1149.00        2954.25           2204         139.00       598.97
 1149.03        2954.50           2208         129.00       555.37
 1149.06        2954.75           2211         113.00       485.62
 1149.09        2955.00           2215         107.00       459.47
 1149.12        2955.25           2218         116.00       498.70
 1149.15        2955.50           2222         105.00       450.75
 1149.18        2955.75           2225         148.00       638.20
 1149.21        2956.00           2229         154.00       664.36
 1149.24        2956.25           2232         162.00       699.23
 1149.27        2956.50           2236         116.00       498.70
 1149.30        2956.75           2239         125.00       537.93
 1149.34        2957.00           2243         135.00       581.53
 1149.37        2957.25           2246         117.00       503.06
 1149.40        2957.50           2250         137.00       590.25
 1149.43        2957.75           2254         121.00       520.50
 1149.46        2958.00           2257         149.00       642.56
 1149.49        2958.25           2261         120.00       516.14
 1149.52        2958.50           2264         157.00       677.43
 1149.55        2958.75           2268         143.00       616.40
 1149.58        2959.00           2271         126.00       542.29
 1149.61        2959.25           2275         146.00       629.48
 1149.64        2959.50           2278         144.00       620.76
 1149.67        2959.75           2282         149.00       642.56
 1149.70        2960.00           2285         167.00       721.03
 1149.73        2960.25           2289         135.00       581.53
 1149.76        2960.50           2293         144.00       620.76
 1149.79        2960.75           2296         147.00       633.84
 1149.82        2961.00           2300         172.00       742.83
 1149.86        2961.25           2303         280.00      1213.65
 1149.89        2961.50           2307         968.00      4213.33
 1149.92        2961.75           2310        2059.00      8971.35
 1149.95        2962.00           2314        3890.00     16960.08
 1149.98        2962.25           2317        5554.00     24223.95
 1150.01        2962.50           2321        7809.00     34073.46
 1150.04        2962.75           2324        9252.00     40379.73
 1150.07        2963.00           2328       11316.00     49404.64
 1150.10        2963.25           2331       12979.00     56680.18
 1150.13        2963.50           2335       15145.00     66161.74
 1150.16        2963.75           2339       16950.00     74067.72
 1150.19        2964.00           2342       18476.00     80755.00
 1150.22        2964.25           2346       20746.00     90708.27
 1150.25        2964.50           2349       22520.00     98491.43
 1150.28        2964.75           2353       24816.00    108570.90
 1150.31        2965.00           2356       26173.00    114531.50
 1150.35        2965.25           2360       28065.00    122846.00
 1150.38        2965.50           2363       29464.00    128997.00
 1150.41        2965.75           2367       31929.00    139841.20
 1150.44        2966.00           2370       33702.00    147646.00
 1150.47        2966.25           2374       35513.00    155622.50
 1150.50        2966.50           2378       36353.00    159323.70
 1150.53        2966.75           2381       36602.00    160421.00
 1150.56        2967.00           2385       36513.00    160028.80
 1150.59        2967.25           2388       36285.00    159024.00
 1150.62        2967.50           2392       36300.00    159090.10
 1150.65        2967.75           2395       36279.00    158997.60
 1150.68        2968.00           2399       35046.00    153565.20
 1150.71        2968.25           2402       33701.00    147641.60
 1150.74        2968.50           2406       31833.00    139418.70
 1150.77        2968.75           2409       30343.00    132863.00
 1150.80        2969.00           2413       28580.00    125110.00
 1150.83        2969.25           2417       26685.00    116781.00
 1150.86        2969.50           2420       25027.00    109497.60
 1150.90        2969.75           2424       22398.00     97956.05
 1150.93        2970.00           2427       20777.00     90844.24
 1150.96        2970.25           2431       18141.00     79286.69
 1150.99        2970.50           2434       16832.00     73550.75
 1151.02        2970.75           2438       14997.00     65513.69
 1151.05        2971.00           2441       13658.00     59651.82
 1151.08        2971.25           2445       11251.00     49120.33
 1151.11        2971.50           2449        9139.00     39885.79
 1151.14        2971.75           2452        7491.00     32684.08
 1151.17        2972.00           2456        5463.00     23826.62
 1151.20        2972.25           2459        4030.00     17571.09
 1151.23        2972.50           2463        2104.00      9167.64
 1151.26        2972.75           2466        1069.00      4653.74
 1151.29        2973.00           2470         302.00      1309.56
 1151.32        2973.25           2473         176.00       760.26
 1151.35        2973.50           2477         161.00       694.87
 1151.38        2973.75           2481         158.00       681.79
 1151.42        2974.00           2484         165.00       712.31
 1151.45        2974.25           2488         155.00       668.72
 1151.48        2974.50           2491         144.00       620.76
 1151.51        2974.75           2495         141.00       607.68
 1151.54        2975.00           2498         160.00       690.51
 1151.57        2975.25           2502         123.00       529.22
 1151.60        2975.50           2505         149.00       642.56
 1151.63        2975.75           2509         145.00       625.12
 1151.66        2976.00           2512         174.00       751.54
 1151.69        2976.25           2516         133.00       572.81
 1151.72        2976.50           2520         139.00       598.97
 1151.75        2976.75           2523         138.00       594.61
 1151.78        2977.00           2527         127.00       546.65
 1151.81        2977.25           2530         123.00       529.22
 1151.84        2977.50           2534         149.00       642.56
 1151.87        2977.75           2537         114.00       489.98
 1151.90        2978.00           2541         136.00       585.89
 1151.94        2978.25           2544         134.00       577.17
 1151.97        2978.50           2548         120.00       516.14
 1152.00        2978.75           2552         112.00       481.26
 1152.03        2979.00           2555         128.00       551.01
 1152.06        2979.25           2559         111.00       476.90
 1152.09        2979.50           2562         111.00       476.90
 1152.12        2979.75           2566         148.00       638.20
 1152.15        2980.00           2569         107.00       459.47
 1152.18        2980.25           2573          98.00       420.23
 1152.21        2980.50           2577          98.00       420.23
 1152.24        2980.75           2580         100.00       428.95
 1152.27        2981.00           2584         104.00       446.39
 1152.30        2981.25           2587         100.00       428.95
 1152.33        2981.50           2591         119.00       511.78
 1152.36        2981.75           2594         109.00       468.19
 1152.39        2982.00           2598          94.00       402.80
 1152.42        2982.25           2601         115.00       494.34
 1152.46        2982.50           2605         109.00       468.19
 1152.49        2982.75           2609         110.00       472.54
 1152.52        2983.00           2612         102.00       437.67
 1152.55        2983.25           2616         119.00       511.78
 1152.58        2983.50           2619          97.00       415.87
 1152.61        2983.75           2623         102.00       437.67
 1152.64        2984.00           2626          98.00       420.23
HS scan finished at 19:12:52
end
