************************************************************
  HS Scan of (1) Internal mercury lamp
************************************************************
Integration time is 0.2294 seconds per sample
dh130917Reading 51.44 .94 3.31pr1000
************************************************************
Dead Time -------------------------  3.4E-08 
Number of Cycles Used -------------  4 
Starting Wavelength (Angstroms) ---  2950 
Final Wavelength (Angstoms) -------  2984 
Wavelength Increment (Angstroms) --  .25 
Filter Wheel #1 Position ---------- (1) Ground quartz diffuser (ND=2.32)
Filter Wheel #2 Position ---------- (1) Neutral Density 0.494



************************************************************
HS scan start time = 19:07:23
Dark Count =  1.9 


Time (GMT)  Wavelength (Ang)  Step Number  Raw Counts  Counts/Second

 1148.28        2950.00           2144         182.00       785.11
 1148.47        2950.25           2147         197.00       850.50
 1148.50        2950.50           2151         191.00       824.35
 1148.53        2950.75           2155         195.00       841.79
 1148.56        2951.00           2158         195.00       841.79
 1148.59        2951.25           2162         204.00       881.02
 1148.63        2951.50           2165         195.00       841.79
 1148.66        2951.75           2169         199.00       859.22
 1148.69        2952.00           2172         187.00       806.91
 1148.72        2952.25           2176         218.00       942.05
 1148.75        2952.50           2179         194.00       837.43
 1148.78        2952.75           2183         187.00       806.91
 1148.81        2953.00           2186         209.00       902.82
 1148.84        2953.25           2190         202.00       872.30
 1148.87        2953.50           2193         190.00       819.99
 1148.90        2953.75           2197         224.00       968.21
 1148.93        2954.00           2200         206.00       889.74
 1148.96        2954.25           2204         204.00       881.02
 1148.99        2954.50           2208         204.00       881.02
 1149.02        2954.75           2211         210.00       907.18
 1149.05        2955.00           2215         228.00       985.65
 1149.08        2955.25           2218         210.00       907.18
 1149.11        2955.50           2222         226.00       976.93
 1149.15        2955.75           2225         222.00       959.49
 1149.18        2956.00           2229         212.00       915.90
 1149.21        2956.25           2232         215.00       928.97
 1149.24        2956.50           2236         233.00      1007.45
 1149.27        2956.75           2239         222.00       959.49
 1149.30        2957.00           2243         219.00       946.41
 1149.33        2957.25           2246         226.00       976.93
 1149.36        2957.50           2250         244.00      1055.40
 1149.39        2957.75           2254         224.00       968.21
 1149.42        2958.00           2257         248.00      1072.84
 1149.45        2958.25           2261         229.00       990.01
 1149.48        2958.50           2264         259.00      1120.79
 1149.51        2958.75           2268         250.00      1081.56
 1149.54        2959.00           2271         247.00      1068.48
 1149.57        2959.25           2275         243.00      1051.04
 1149.60        2959.50           2278         274.00      1186.19
 1149.63        2959.75           2282         267.00      1155.67
 1149.67        2960.00           2285         271.00      1173.11
 1149.70        2960.25           2289         299.00      1295.17
 1149.73        2960.50           2293         285.00      1234.14
 1149.76        2960.75           2296         271.00      1173.11
 1149.79        2961.00           2300         332.00      1439.04
 1149.82        2961.25           2303         682.00      2964.99
 1149.85        2961.50           2307        2430.00     10588.38
 1149.88        2961.75           2310        4882.00     21288.73
 1149.91        2962.00           2314        8857.00     38651.90
 1149.94        2962.25           2317       11734.00     51231.71
 1149.97        2962.50           2321       15564.00     67995.29
 1150.00        2962.75           2324       18394.00     80394.26
 1150.03        2963.00           2328       22532.00     98542.78
 1150.06        2963.25           2331       25778.00    112794.90
 1150.09        2963.50           2335       30216.00    132303.10
 1150.12        2963.75           2339       34283.00    150203.20
 1150.15        2964.00           2342       37264.00    163337.50
 1150.18        2964.25           2346       40956.00    179620.70
 1150.22        2964.50           2349       44079.00    193408.50
 1150.25        2964.75           2353       48596.00    213373.70
 1150.28        2965.00           2356       51946.00    228198.30
 1150.31        2965.25           2360       55708.00    244864.10
 1150.34        2965.50           2363       58142.00    255656.80
 1150.37        2965.75           2367       61894.00    272309.50
 1150.40        2966.00           2370       64944.00    285860.40
 1150.43        2966.25           2374       68505.00    301697.50
 1150.46        2966.50           2378       70739.00    311641.70
 1150.49        2966.75           2381       71544.00    315226.70
 1150.52        2967.00           2385       71665.00    315765.60
 1150.55        2967.25           2388       71392.00    314549.70
 1150.58        2967.50           2392       71281.00    314055.30
 1150.61        2967.75           2395       70871.00    312229.50
 1150.64        2968.00           2399       69346.00    305440.20
 1150.67        2968.25           2402       66858.00    294370.60
 1150.70        2968.50           2406       62795.00    276311.30
 1150.74        2968.75           2409       59476.00    261575.40
 1150.77        2969.00           2413       54951.00    241509.00
 1150.80        2969.25           2417       50962.00    223842.30
 1150.83        2969.50           2420       48213.00    211679.80
 1150.86        2969.75           2424       44121.00    193594.00
 1150.89        2970.00           2427       40540.00    177785.00
 1150.93        2970.25           2431       35642.00    156189.50
 1150.96        2970.50           2434       32373.00    141794.00
 1150.99        2970.75           2438       28213.00    123495.20
 1151.02        2971.00           2441       25426.00    111248.70
 1151.05        2971.25           2445       21423.00     93676.69
 1151.08        2971.50           2449       17423.00     76138.88
 1151.11        2971.75           2452       14210.00     62066.76
 1151.14        2972.00           2456       10107.00     44116.25
 1151.17        2972.25           2459        7357.00     32097.35
 1151.20        2972.50           2463        3965.00     17286.09
 1151.23        2972.75           2466        1885.00      8211.10
 1151.26        2973.00           2470         596.00      2590.03
 1151.29        2973.25           2473         356.00      1543.67
 1151.32        2973.50           2477         296.00      1282.10
 1151.35        2973.75           2481         293.00      1269.02
 1151.38        2974.00           2484         296.00      1282.10
 1151.41        2974.25           2488         290.00      1255.94
 1151.45        2974.50           2491         255.00      1103.35
 1151.48        2974.75           2495         244.00      1055.40
 1151.51        2975.00           2498         247.00      1068.48
 1151.54        2975.25           2502         247.00      1068.48
 1151.57        2975.50           2505         258.00      1116.43
 1151.60        2975.75           2509         221.00       955.13
 1151.63        2976.00           2512         264.00      1142.59
 1151.66        2976.25           2516         233.00      1007.45
 1151.69        2976.50           2520         217.00       937.69
 1151.72        2976.75           2523         222.00       959.49
 1151.75        2977.00           2527         222.00       959.49
 1151.78        2977.25           2530         209.00       902.82
 1151.81        2977.50           2534         207.00       894.10
 1151.84        2977.75           2537         209.00       902.82
 1151.87        2978.00           2541         202.00       872.30
 1151.90        2978.25           2544         211.00       911.54
 1151.93        2978.50           2548         213.00       920.26
 1151.97        2978.75           2552         197.00       850.50
 1152.00        2979.00           2555         197.00       850.50
 1152.03        2979.25           2559         202.00       872.30
 1152.06        2979.50           2562         191.00       824.35
 1152.09        2979.75           2566         210.00       907.18
 1152.12        2980.00           2569         186.00       802.55
 1152.15        2980.25           2573         193.00       833.07
 1152.18        2980.50           2577         186.00       802.55
 1152.21        2980.75           2580         193.00       833.07
 1152.24        2981.00           2584         182.00       785.11
 1152.27        2981.25           2587         189.00       815.63
 1152.30        2981.50           2591         181.00       780.75
 1152.33        2981.75           2594         178.00       767.67
 1152.36        2982.00           2598         183.00       789.47
 1152.39        2982.25           2601         180.00       776.39
 1152.42        2982.50           2605         173.00       745.88
 1152.45        2982.75           2609         174.00       750.24
 1152.49        2983.00           2612         169.00       728.44
 1152.52        2983.25           2616         187.00       806.91
 1152.55        2983.50           2619         168.00       724.08
 1152.58        2983.75           2623         172.00       741.52
 1152.61        2984.00           2626         179.00       772.03
HS scan finished at 19:12:50
end
