************************************************************
  HS Scan of (1) Internal mercury lamp
************************************************************
Integration time is 0.2294 seconds per sample
dh070918Reading 51.44 .94 3.07pr1000
************************************************************
Dead Time -------------------------  3.4E-08 
Number of Cycles Used -------------  4 
Starting Wavelength (Angstroms) ---  2950 
Final Wavelength (Angstoms) -------  2984 
Wavelength Increment (Angstroms) --  .25 
Filter Wheel #1 Position ---------- (1) Ground quartz diffuser (ND=2.32)
Filter Wheel #2 Position ---------- (1) Neutral Density 0.494



************************************************************
HS scan start time = 01:49:09
Dark Count =  1 


Time (GMT)  Wavelength (Ang)  Step Number  Raw Counts  Counts/Second

  110.05        2950.00           2144          67.00       287.71
  110.25        2950.25           2147          62.00       265.91
  110.28        2950.50           2151          62.00       265.91
  110.31        2950.75           2155          69.00       296.43
  110.34        2951.00           2158          55.00       235.40
  110.37        2951.25           2162          67.00       287.71
  110.40        2951.50           2165          64.00       274.63
  110.43        2951.75           2169          62.00       265.91
  110.46        2952.00           2172          66.00       283.35
  110.49        2952.25           2176          69.00       296.43
  110.52        2952.50           2179          64.00       274.63
  110.55        2952.75           2183          66.00       283.35
  110.58        2953.00           2186          68.00       292.07
  110.61        2953.25           2190          62.00       265.91
  110.64        2953.50           2193          66.00       283.35
  110.68        2953.75           2197          68.00       292.07
  110.71        2954.00           2200          68.00       292.07
  110.74        2954.25           2204          61.00       261.55
  110.77        2954.50           2208          73.00       313.87
  110.80        2954.75           2211          67.00       287.71
  110.83        2955.00           2215          62.00       265.91
  110.86        2955.25           2218          65.00       278.99
  110.89        2955.50           2222          71.00       305.15
  110.92        2955.75           2225          75.00       322.58
  110.95        2956.00           2229          68.00       292.07
  110.98        2956.25           2232          67.00       287.71
  111.01        2956.50           2236          73.00       313.87
  111.04        2956.75           2239          75.00       322.58
  111.07        2957.00           2243          74.00       318.22
  111.10        2957.25           2246          72.00       309.51
  111.13        2957.50           2250          73.00       313.87
  111.16        2957.75           2254          80.00       344.38
  111.20        2958.00           2257          80.00       344.38
  111.23        2958.25           2261          79.00       340.02
  111.26        2958.50           2264          81.00       348.74
  111.29        2958.75           2268          76.00       326.94
  111.32        2959.00           2271          81.00       348.74
  111.35        2959.25           2275          83.00       357.46
  111.38        2959.50           2278          88.00       379.26
  111.41        2959.75           2282          85.00       366.18
  111.44        2960.00           2285          78.00       335.66
  111.47        2960.25           2289          83.00       357.46
  111.50        2960.50           2293          86.00       370.54
  111.53        2960.75           2296          92.00       396.69
  111.56        2961.00           2300         108.00       466.44
  111.59        2961.25           2303         206.00       893.66
  111.62        2961.50           2307         759.00      3304.64
  111.65        2961.75           2310        1412.00      6152.12
  111.68        2962.00           2314        2451.00     10683.92
  111.72        2962.25           2317        3247.00     14156.77
  111.75        2962.50           2321        4529.00     19751.71
  111.78        2962.75           2324        5514.00     24051.92
  111.81        2963.00           2328        6831.00     29803.51
  111.84        2963.25           2331        7736.00     33757.12
  111.87        2963.50           2335        8991.00     39241.52
  111.90        2963.75           2339       10091.00     44050.24
  111.93        2964.00           2342       11143.00     48650.59
  111.96        2964.25           2346       12415.00     54214.93
  111.99        2964.50           2349       13400.00     58525.24
  112.02        2964.75           2353       14651.00     64001.37
  112.05        2965.00           2356       15426.00     67394.90
  112.08        2965.25           2360       16653.00     72769.18
  112.11        2965.50           2363       17874.00     78119.16
  112.14        2965.75           2367       18920.00     82703.90
  112.17        2966.00           2370       19624.00     85790.41
  112.20        2966.25           2374       20348.00     88965.30
  112.24        2966.50           2378       20899.00     91382.01
  112.27        2966.75           2381       20988.00     91772.41
  112.30        2967.00           2385       20753.00     90741.61
  112.33        2967.25           2388       20793.00     90917.06
  112.36        2967.50           2392       20365.00     89039.86
  112.39        2967.75           2395       20612.00     90123.16
  112.42        2968.00           2399       20254.00     88553.06
  112.45        2968.25           2402       18933.00     82760.90
  112.48        2968.50           2406       17792.00     77759.80
  112.51        2968.75           2409       16796.00     73395.66
  112.54        2969.00           2413       15724.00     68699.96
  112.57        2969.25           2417       14494.00     63314.00
  112.60        2969.50           2420       13683.00     59763.87
  112.63        2969.75           2424       12682.00     55383.18
  112.66        2970.00           2427       12213.00     53331.15
  112.69        2970.25           2431       11383.00     49700.31
  112.72        2970.50           2434       10178.00     44430.63
  112.76        2970.75           2438        8594.00     37506.39
  112.79        2971.00           2441        7971.00     34783.92
  112.82        2971.25           2445        6753.00     29462.80
  112.85        2971.50           2449        5446.00     23755.01
  112.88        2971.75           2452        4543.00     19812.82
  112.91        2972.00           2456        3240.00     14126.23
  112.94        2972.25           2459        2329.00     10151.72
  112.97        2972.50           2463        1282.00      5585.19
  113.00        2972.75           2466         718.00      3125.88
  113.03        2973.00           2470         248.00      1076.76
  113.06        2973.25           2473         131.00       566.71
  113.09        2973.50           2477         125.00       540.55
  113.12        2973.75           2481          88.00       379.26
  113.15        2974.00           2484         111.00       479.52
  113.18        2974.25           2488          96.00       414.13
  113.21        2974.50           2491          88.00       379.26
  113.24        2974.75           2495          86.00       370.54
  113.28        2975.00           2498          78.00       335.66
  113.31        2975.25           2502          89.00       383.61
  113.34        2975.50           2505          81.00       348.74
  113.37        2975.75           2509          85.00       366.18
  113.40        2976.00           2512          74.00       318.22
  113.43        2976.25           2516          82.00       353.10
  113.46        2976.50           2520          83.00       357.46
  113.49        2976.75           2523          70.00       300.79
  113.52        2977.00           2527          78.00       335.66
  113.55        2977.25           2530          77.00       331.30
  113.58        2977.50           2534          81.00       348.74
  113.61        2977.75           2537          74.00       318.22
  113.64        2978.00           2541          69.00       296.43
  113.67        2978.25           2544          73.00       313.87
  113.70        2978.50           2548          68.00       292.07
  113.73        2978.75           2552          67.00       287.71
  113.76        2979.00           2555          65.00       278.99
  113.80        2979.25           2559          77.00       331.30
  113.83        2979.50           2562          71.00       305.15
  113.86        2979.75           2566          80.00       344.38
  113.89        2980.00           2569          74.00       318.22
  113.92        2980.25           2573          65.00       278.99
  113.95        2980.50           2577          66.00       283.35
  113.98        2980.75           2580          62.00       265.91
  114.01        2981.00           2584          68.00       292.07
  114.04        2981.25           2587          65.00       278.99
  114.07        2981.50           2591          64.00       274.63
  114.10        2981.75           2594          62.00       265.91
  114.13        2982.00           2598          59.00       252.84
  114.16        2982.25           2601          67.00       287.71
  114.19        2982.50           2605          70.00       300.79
  114.22        2982.75           2609          61.00       261.55
  114.25        2983.00           2612          61.00       261.55
  114.28        2983.25           2616          54.00       231.04
  114.31        2983.50           2619          60.00       257.19
  114.35        2983.75           2623          65.00       278.99
  114.38        2984.00           2626          64.00       274.63
HS scan finished at 01:54:36
end
************************************************************
  HS Scan of (1) Internal mercury lamp
************************************************************
Integration time is 0.2294 seconds per sample
dh070918Reading 51.44 .94 3.37pr1000
************************************************************
Dead Time -------------------------  3.4E-08 
Number of Cycles Used -------------  4 
Starting Wavelength (Angstroms) ---  2950 
Final Wavelength (Angstoms) -------  2984 
Wavelength Increment (Angstroms) --  .25 
Filter Wheel #1 Position ---------- (1) Ground quartz diffuser (ND=2.32)
Filter Wheel #2 Position ---------- (1) Neutral Density 0.494



************************************************************
HS scan start time = 19:37:25
Dark Count =  1.9 


Time (GMT)  Wavelength (Ang)  Step Number  Raw Counts  Counts/Second

 1178.31        2950.00           2144          66.00       279.43
 1178.50        2950.25           2147          58.00       244.55
 1178.53        2950.50           2151          64.00       270.71
 1178.56        2950.75           2155          61.00       257.63
 1178.59        2951.00           2158          71.00       301.22
 1178.62        2951.25           2162          63.00       266.35
 1178.65        2951.50           2165          67.00       283.79
 1178.68        2951.75           2169          59.00       248.91
 1178.71        2952.00           2172          63.00       266.35
 1178.74        2952.25           2176          63.00       266.35
 1178.78        2952.50           2179          58.00       244.55
 1178.81        2952.75           2183          66.00       279.43
 1178.84        2953.00           2186          64.00       270.71
 1178.87        2953.25           2190          63.00       266.35
 1178.90        2953.50           2193          68.00       288.15
 1178.93        2953.75           2197          61.00       257.63
 1178.96        2954.00           2200          65.00       275.07
 1178.99        2954.25           2204          69.00       292.51
 1179.02        2954.50           2208          60.00       253.27
 1179.05        2954.75           2211          64.00       270.71
 1179.08        2955.00           2215          70.00       296.86
 1179.11        2955.25           2218          65.00       275.07
 1179.14        2955.50           2222          68.00       288.15
 1179.17        2955.75           2225          66.00       279.43
 1179.20        2956.00           2229          69.00       292.51
 1179.23        2956.25           2232          70.00       296.86
 1179.26        2956.50           2236          66.00       279.43
 1179.30        2956.75           2239          63.00       266.35
 1179.33        2957.00           2243          76.00       323.02
 1179.36        2957.25           2246          76.00       323.02
 1179.39        2957.50           2250          78.00       331.74
 1179.42        2957.75           2254          73.00       309.94
 1179.45        2958.00           2257          76.00       323.02
 1179.48        2958.25           2261          77.00       327.38
 1179.51        2958.50           2264          72.00       305.58
 1179.54        2958.75           2268          76.00       323.02
 1179.57        2959.00           2271          74.00       314.30
 1179.60        2959.25           2275          81.00       344.82
 1179.63        2959.50           2278          82.00       349.18
 1179.66        2959.75           2282          82.00       349.18
 1179.69        2960.00           2285          88.00       375.33
 1179.72        2960.25           2289          85.00       362.25
 1179.75        2960.50           2293          89.00       379.69
 1179.78        2960.75           2296          93.00       397.13
 1179.82        2961.00           2300         133.00       571.50
 1179.85        2961.25           2303         284.00      1229.78
 1179.88        2961.50           2307         913.00      3972.20
 1179.91        2961.75           2310        1652.00      7194.87
 1179.94        2962.00           2314        2760.00     12028.02
 1179.97        2962.25           2317        3584.00     15623.38
 1180.00        2962.50           2321        4752.00     20721.22
 1180.03        2962.75           2324        5707.00     24890.72
 1180.06        2963.00           2328        7156.00     31219.26
 1180.09        2963.25           2331        7982.00     34828.05
 1180.12        2963.50           2335        9165.00     39998.13
 1180.15        2963.75           2339       10507.00     45865.28
 1180.18        2964.00           2342       11335.00     49486.42
 1180.21        2964.25           2346       12766.00     55746.80
 1180.24        2964.50           2349       14154.00     61821.62
 1180.27        2964.75           2353       15397.00     67263.94
 1180.30        2965.00           2356       15971.00     69777.81
 1180.34        2965.25           2360       17283.00     75525.43
 1180.37        2965.50           2363       18139.00     79276.60
 1180.40        2965.75           2367       19289.00     84317.66
 1180.43        2966.00           2370       20153.00     88106.18
 1180.46        2966.25           2374       21118.00     92338.71
 1180.49        2966.50           2378       21466.00     93865.34
 1180.52        2966.75           2381       21396.00     93558.24
 1180.55        2967.00           2385       21630.00     94584.85
 1180.58        2967.25           2388       21765.00     95177.16
 1180.61        2967.50           2392       21643.00     94641.89
 1180.64        2967.75           2395       21437.00     93738.12
 1180.67        2968.00           2399       20920.00     91470.18
 1180.70        2968.25           2402       19792.00     86523.12
 1180.73        2968.50           2406       19383.00     84729.80
 1180.76        2968.75           2409       18874.00     82498.30
 1180.79        2969.00           2413       17584.00     76844.37
 1180.82        2969.25           2417       16273.00     71100.62
 1180.86        2969.50           2420       15230.00     66532.63
 1180.89        2969.75           2424       13630.00     59527.95
 1180.92        2970.00           2427       12747.00     55663.66
 1180.95        2970.25           2431       11219.00     48979.06
 1180.98        2970.50           2434       10169.00     44387.34
 1181.01        2970.75           2438        8926.00     38953.47
 1181.04        2971.00           2441        7990.00     34863.01
 1181.07        2971.25           2445        6673.00     29109.44
 1181.10        2971.50           2449        5309.00     23152.92
 1181.13        2971.75           2452        4302.00     18756.95
 1181.16        2972.00           2456        2989.00     13027.13
 1181.19        2972.25           2459        2049.00      8926.42
 1181.22        2972.50           2463        1067.00      4643.72
 1181.25        2972.75           2466         539.00      2341.51
 1181.28        2973.00           2470         207.00       894.10
 1181.31        2973.25           2473         121.00       519.19
 1181.34        2973.50           2477         117.00       501.75
 1181.38        2973.75           2481          92.00       392.77
 1181.41        2974.00           2484          93.00       397.13
 1181.44        2974.25           2488         112.00       479.96
 1181.47        2974.50           2491          90.00       384.05
 1181.50        2974.75           2495          80.00       340.46
 1181.53        2975.00           2498          90.00       384.05
 1181.56        2975.25           2502          88.00       375.33
 1181.59        2975.50           2505          79.00       336.10
 1181.62        2975.75           2509          77.00       327.38
 1181.65        2976.00           2512          90.00       384.05
 1181.68        2976.25           2516         100.00       427.64
 1181.71        2976.50           2520          76.00       323.02
 1181.74        2976.75           2523          85.00       362.25
 1181.77        2977.00           2527          89.00       379.69
 1181.80        2977.25           2530          78.00       331.74
 1181.83        2977.50           2534          78.00       331.74
 1181.86        2977.75           2537          71.00       301.22
 1181.89        2978.00           2541          78.00       331.74
 1181.93        2978.25           2544          77.00       327.38
 1181.96        2978.50           2548          75.00       318.66
 1181.99        2978.75           2552          68.00       288.15
 1182.02        2979.00           2555          71.00       301.22
 1182.05        2979.25           2559          76.00       323.02
 1182.08        2979.50           2562          68.00       288.15
 1182.11        2979.75           2566          64.00       270.71
 1182.14        2980.00           2569          71.00       301.22
 1182.17        2980.25           2573          63.00       266.35
 1182.20        2980.50           2577          69.00       292.51
 1182.23        2980.75           2580          63.00       266.35
 1182.26        2981.00           2584          68.00       288.15
 1182.29        2981.25           2587          61.00       257.63
 1182.32        2981.50           2591          65.00       275.07
 1182.35        2981.75           2594          69.00       292.51
 1182.38        2982.00           2598          71.00       301.22
 1182.41        2982.25           2601          78.00       331.74
 1182.45        2982.50           2605          72.00       305.58
 1182.48        2982.75           2609          69.00       292.51
 1182.51        2983.00           2612          69.00       292.51
 1182.54        2983.25           2616          68.00       288.15
 1182.57        2983.50           2619          62.00       261.99
 1182.60        2983.75           2623          69.00       292.51
 1182.63        2984.00           2626          67.00       283.79
HS scan finished at 19:42:51
end
