************************************************************
  HS Scan of (1) Internal mercury lamp
************************************************************
Integration time is 0.2294 seconds per sample
dh130918Reading 51.44 .94 2.96pr1000
************************************************************
Dead Time -------------------------  3.4E-08 
Number of Cycles Used -------------  4 
Starting Wavelength (Angstroms) ---  2950 
Final Wavelength (Angstoms) -------  2984 
Wavelength Increment (Angstroms) --  .25 
Filter Wheel #1 Position ---------- (1) Ground quartz diffuser (ND=2.32)
Filter Wheel #2 Position ---------- (1) Neutral Density 0.494



************************************************************
HS scan start time = 02:17:38
Dark Count =  .8 


Time (GMT)  Wavelength (Ang)  Step Number  Raw Counts  Counts/Second

  138.54        2950.00           2144          63.00       271.14
  138.73        2950.25           2147          63.00       271.14
  138.76        2950.50           2151          63.00       271.14
  138.79        2950.75           2155          79.00       340.89
  138.82        2951.00           2158          60.00       258.07
  138.85        2951.25           2162          68.00       292.94
  138.88        2951.50           2165          89.00       384.49
  138.91        2951.75           2169         105.00       454.24
  138.94        2952.00           2172          93.00       401.92
  138.98        2952.25           2176          92.00       397.56
  139.01        2952.50           2179          68.00       292.94
  139.04        2952.75           2183          71.00       306.02
  139.07        2953.00           2186          70.00       301.66
  139.10        2953.25           2190          63.00       271.14
  139.13        2953.50           2193          66.00       284.22
  139.16        2953.75           2197          65.00       279.86
  139.19        2954.00           2200         104.00       449.88
  139.22        2954.25           2204          76.00       327.82
  139.25        2954.50           2208          69.00       297.30
  139.28        2954.75           2211          64.00       275.50
  139.31        2955.00           2215          61.00       262.43
  139.34        2955.25           2218          70.00       301.66
  139.37        2955.50           2222          66.00       284.22
  139.40        2955.75           2225          74.00       319.10
  139.43        2956.00           2229          67.00       288.58
  139.46        2956.25           2232          65.00       279.86
  139.50        2956.50           2236          68.00       292.94
  139.53        2956.75           2239          77.00       332.17
  139.56        2957.00           2243         130.00       563.22
  139.59        2957.25           2246          76.00       327.82
  139.62        2957.50           2250          79.00       340.89
  139.65        2957.75           2254          74.00       319.10
  139.68        2958.00           2257          75.00       323.46
  139.71        2958.25           2261          74.00       319.10
  139.74        2958.50           2264          73.00       314.74
  139.77        2958.75           2268          84.00       362.69
  139.80        2959.00           2271          79.00       340.89
  139.83        2959.25           2275          81.00       349.61
  139.86        2959.50           2278          83.00       358.33
  139.89        2959.75           2282          91.00       393.20
  139.92        2960.00           2285          87.00       375.77
  139.95        2960.25           2289          84.00       362.69
  139.98        2960.50           2293          77.00       332.17
  140.02        2960.75           2296          90.00       388.85
  140.05        2961.00           2300         101.00       436.80
  140.08        2961.25           2303         154.00       667.84
  140.11        2961.50           2307         615.00      2677.66
  140.14        2961.75           2310        1293.00      5634.03
  140.17        2962.00           2314        2401.00     10466.67
  140.20        2962.25           2317        3175.00     13843.48
  140.23        2962.50           2321        4273.00     18635.17
  140.26        2962.75           2324        9059.00     39539.61
  140.29        2963.00           2328        6734.00     29380.69
  140.32        2963.25           2331        7468.00     32587.09
  140.35        2963.50           2335        8617.00     37607.78
  140.38        2963.75           2339        9785.00     42713.25
  140.41        2964.00           2342       10661.00     46543.52
  140.44        2964.25           2346       11824.00     51630.23
  140.47        2964.50           2349       12613.00     55082.14
  140.50        2964.75           2353       13796.00     60259.34
  140.54        2965.00           2356       14438.00     63069.72
  140.57        2965.25           2360       15614.00     68219.08
  140.60        2965.50           2363       16523.00     72200.56
  140.63        2965.75           2367       17581.00     76836.03
  140.66        2966.00           2370       18361.00     80254.43
  140.69        2966.25           2374       34629.00    151731.90
  140.72        2966.50           2378       22743.00     99473.61
  140.75        2966.75           2381       21436.00     93738.56
  140.78        2967.00           2385       21231.00     92839.24
  140.81        2967.25           2388       20949.00     91602.21
  140.84        2967.50           2392       20935.00     91540.78
  140.87        2967.75           2395       20564.00     89913.51
  140.90        2968.00           2399       20000.00     87440.04
  140.93        2968.25           2402       19104.00     83511.41
  140.96        2968.50           2406       18086.00     79049.13
  140.99        2968.75           2409       17213.00     75223.53
  141.02        2969.00           2413       15820.00     69121.28
  141.06        2969.25           2417       14649.00     63993.49
  141.09        2969.50           2420       13564.00     59243.89
  141.12        2969.75           2424       12316.00     53782.66
  141.15        2970.00           2427       20737.00     90672.30
  141.18        2970.25           2431       11280.00     49250.67
  141.21        2970.50           2434        9973.00     43535.19
  141.24        2970.75           2438        8572.00     37411.11
  141.27        2971.00           2441        7455.00     32530.29
  141.30        2971.25           2445        6211.00     27096.45
  141.33        2971.50           2449        5054.00     22044.42
  141.36        2971.75           2452        4176.00     18211.80
  141.39        2972.00           2456        3040.00     13254.45
  141.42        2972.25           2459        2137.00      9315.07
  141.45        2972.50           2463        1051.00      4578.74
  141.48        2972.75           2466         511.00      2224.23
  141.51        2973.00           2470         170.00       737.59
  141.54        2973.25           2473         172.00       746.31
  141.58        2973.50           2477         100.00       432.44
  141.61        2973.75           2481          88.00       380.13
  141.64        2974.00           2484          94.00       406.28
  141.67        2974.25           2488          89.00       384.49
  141.70        2974.50           2491          87.00       375.77
  141.73        2974.75           2495          83.00       358.33
  141.76        2975.00           2498          82.00       353.97
  141.79        2975.25           2502          78.00       336.53
  141.82        2975.50           2505          84.00       362.69
  141.85        2975.75           2509          84.00       362.69
  141.88        2976.00           2512          73.00       314.74
  141.91        2976.25           2516          77.00       332.17
  141.94        2976.50           2520          69.00       297.30
  141.97        2976.75           2523          88.00       380.13
  142.00        2977.00           2527          70.00       301.66
  142.03        2977.25           2530          70.00       301.66
  142.06        2977.50           2534          76.00       327.82
  142.09        2977.75           2537          68.00       292.94
  142.13        2978.00           2541          69.00       297.30
  142.16        2978.25           2544          68.00       292.94
  142.19        2978.50           2548          67.00       288.58
  142.22        2978.75           2552          70.00       301.66
  142.25        2979.00           2555          68.00       292.94
  142.28        2979.25           2559          74.00       319.10
  142.31        2979.50           2562         108.00       467.31
  142.34        2979.75           2566          78.00       336.53
  142.37        2980.00           2569          67.00       288.58
  142.40        2980.25           2573          66.00       284.22
  142.43        2980.50           2577          65.00       279.86
  142.46        2980.75           2580          71.00       306.02
  142.49        2981.00           2584          60.00       258.07
  142.52        2981.25           2587          63.00       271.14
  142.55        2981.50           2591          64.00       275.50
  142.58        2981.75           2594          64.00       275.50
  142.61        2982.00           2598          62.00       266.79
  142.65        2982.25           2601          64.00       275.50
  142.68        2982.50           2605          91.00       393.20
  142.71        2982.75           2609          60.00       258.07
  142.74        2983.00           2612          69.00       297.30
  142.77        2983.25           2616          60.00       258.07
  142.80        2983.50           2619          63.00       271.14
  142.83        2983.75           2623          58.00       249.35
  142.86        2984.00           2626          66.00       284.22
HS scan finished at 02:23:05
end
************************************************************
  HS Scan of (1) Internal mercury lamp
************************************************************
Integration time is 0.2294 seconds per sample
dh130918Reading 51.44 .94 3.45pr1000
************************************************************
Dead Time -------------------------  3.4E-08 
Number of Cycles Used -------------  4 
Starting Wavelength (Angstroms) ---  2950 
Final Wavelength (Angstoms) -------  2984 
Wavelength Increment (Angstroms) --  .25 
Filter Wheel #1 Position ---------- (1) Ground quartz diffuser (ND=2.32)
Filter Wheel #2 Position ---------- (1) Neutral Density 0.494



************************************************************
HS scan start time = 19:07:25
Dark Count =  3 


Time (GMT)  Wavelength (Ang)  Step Number  Raw Counts  Counts/Second

 1148.31        2950.00           2144          52.00       213.60
 1148.50        2950.25           2147          39.00       156.93
 1148.54        2950.50           2151          49.00       200.52
 1148.57        2950.75           2155          44.00       178.73
 1148.60        2951.00           2158          52.00       213.60
 1148.63        2951.25           2162          53.00       217.96
 1148.66        2951.50           2165          43.00       174.37
 1148.69        2951.75           2169          47.00       191.81
 1148.72        2952.00           2172          47.00       191.81
 1148.75        2952.25           2176          52.00       213.60
 1148.78        2952.50           2179          49.00       200.52
 1148.81        2952.75           2183          47.00       191.81
 1148.84        2953.00           2186          43.00       174.37
 1148.87        2953.25           2190          41.00       165.65
 1148.90        2953.50           2193          53.00       217.96
 1148.93        2953.75           2197          49.00       200.52
 1148.96        2954.00           2200          50.00       204.88
 1148.99        2954.25           2204          54.00       222.32
 1149.02        2954.50           2208          55.00       226.68
 1149.06        2954.75           2211          55.00       226.68
 1149.09        2955.00           2215          58.00       239.76
 1149.12        2955.25           2218          55.00       226.68
 1149.15        2955.50           2222          61.00       252.84
 1149.18        2955.75           2225          57.00       235.40
 1149.21        2956.00           2229          56.00       231.04
 1149.24        2956.25           2232          54.00       222.32
 1149.27        2956.50           2236          57.00       235.40
 1149.30        2956.75           2239          63.00       261.55
 1149.33        2957.00           2243          60.00       248.48
 1149.36        2957.25           2246          62.00       257.19
 1149.39        2957.50           2250          62.00       257.19
 1149.42        2957.75           2254          55.00       226.68
 1149.45        2958.00           2257          54.00       222.32
 1149.48        2958.25           2261          58.00       239.76
 1149.51        2958.50           2264          54.00       222.32
 1149.54        2958.75           2268          61.00       252.84
 1149.57        2959.00           2271          57.00       235.40
 1149.61        2959.25           2275          69.00       287.71
 1149.64        2959.50           2278          61.00       252.84
 1149.67        2959.75           2282          71.00       296.43
 1149.70        2960.00           2285          63.00       261.55
 1149.73        2960.25           2289          70.00       292.07
 1149.76        2960.50           2293          70.00       292.07
 1149.79        2960.75           2296          75.00       313.87
 1149.82        2961.00           2300          84.00       353.10
 1149.85        2961.25           2303         197.00       845.71
 1149.88        2961.50           2307         696.00      3021.23
 1149.91        2961.75           2310        1239.00      5388.96
 1149.94        2962.00           2314        2108.00      9178.98
 1149.97        2962.25           2317        2794.00     12171.56
 1150.01        2962.50           2321        3780.00     16473.92
 1150.04        2962.75           2324        4453.00     19411.24
 1150.07        2963.00           2328        5370.00     23414.45
 1150.10        2963.25           2331        6161.00     26868.48
 1150.13        2963.50           2335        7269.00     31708.10
 1150.16        2963.75           2339        8478.00     36990.70
 1150.19        2964.00           2342        9154.00     39945.24
 1150.22        2964.25           2346       10005.00     43665.48
 1150.25        2964.50           2349       10779.00     47049.93
 1150.29        2964.75           2353       11783.00     51441.25
 1150.32        2965.00           2356       12610.00     55059.39
 1150.35        2965.25           2360       13251.00     57864.39
 1150.38        2965.50           2363       14026.00     61256.48
 1150.41        2965.75           2367       15060.00     65783.41
 1150.44        2966.00           2370       15647.00     68353.97
 1150.48        2966.25           2374       16280.00     71126.46
 1150.51        2966.50           2378       16348.00     71424.34
 1150.54        2966.75           2381       16506.00     72116.46
 1150.57        2967.00           2385       16666.00     72817.38
 1150.60        2967.25           2388       16435.00     71805.44
 1150.63        2967.50           2392       16304.00     71231.60
 1150.66        2967.75           2395       16365.00     71498.80
 1150.69        2968.00           2399       16034.00     70048.94
 1150.72        2968.25           2402       15243.00     66584.75
 1150.75        2968.50           2406       14271.00     62328.99
 1150.78        2968.75           2409       13722.00     59925.81
 1150.81        2969.00           2413       12994.00     56739.69
 1150.84        2969.25           2417       11729.00     51205.03
 1150.87        2969.50           2420       11167.00     48746.82
 1150.90        2969.75           2424       10199.00     44513.70
 1150.93        2970.00           2427        9221.00     40238.10
 1150.96        2970.25           2431        8324.00     36317.71
 1151.00        2970.50           2434        7480.00     32629.91
 1151.03        2970.75           2438        6597.00     28772.68
 1151.06        2971.00           2441        5970.00     26034.37
 1151.09        2971.25           2445        4947.00     21567.69
 1151.12        2971.50           2449        3938.00     17163.46
 1151.15        2971.75           2452        3137.00     13668.08
 1151.18        2972.00           2456        2227.00      9698.05
 1151.21        2972.25           2459        1624.00      7067.96
 1151.24        2972.50           2463         887.00      3854.04
 1151.27        2972.75           2466         447.00      1935.61
 1151.30        2973.00           2470         134.00       571.07
 1151.33        2973.25           2473          89.00       374.90
 1151.36        2973.50           2477          73.00       305.15
 1151.39        2973.75           2481          73.00       305.15
 1151.42        2974.00           2484          79.00       331.30
 1151.45        2974.25           2488          65.00       270.27
 1151.48        2974.50           2491          73.00       305.15
 1151.52        2974.75           2495          67.00       278.99
 1151.55        2975.00           2498          64.00       265.91
 1151.58        2975.25           2502          64.00       265.91
 1151.61        2975.50           2505          74.00       309.51
 1151.64        2975.75           2509          61.00       252.84
 1151.67        2976.00           2512          67.00       278.99
 1151.70        2976.25           2516          62.00       257.19
 1151.73        2976.50           2520          59.00       244.12
 1151.76        2976.75           2523          54.00       222.32
 1151.79        2977.00           2527          54.00       222.32
 1151.82        2977.25           2530          56.00       231.04
 1151.85        2977.50           2534          57.00       235.40
 1151.88        2977.75           2537          57.00       235.40
 1151.91        2978.00           2541          56.00       231.04
 1151.94        2978.25           2544          53.00       217.96
 1151.97        2978.50           2548          59.00       244.12
 1152.00        2978.75           2552          58.00       239.76
 1152.03        2979.00           2555          52.00       213.60
 1152.07        2979.25           2559          53.00       217.96
 1152.10        2979.50           2562          55.00       226.68
 1152.13        2979.75           2566          50.00       204.88
 1152.16        2980.00           2569          49.00       200.52
 1152.19        2980.25           2573          61.00       252.84
 1152.22        2980.50           2577          51.00       209.24
 1152.25        2980.75           2580          58.00       239.76
 1152.28        2981.00           2584          49.00       200.52
 1152.31        2981.25           2587          47.00       191.81
 1152.34        2981.50           2591          48.00       196.17
 1152.37        2981.75           2594          52.00       213.60
 1152.40        2982.00           2598          52.00       213.60
 1152.44        2982.25           2601          50.00       204.88
 1152.48        2982.50           2605          46.00       187.45
 1152.51        2982.75           2609          51.00       209.24
 1152.54        2983.00           2612          50.00       204.88
 1152.57        2983.25           2616          42.00       170.01
 1152.60        2983.50           2619          54.00       222.32
 1152.63        2983.75           2623          51.00       209.24
 1152.66        2984.00           2626          45.00       183.09
HS scan finished at 19:12:53
end
