************************************************************
  HS Scan of (1) Internal mercury lamp
************************************************************
Integration time is 0.2294 seconds per sample
dh090918Reading 51.44 .94 3.39pr1000
************************************************************
Dead Time -------------------------  3.4E-08 
Number of Cycles Used -------------  4 
Starting Wavelength (Angstroms) ---  2950 
Final Wavelength (Angstoms) -------  2984 
Wavelength Increment (Angstroms) --  .25 
Filter Wheel #1 Position ---------- (1) Ground quartz diffuser (ND=2.32)
Filter Wheel #2 Position ---------- (1) Neutral Density 0.494



************************************************************
HS scan start time = 01:59:47
Dark Count =  2 


Time (GMT)  Wavelength (Ang)  Step Number  Raw Counts  Counts/Second

  120.67        2950.00           2144          63.00       265.91
  120.87        2950.25           2147          57.00       239.76
  120.90        2950.50           2151          64.00       270.27
  120.93        2950.75           2155          62.00       261.55
  120.96        2951.00           2158          61.00       257.19
  120.99        2951.25           2162          58.00       244.12
  121.02        2951.50           2165          64.00       270.27
  121.05        2951.75           2169          61.00       257.19
  121.08        2952.00           2172          57.00       239.76
  121.11        2952.25           2176          59.00       248.48
  121.14        2952.50           2179          61.00       257.19
  121.17        2952.75           2183          65.00       274.63
  121.20        2953.00           2186          57.00       239.76
  121.23        2953.25           2190          58.00       244.12
  121.26        2953.50           2193          66.00       278.99
  121.30        2953.75           2197          58.00       244.12
  121.33        2954.00           2200          64.00       270.27
  121.36        2954.25           2204          73.00       309.51
  121.39        2954.50           2208          67.00       283.35
  121.42        2954.75           2211          60.00       252.84
  121.45        2955.00           2215          71.00       300.79
  121.48        2955.25           2218          62.00       261.55
  121.51        2955.50           2222          59.00       248.48
  121.54        2955.75           2225          64.00       270.27
  121.57        2956.00           2229          62.00       261.55
  121.60        2956.25           2232          65.00       274.63
  121.63        2956.50           2236          69.00       292.07
  121.66        2956.75           2239          69.00       292.07
  121.69        2957.00           2243          72.00       305.15
  121.72        2957.25           2246          68.00       287.71
  121.75        2957.50           2250          73.00       309.51
  121.78        2957.75           2254          80.00       340.02
  121.82        2958.00           2257          73.00       309.51
  121.85        2958.25           2261          71.00       300.79
  121.88        2958.50           2264          69.00       292.07
  121.91        2958.75           2268          76.00       322.58
  121.94        2959.00           2271          76.00       322.58
  121.97        2959.25           2275          83.00       353.10
  122.00        2959.50           2278          87.00       370.54
  122.03        2959.75           2282          83.00       353.10
  122.06        2960.00           2285          83.00       353.10
  122.09        2960.25           2289          83.00       353.10
  122.12        2960.50           2293          82.00       348.74
  122.15        2960.75           2296          79.00       335.66
  122.18        2961.00           2300         108.00       462.08
  122.21        2961.25           2303         204.00       880.58
  122.24        2961.50           2307         594.00      2580.87
  122.27        2961.75           2310        1228.00      5345.35
  122.30        2962.00           2314        2174.00      9471.23
  122.34        2962.25           2317        3039.00     13244.85
  122.37        2962.50           2321        4233.00     18455.34
  122.40        2962.75           2324        5244.00     22868.69
  122.43        2963.00           2328        6593.00     28759.59
  122.46        2963.25           2331        7345.00     32044.49
  122.49        2963.50           2335        8340.00     36391.99
  122.52        2963.75           2339        9319.00     40670.85
  122.55        2964.00           2342       10049.00     43862.23
  122.58        2964.25           2346       11735.00     51235.65
  122.61        2964.50           2349       13692.00     59798.89
  122.64        2964.75           2353       15073.00     65844.72
  122.67        2965.00           2356       15939.00     69637.22
  122.70        2965.25           2360       17079.00     74631.16
  122.73        2965.50           2363       17863.00     78066.56
  122.76        2965.75           2367       19013.00     83107.21
  122.79        2966.00           2370       19810.00     86601.61
  122.82        2966.25           2374       20722.00     90601.24
  122.86        2966.50           2378       20904.00     91399.56
  122.89        2966.75           2381       21352.00     93364.78
  122.92        2967.00           2385       21672.00     94768.69
  122.95        2967.25           2388       21354.00     93373.56
  122.98        2967.50           2392       21400.00     93575.36
  123.01        2967.75           2395       21669.00     94755.52
  123.04        2968.00           2399       20528.00     89750.35
  123.07        2968.25           2402       19440.00     84979.27
  123.10        2968.50           2406       18387.00     80363.15
  123.13        2968.75           2409       17693.00     77321.58
  123.16        2969.00           2413       16489.00     72046.37
  123.19        2969.25           2417       14908.00     65122.24
  123.22        2969.50           2420       13501.00     58962.90
  123.25        2969.75           2424       12225.00     53379.27
  123.28        2970.00           2427       11283.00     49258.55
  123.31        2970.25           2431       10037.00     43809.76
  123.34        2970.50           2434        9092.00     39678.60
  123.37        2970.75           2438        8157.00     35592.31
  123.41        2971.00           2441        7026.00     30650.94
  123.44        2971.25           2445        5774.00     25182.85
  123.47        2971.50           2449        4685.00     20428.31
  123.50        2971.75           2452        3747.00     16334.27
  123.53        2972.00           2456        2686.00     11704.75
  123.56        2972.25           2459        1915.00      8341.51
  123.59        2972.50           2463        1048.00      4560.43
  123.62        2972.75           2466         515.00      2236.44
  123.65        2973.00           2470         152.00       653.89
  123.68        2973.25           2473          96.00       409.77
  123.71        2973.50           2477          81.00       344.38
  123.74        2973.75           2481          85.00       361.82
  123.77        2974.00           2484          86.00       366.18
  123.80        2974.25           2488          72.00       305.15
  123.83        2974.50           2491          71.00       300.79
  123.86        2974.75           2495          74.00       313.87
  123.89        2975.00           2498          67.00       283.35
  123.93        2975.25           2502          71.00       300.79
  123.96        2975.50           2505          73.00       309.51
  123.99        2975.75           2509          70.00       296.43
  124.02        2976.00           2512          68.00       287.71
  124.05        2976.25           2516          70.00       296.43
  124.08        2976.50           2520          61.00       257.19
  124.11        2976.75           2523          65.00       274.63
  124.14        2977.00           2527          63.00       265.91
  124.17        2977.25           2530          64.00       270.27
  124.20        2977.50           2534          63.00       265.91
  124.23        2977.75           2537          67.00       283.35
  124.26        2978.00           2541          68.00       287.71
  124.29        2978.25           2544          61.00       257.19
  124.32        2978.50           2548          66.00       278.99
  124.35        2978.75           2552          66.00       278.99
  124.38        2979.00           2555          66.00       278.99
  124.41        2979.25           2559          57.00       239.76
  124.45        2979.50           2562          62.00       261.55
  124.48        2979.75           2566          65.00       274.63
  124.51        2980.00           2569          66.00       278.99
  124.54        2980.25           2573          54.00       226.68
  124.57        2980.50           2577          53.00       222.32
  124.60        2980.75           2580          67.00       283.35
  124.63        2981.00           2584          56.00       235.40
  124.66        2981.25           2587          59.00       248.48
  124.69        2981.50           2591          50.00       209.24
  124.72        2981.75           2594          62.00       261.55
  124.75        2982.00           2598          57.00       239.76
  124.78        2982.25           2601          61.00       257.19
  124.81        2982.50           2605          57.00       239.76
  124.84        2982.75           2609          50.00       209.24
  124.87        2983.00           2612          53.00       222.32
  124.90        2983.25           2616          56.00       235.40
  124.93        2983.50           2619          55.00       231.04
  124.97        2983.75           2623          60.00       252.84
  125.00        2984.00           2626          55.00       231.04
HS scan finished at 02:05:13
end
************************************************************
  HS Scan of (1) Internal mercury lamp
************************************************************
Integration time is 0.2294 seconds per sample
dh090918Reading 51.44 .94 3.64pr1000
************************************************************
Dead Time -------------------------  3.4E-08 
Number of Cycles Used -------------  4 
Starting Wavelength (Angstroms) ---  2950 
Final Wavelength (Angstoms) -------  2984 
Wavelength Increment (Angstroms) --  .25 
Filter Wheel #1 Position ---------- (1) Ground quartz diffuser (ND=2.32)
Filter Wheel #2 Position ---------- (1) Neutral Density 0.494



************************************************************
HS scan start time = 19:37:29
Dark Count =  3.9 


Time (GMT)  Wavelength (Ang)  Step Number  Raw Counts  Counts/Second

 1178.39        2950.00           2144          48.00       192.24
 1178.58        2950.25           2147          51.00       205.32
 1178.61        2950.50           2151          50.00       200.96
 1178.64        2950.75           2155          46.00       183.52
 1178.67        2951.00           2158          47.00       187.88
 1178.70        2951.25           2162          43.00       170.45
 1178.73        2951.50           2165          46.00       183.52
 1178.76        2951.75           2169          47.00       187.88
 1178.79        2952.00           2172          51.00       205.32
 1178.82        2952.25           2176          48.00       192.24
 1178.86        2952.50           2179          51.00       205.32
 1178.89        2952.75           2183          51.00       205.32
 1178.92        2953.00           2186          49.00       196.60
 1178.95        2953.25           2190          46.00       183.52
 1178.98        2953.50           2193          49.00       196.60
 1179.01        2953.75           2197          42.00       166.09
 1179.04        2954.00           2200          55.00       222.76
 1179.08        2954.25           2204          52.00       209.68
 1179.11        2954.50           2208          49.00       196.60
 1179.14        2954.75           2211          50.00       200.96
 1179.17        2955.00           2215          55.00       222.76
 1179.20        2955.25           2218          54.00       218.40
 1179.23        2955.50           2222          52.00       209.68
 1179.26        2955.75           2225          56.00       227.12
 1179.29        2956.00           2229          49.00       196.60
 1179.32        2956.25           2232          59.00       240.19
 1179.35        2956.50           2236          47.00       187.88
 1179.38        2956.75           2239          51.00       205.32
 1179.41        2957.00           2243          50.00       200.96
 1179.44        2957.25           2246          58.00       235.83
 1179.47        2957.50           2250          54.00       218.40
 1179.50        2957.75           2254          52.00       209.68
 1179.53        2958.00           2257          62.00       253.27
 1179.56        2958.25           2261          54.00       218.40
 1179.60        2958.50           2264          64.00       261.99
 1179.63        2958.75           2268          57.00       231.48
 1179.66        2959.00           2271          65.00       266.35
 1179.69        2959.25           2275          56.00       227.12
 1179.72        2959.50           2278          56.00       227.12
 1179.75        2959.75           2282          55.00       222.76
 1179.78        2960.00           2285          60.00       244.55
 1179.81        2960.25           2289          57.00       231.48
 1179.84        2960.50           2293          62.00       253.27
 1179.87        2960.75           2296          66.00       270.71
 1179.90        2961.00           2300          72.00       296.86
 1179.93        2961.25           2303          95.00       397.13
 1179.96        2961.50           2307         377.00      1626.51
 1179.99        2961.75           2310         927.00      4024.53
 1180.02        2962.00           2314        1838.00      7997.38
 1180.05        2962.25           2317        2521.00     10976.63
 1180.08        2962.50           2321        3468.00     15108.46
 1180.12        2962.75           2324        4140.00     18041.14
 1180.15        2963.00           2328        5051.00     22017.79
 1180.18        2963.25           2331        5720.00     24938.75
 1180.21        2963.50           2335        6693.00     29188.06
 1180.24        2963.75           2339        7659.00     33408.02
 1180.27        2964.00           2342        8386.00     36584.71
 1180.30        2964.25           2346        9405.00     41038.48
 1180.33        2964.50           2349        9981.00     43556.61
 1180.36        2964.75           2353       11273.00     49206.49
 1180.39        2965.00           2356       11760.00     51336.70
 1180.42        2965.25           2360       12918.00     56403.18
 1180.45        2965.50           2363       13620.00     59475.42
 1180.48        2965.75           2367       14371.00     62762.82
 1180.51        2966.00           2370       15367.00     67123.81
 1180.54        2966.25           2374       16224.00     70877.22
 1180.57        2966.50           2378       16999.00     74272.33
 1180.60        2966.75           2381       17295.00     75569.25
 1180.63        2967.00           2385       17327.00     75709.46
 1180.67        2967.25           2388       17503.00     76480.66
 1180.70        2967.50           2392       17424.00     76134.50
 1180.73        2967.75           2395       17313.00     75648.11
 1180.76        2968.00           2399       16913.00     73895.54
 1180.79        2968.25           2402       16112.00     70386.65
 1180.82        2968.50           2406       15212.00     66445.06
 1180.85        2968.75           2409       14594.00     63739.12
 1180.88        2969.00           2413       13538.00     59116.53
 1180.91        2969.25           2417       12654.00     55247.97
 1180.94        2969.50           2420       12021.00     52478.47
 1180.97        2969.75           2424       11038.00     48178.68
 1181.00        2970.00           2427       10373.00     45270.59
 1181.03        2970.25           2431        9236.00     40299.73
 1181.06        2970.50           2434        8545.00     37279.56
 1181.09        2970.75           2438        7407.00     32307.05
 1181.12        2971.00           2441        6509.00     28384.40
 1181.15        2971.25           2445        5480.00     23890.80
 1181.19        2971.50           2449        4580.00     19961.67
 1181.22        2971.75           2452        3952.00     17220.63
 1181.25        2972.00           2456        2998.00     13057.67
 1181.28        2972.25           2459        2325.00     10121.62
 1181.31        2972.50           2463        1387.00      6030.44
 1181.34        2972.75           2466         783.00      3396.64
 1181.37        2973.00           2470         217.00       928.97
 1181.40        2973.25           2473         110.00       462.52
 1181.43        2973.50           2477          75.00       309.94
 1181.46        2973.75           2481          71.00       292.51
 1181.49        2974.00           2484          71.00       292.51
 1181.52        2974.25           2488          64.00       261.99
 1181.55        2974.50           2491          68.00       279.43
 1181.58        2974.75           2495          59.00       240.19
 1181.61        2975.00           2498          69.00       283.79
 1181.64        2975.25           2502          62.00       253.27
 1181.68        2975.50           2505          64.00       261.99
 1181.71        2975.75           2509          63.00       257.63
 1181.74        2976.00           2512          60.00       244.55
 1181.77        2976.25           2516          67.00       275.07
 1181.80        2976.50           2520          62.00       253.27
 1181.83        2976.75           2523          53.00       214.04
 1181.86        2977.00           2527          67.00       275.07
 1181.89        2977.25           2530          52.00       209.68
 1181.92        2977.50           2534          54.00       218.40
 1181.95        2977.75           2537          55.00       222.76
 1181.98        2978.00           2541          60.00       244.55
 1182.01        2978.25           2544          62.00       253.27
 1182.04        2978.50           2548          60.00       244.55
 1182.07        2978.75           2552          55.00       222.76
 1182.10        2979.00           2555          50.00       200.96
 1182.13        2979.25           2559          50.00       200.96
 1182.16        2979.50           2562          47.00       187.88
 1182.19        2979.75           2566          50.00       200.96
 1182.23        2980.00           2569          48.00       192.24
 1182.26        2980.25           2573          50.00       200.96
 1182.29        2980.50           2577          58.00       235.83
 1182.32        2980.75           2580          52.00       209.68
 1182.35        2981.00           2584          43.00       170.45
 1182.38        2981.25           2587          51.00       205.32
 1182.41        2981.50           2591          51.00       205.32
 1182.44        2981.75           2594          46.00       183.52
 1182.47        2982.00           2598          49.00       196.60
 1182.50        2982.25           2601          49.00       196.60
 1182.53        2982.50           2605          53.00       214.04
 1182.56        2982.75           2609          48.00       192.24
 1182.59        2983.00           2612          50.00       200.96
 1182.62        2983.25           2616          51.00       205.32
 1182.65        2983.50           2619          45.00       179.16
 1182.68        2983.75           2623          51.00       205.32
 1182.71        2984.00           2626          41.00       161.73
HS scan finished at 19:42:56
end
