************************************************************
  HS Scan of (1) Internal mercury lamp
************************************************************
Integration time is 0.2294 seconds per sample
dh100917Reading 51.44 .94 3.07pr1000
************************************************************
Dead Time -------------------------  3.4E-08 
Number of Cycles Used -------------  4 
Starting Wavelength (Angstroms) ---  2950 
Final Wavelength (Angstoms) -------  2984 
Wavelength Increment (Angstroms) --  .25 
Filter Wheel #1 Position ---------- (1) Ground quartz diffuser (ND=2.32)
Filter Wheel #2 Position ---------- (1) Neutral Density 0.494



************************************************************
HS scan start time = 02:05:46
Dark Count =  1 


Time (GMT)  Wavelength (Ang)  Step Number  Raw Counts  Counts/Second

  126.66        2950.00           2144         130.00       562.35
  126.86        2950.25           2147         114.00       492.60
  126.89        2950.50           2151         109.00       470.80
  126.92        2950.75           2155         117.00       505.68
  126.95        2951.00           2158         107.00       462.08
  126.98        2951.25           2162         115.00       496.96
  127.01        2951.50           2165          95.00       409.77
  127.04        2951.75           2169          93.00       401.05
  127.07        2952.00           2172         115.00       496.96
  127.10        2952.25           2176         113.00       488.24
  127.13        2952.50           2179          97.00       418.49
  127.16        2952.75           2183          98.00       422.85
  127.19        2953.00           2186          92.00       396.69
  127.22        2953.25           2190          93.00       401.05
  127.25        2953.50           2193         123.00       531.83
  127.29        2953.75           2197         120.00       518.75
  127.32        2954.00           2200         127.00       549.27
  127.35        2954.25           2204         130.00       562.35
  127.38        2954.50           2208         132.00       571.07
  127.41        2954.75           2211         120.00       518.75
  127.44        2955.00           2215         146.00       632.10
  127.47        2955.25           2218         120.00       518.75
  127.50        2955.50           2222         147.00       636.46
  127.53        2955.75           2225         142.00       614.66
  127.56        2956.00           2229         121.00       523.11
  127.59        2956.25           2232         117.00       505.68
  127.62        2956.50           2236         171.00       741.08
  127.65        2956.75           2239         125.00       540.55
  127.68        2957.00           2243         128.00       553.63
  127.71        2957.25           2246         109.00       470.80
  127.74        2957.50           2250         113.00       488.24
  127.77        2957.75           2254         129.00       557.99
  127.81        2958.00           2257         145.00       627.74
  127.84        2958.25           2261         114.00       492.60
  127.87        2958.50           2264         120.00       518.75
  127.90        2958.75           2268         139.00       601.58
  127.93        2959.00           2271         112.00       483.88
  127.96        2959.25           2275         148.00       640.82
  127.99        2959.50           2278         156.00       675.69
  128.02        2959.75           2282         138.00       597.22
  128.05        2960.00           2285         155.00       671.33
  128.08        2960.25           2289         156.00       675.69
  128.11        2960.50           2293         176.00       762.88
  128.14        2960.75           2296         168.00       728.00
  128.17        2961.00           2300         199.00       863.15
  128.20        2961.25           2303         321.00      1395.01
  128.23        2961.50           2307        1201.00      5231.97
  128.26        2961.75           2310        2322.00     10121.18
  128.29        2962.00           2314        4063.00     17717.73
  128.33        2962.25           2317        5423.00     23654.59
  128.36        2962.50           2321        7318.00     31930.90
  128.39        2962.75           2324       10713.00     46770.05
  128.42        2963.00           2328       13510.00     59006.67
  128.45        2963.25           2331       15261.00     66672.32
  128.48        2963.50           2335       17411.00     76090.24
  128.51        2963.75           2339       19881.00     86917.34
  128.54        2964.00           2342       21915.00     95839.25
  128.57        2964.25           2346       24492.00    107150.80
  128.60        2964.50           2349       26411.00    115579.70
  128.63        2964.75           2353       28620.00    125288.50
  128.66        2965.00           2356       30239.00    132408.20
  128.69        2965.25           2360       32427.00    142035.60
  128.72        2965.50           2363       34135.00    149555.40
  128.75        2965.75           2367       36286.00    159031.10
  128.78        2966.00           2370       33085.00    144932.10
  128.81        2966.25           2374       34553.00    151396.30
  128.85        2966.50           2378       35100.00    153805.70
  128.88        2966.75           2381       34909.00    152964.40
  128.91        2967.00           2385       34853.00    152717.70
  128.94        2967.25           2388       34514.00    151224.60
  128.97        2967.50           2392       42523.00    186541.20
  129.00        2967.75           2395       42215.00    185181.50
  129.03        2968.00           2399       41003.00    179832.00
  129.06        2968.25           2402       39256.00    172124.70
  129.09        2968.50           2406       37153.00    162852.10
  129.12        2968.75           2409       35493.00    155537.00
  129.15        2969.00           2413       33021.00    144650.40
  129.18        2969.25           2417       30415.00    133182.40
  129.21        2969.50           2420       28698.00    125631.40
  129.24        2969.75           2424       26222.00    114749.40
  129.27        2970.00           2427       24331.00    106443.80
  129.30        2970.25           2431       21803.00     95347.84
  129.33        2970.50           2434       20096.00     87860.15
  129.37        2970.75           2438       17608.00     76953.48
  129.40        2971.00           2441       15857.00     69282.46
  129.44        2971.25           2445       12908.00     56372.11
  129.47        2971.50           2449       10160.00     44351.92
  129.50        2971.75           2452        8345.00     36418.21
  129.53        2972.00           2456        5555.00     24230.94
  129.56        2972.25           2459        3892.00     16971.43
  129.59        2972.50           2463        2129.00      9279.30
  129.62        2972.75           2466        1058.00      4608.39
  129.66        2973.00           2470         308.00      1338.33
  129.69        2973.25           2473         167.00       723.64
  129.72        2973.50           2477         195.00       845.71
  129.75        2973.75           2481         173.00       749.80
  129.78        2974.00           2484         170.00       736.72
  129.81        2974.25           2488         157.00       680.05
  129.84        2974.50           2491         145.00       627.74
  129.87        2974.75           2495         150.00       649.53
  129.90        2975.00           2498         153.00       662.61
  129.93        2975.25           2502         152.00       658.25
  129.96        2975.50           2505         152.00       658.25
  129.99        2975.75           2509         160.00       693.13
  130.02        2976.00           2512         135.00       584.14
  130.05        2976.25           2516         137.00       592.86
  130.08        2976.50           2520         150.00       649.53
  130.11        2976.75           2523         157.00       680.05
  130.14        2977.00           2527         139.00       601.58
  130.18        2977.25           2530         135.00       584.14
  130.21        2977.50           2534         136.00       588.50
  130.24        2977.75           2537         136.00       588.50
  130.27        2978.00           2541         135.00       584.14
  130.30        2978.25           2544         144.00       623.38
  130.33        2978.50           2548         159.00       688.77
  130.36        2978.75           2552         115.00       496.96
  130.39        2979.00           2555         180.00       780.32
  130.42        2979.25           2559         121.00       523.11
  130.45        2979.50           2562         132.00       571.07
  130.48        2979.75           2566         112.00       483.88
  130.51        2980.00           2569         110.00       475.16
  130.54        2980.25           2573         115.00       496.96
  130.57        2980.50           2577          96.00       414.13
  130.60        2980.75           2580          99.00       427.21
  130.63        2981.00           2584         114.00       492.60
  130.66        2981.25           2587         174.00       754.16
  130.70        2981.50           2591         131.00       566.71
  130.73        2981.75           2594         117.00       505.68
  130.76        2982.00           2598         115.00       496.96
  130.79        2982.25           2601         126.00       544.91
  130.82        2982.50           2605         122.00       527.47
  130.85        2982.75           2609         109.00       470.80
  130.88        2983.00           2612         103.00       444.64
  130.91        2983.25           2616         135.00       584.14
  130.94        2983.50           2619         109.00       470.80
  130.97        2983.75           2623          98.00       422.85
  131.00        2984.00           2626         133.00       575.43
HS scan finished at 02:11:13
end
************************************************************
  HS Scan of (1) Internal mercury lamp
************************************************************
Integration time is 0.2294 seconds per sample
dh100917Reading 51.44 .94 3.31pr1000
************************************************************
Dead Time -------------------------  3.4E-08 
Number of Cycles Used -------------  4 
Starting Wavelength (Angstroms) ---  2950 
Final Wavelength (Angstoms) -------  2984 
Wavelength Increment (Angstroms) --  .25 
Filter Wheel #1 Position ---------- (1) Ground quartz diffuser (ND=2.32)
Filter Wheel #2 Position ---------- (1) Neutral Density 0.494



************************************************************
HS scan start time = 19:37:27
Dark Count =  1.7 


Time (GMT)  Wavelength (Ang)  Step Number  Raw Counts  Counts/Second

 1178.35        2950.00           2144         170.00       733.67
 1178.55        2950.25           2147         169.00       729.31
 1178.58        2950.50           2151         172.00       742.39
 1178.61        2950.75           2155         166.00       716.23
 1178.64        2951.00           2158         179.00       772.91
 1178.67        2951.25           2162         173.00       746.75
 1178.70        2951.50           2165         168.00       724.95
 1178.73        2951.75           2169         188.00       812.14
 1178.76        2952.00           2172         167.00       720.59
 1178.79        2952.25           2176         175.00       755.47
 1178.82        2952.50           2179         180.00       777.27
 1178.85        2952.75           2183         180.00       777.27
 1178.88        2953.00           2186         181.00       781.63
 1178.91        2953.25           2190         179.00       772.91
 1178.94        2953.50           2193         186.00       803.42
 1178.97        2953.75           2197         173.00       746.75
 1179.01        2954.00           2200         180.00       777.27
 1179.04        2954.25           2204         184.00       794.70
 1179.07        2954.50           2208         188.00       812.14
 1179.10        2954.75           2211         190.00       820.86
 1179.13        2955.00           2215         205.00       886.25
 1179.16        2955.25           2218         183.00       790.34
 1179.19        2955.50           2222         186.00       803.42
 1179.22        2955.75           2225         189.00       816.50
 1179.25        2956.00           2229         204.00       881.89
 1179.28        2956.25           2232         199.00       860.09
 1179.31        2956.50           2236         200.00       864.45
 1179.34        2956.75           2239         199.00       860.09
 1179.37        2957.00           2243         221.00       956.00
 1179.40        2957.25           2246         206.00       890.61
 1179.43        2957.50           2250         194.00       838.30
 1179.46        2957.75           2254         230.00       995.24
 1179.49        2958.00           2257         216.00       934.21
 1179.53        2958.25           2261         215.00       929.85
 1179.56        2958.50           2264         214.00       925.49
 1179.59        2958.75           2268         245.00      1060.63
 1179.62        2959.00           2271         227.00       982.16
 1179.65        2959.25           2275         227.00       982.16
 1179.68        2959.50           2278         217.00       938.57
 1179.71        2959.75           2282         278.00      1204.50
 1179.74        2960.00           2285         249.00      1078.07
 1179.77        2960.25           2289         281.00      1217.57
 1179.80        2960.50           2293         259.00      1121.66
 1179.83        2960.75           2296         259.00      1121.66
 1179.86        2961.00           2300         326.00      1413.76
 1179.89        2961.25           2303         907.00      3946.91
 1179.92        2961.50           2307        3044.00     13267.97
 1179.95        2961.75           2310        5297.00     23101.40
 1179.98        2962.00           2314        8680.00     37879.18
 1180.01        2962.25           2317       11391.00     49732.24
 1180.05        2962.50           2321       14877.00     64987.82
 1180.08        2962.75           2324       17530.00     76608.62
 1180.11        2963.00           2328       21670.00     94761.24
 1180.14        2963.25           2331       24959.00    109198.50
 1180.17        2963.50           2335       29140.00    127571.80
 1180.20        2963.75           2339       33151.00    145219.60
 1180.23        2964.00           2342       35618.00    156084.70
 1180.26        2964.25           2346       39203.00    171887.90
 1180.29        2964.50           2349       42503.00    186449.80
 1180.32        2964.75           2353       46537.00    204270.40
 1180.35        2965.00           2356       49473.00    217254.10
 1180.38        2965.25           2360       53056.00    233114.50
 1180.41        2965.50           2363       55761.00    245099.90
 1180.44        2965.75           2367       58995.00    259442.00
 1180.47        2966.00           2370       61758.00    271706.40
 1180.50        2966.25           2374       65398.00    287879.50
 1180.53        2966.50           2378       67353.00    296573.10
 1180.57        2966.75           2381       67624.00    297778.60
 1180.60        2967.00           2385       67774.00    298446.00
 1180.63        2967.25           2388       67637.00    297836.50
 1180.66        2967.50           2392       67481.00    297142.50
 1180.69        2967.75           2395       67333.00    296484.20
 1180.72        2968.00           2399       65642.00    288964.20
 1180.75        2968.25           2402       63060.00    277489.30
 1180.78        2968.50           2406       59319.00    260879.60
 1180.81        2968.75           2409       56476.00    248269.50
 1180.84        2969.00           2413       52419.00    230293.50
 1180.87        2969.25           2417       48532.00    213091.50
 1180.90        2969.50           2420       45767.00    200867.20
 1180.93        2969.75           2424       41967.00    184083.60
 1180.96        2970.00           2427       38468.00    168646.50
 1180.99        2970.25           2431       33818.00    148156.40
 1181.02        2970.50           2434       30765.00    134719.00
 1181.05        2970.75           2438       26876.00    117619.80
 1181.09        2971.00           2441       23981.00    104904.00
 1181.12        2971.25           2445       20279.00     88659.62
 1181.15        2971.50           2449       16216.00     70851.81
 1181.18        2971.75           2452       13208.00     57681.89
 1181.21        2972.00           2456        9221.00     40243.78
 1181.24        2972.25           2459        6465.00     28201.83
 1181.27        2972.50           2463        3302.00     14393.70
 1181.30        2972.75           2466        1565.00      6816.31
 1181.33        2973.00           2470         501.00      2176.71
 1181.36        2973.25           2473         323.00      1400.68
 1181.39        2973.50           2477         283.00      1226.29
 1181.42        2973.75           2481         266.00      1152.18
 1181.45        2974.00           2484         300.00      1300.41
 1181.48        2974.25           2488         285.00      1235.01
 1181.51        2974.50           2491         242.00      1047.55
 1181.54        2974.75           2495         233.00      1008.32
 1181.57        2975.00           2498         279.00      1208.86
 1181.61        2975.25           2502         233.00      1008.32
 1181.64        2975.50           2505         227.00       982.16
 1181.67        2975.75           2509         219.00       947.28
 1181.70        2976.00           2512         212.00       916.77
 1181.73        2976.25           2516         218.00       942.92
 1181.76        2976.50           2520         211.00       912.41
 1181.79        2976.75           2523         197.00       851.38
 1181.82        2977.00           2527         192.00       829.58
 1181.85        2977.25           2530         202.00       873.17
 1181.88        2977.50           2534         195.00       842.66
 1181.91        2977.75           2537         196.00       847.02
 1181.94        2978.00           2541         204.00       881.89
 1181.97        2978.25           2544         189.00       816.50
 1182.00        2978.50           2548         195.00       842.66
 1182.03        2978.75           2552         193.00       833.94
 1182.06        2979.00           2555         176.00       759.83
 1182.09        2979.25           2559         181.00       781.63
 1182.12        2979.50           2562         175.00       755.47
 1182.17        2979.75           2566         176.00       759.83
 1182.20        2980.00           2569         173.00       746.75
 1182.23        2980.25           2573         171.00       738.03
 1182.26        2980.50           2577         171.00       738.03
 1182.29        2980.75           2580         178.00       768.55
 1182.32        2981.00           2584         160.00       690.08
 1182.35        2981.25           2587         164.00       707.51
 1182.38        2981.50           2591         175.00       755.47
 1182.42        2981.75           2594         163.00       703.16
 1182.45        2982.00           2598         171.00       738.03
 1182.48        2982.25           2601         175.00       755.47
 1182.51        2982.50           2605         189.00       816.50
 1182.54        2982.75           2609         152.00       655.20
 1182.57        2983.00           2612         168.00       724.95
 1182.60        2983.25           2616         157.00       677.00
 1182.63        2983.50           2619         170.00       733.67
 1182.66        2983.75           2623         156.00       672.64
 1182.69        2984.00           2626         168.00       724.95
HS scan finished at 19:42:55
end
